##NAMES=Yofortierite
##RRUFFID=R080111
##IDEAL CHEMISTRY=(Mn^2+^,Mg,Fe^3+^)_5_Si_8_O_20_(OH,H_2_O)_2_&#183;7H_2_O
##LOCALITY=Mont Saint-Hilaire, Quebec, Canada
##OWNER=RRUFF
##SOURCE=William W. Pinch
##DESCRIPTION=Orange-brown thin fibers associated with albite
##STATUS=The identification of this mineral is not yet confirmed.
##URL=rruff.info/R080111
150.2075, 0.0000000E+00
150.6896, 0.3828130
151.1718, 1.445313
151.6539, 15.31055
152.1360, 27.62695
152.6181, 39.06738
153.1002, 48.61719
153.5823, 53.42773
154.0645, 46.28320
154.5466, 39.38281
155.0287, 38.50684
155.5108, 55.78613
155.9929, 65.04883
156.4750, 55.09277
156.9572, 31.41699
157.4393, 16.83203
157.9214, 25.90137
158.4035, 39.45703
158.8856, 45.61328
159.3677, 33.69043
159.8499, 22.25488
160.3320, 14.67969
160.8141, 11.17676
161.2962, 13.48047
161.7783, 28.16895
162.2604, 46.18750
162.7426, 60.07031
163.2247, 66.05664
163.7068, 68.93750
164.1889, 68.11816
164.6710, 64.26270
165.1531, 65.19043
165.6353, 82.33301
166.1174, 103.7715
166.5995, 116.7051
167.0816, 105.5312
167.5637, 92.41504
168.0458, 93.79395
168.5280, 109.7148
169.0101, 124.6855
169.4922, 127.4561
169.9743, 123.0371
170.4564, 118.3438
170.9385, 116.7188
171.4207, 115.7197
171.9028, 112.2568
172.3849, 106.0293
172.8670, 101.5449
173.3491, 105.2949
173.8312, 113.2568
174.3134, 117.7568
174.7955, 112.4365
175.2776, 102.9990
175.7597, 95.54297
176.2418, 90.37891
176.7239, 87.89746
177.2061, 89.29004
177.6882, 94.47363
178.1703, 102.0098
178.6524, 106.4697
179.1345, 104.3057
179.6166, 103.8496
180.0988, 106.4961
180.5809, 108.8887
181.0630, 101.8613
181.5451, 86.51465
182.0272, 72.76660
182.5093, 64.98438
182.9915, 62.01953
183.4736, 61.43359
183.9557, 63.31934
184.4378, 66.57324
184.9199, 70.59570
185.4020, 74.96777
185.8842, 78.72461
186.3663, 81.20703
186.8484, 85.15527
187.3305, 88.25781
187.8126, 90.04785
188.2947, 89.41309
188.7769, 81.84473
189.2590, 68.49609
189.7411, 56.48242
190.2232, 52.22168
190.7053, 54.51465
191.1874, 54.70996
191.6696, 51.51465
192.1517, 47.42285
192.6338, 48.22363
193.1159, 54.01074
193.5980, 58.70996
194.0801, 57.94141
194.5623, 52.07910
195.0444, 46.32812
195.5265, 40.41309
196.0086, 35.67969
196.4907, 36.62012
196.9728, 44.03613
197.4550, 49.80371
197.9371, 46.98535
198.4192, 35.35059
198.9013, 29.06934
199.3834, 31.09082
199.8655, 37.30469
200.3477, 37.77246
200.8298, 31.63379
201.3119, 23.46777
201.7940, 15.00586
202.2761, 5.975586
202.7582, 0.8007810
203.2404, 1.239258
203.7225, 4.890625
204.2046, 4.916992
204.6867, 0.7958980
205.1688, 4.833008
205.6509, 12.00684
206.1331, 21.94043
206.6152, 24.47070
207.0973, 16.43164
207.5794, 1.642578
208.0615, 8.470703
208.5436, 13.70410
209.0258, 15.21191
209.5079, 12.24805
209.9900, 3.193359
210.4721, 3.182617
210.9542, 6.775391
211.4363, 7.156250
211.9185, 1.329102
212.4006, 14.09766
212.8827, 28.30469
213.3648, 32.91895
213.8469, 24.31055
214.3290, 19.95801
214.8112, 22.48242
215.2933, 29.75195
215.7754, 34.72656
216.2575, 36.73633
216.7396, 37.55957
217.2217, 38.17676
217.7039, 38.76660
218.1860, 38.41016
218.6681, 36.90723
219.1502, 34.42676
219.6323, 31.37012
220.1144, 27.24512
220.5966, 23.48047
221.0787, 21.67188
221.5608, 24.57227
222.0429, 21.81543
222.5250, 9.680664
223.0071, 8.085938
223.4893, 17.29297
223.9714, 14.28418
224.4535, 8.258789
224.9356, 3.875000
225.4177, 1.750977
225.8998, 0.3447270
226.3820, 2.863281
226.8641, 5.410156
227.3462, 5.718750
227.8283, 0.6777340
228.3104, 2.061523
228.7925, 2.428711
229.2747, 20.39258
229.7568, 31.25098
230.2389, 32.05273
230.7210, 25.66504
231.2031, 20.93750
231.6852, 18.34180
232.1674, 16.54980
232.6495, 15.00000
233.1316, 14.07324
233.6137, 12.26660
234.0958, 7.911133
234.5779, 2.966797
235.0601, 3.413086
235.5422, 13.24902
236.0243, 22.93555
236.5064, 28.20312
236.9885, 27.34180
237.4706, 25.88281
237.9528, 23.06738
238.4349, 19.80859
238.9170, 18.22461
239.3991, 18.05469
239.8812, 19.93848
240.3633, 24.40430
240.8455, 32.54395
241.3276, 40.62695
241.8097, 49.09082
242.2918, 57.11719
242.7739, 62.74902
243.2560, 66.04102
243.7382, 66.90723
244.2203, 64.99609
244.7024, 59.26660
245.1845, 53.49023
245.6666, 45.75293
246.1487, 38.94727
246.6309, 39.52637
247.1130, 52.82617
247.5951, 64.76758
248.0772, 69.40332
248.5593, 63.64062
249.0414, 62.25098
249.5236, 68.07520
250.0057, 76.34277
250.4878, 78.83398
250.9699, 71.66797
251.4520, 65.49414
251.9341, 63.60352
252.4163, 66.58691
252.8984, 71.27246
253.3805, 79.65137
253.8626, 88.28418
254.3447, 91.29004
254.8268, 86.27930
255.3090, 80.89062
255.7911, 76.80566
256.2732, 73.88379
256.7553, 74.20508
257.2374, 80.50977
257.7195, 87.45703
258.2017, 88.04883
258.6838, 79.61230
259.1659, 71.08008
259.6480, 63.91211
260.1301, 58.00586
260.6122, 57.06348
261.0944, 64.66211
261.5765, 73.16602
262.0586, 73.43457
262.5407, 61.52539
263.0228, 51.96875
263.5049, 48.25977
263.9871, 50.07422
264.4692, 52.44434
264.9513, 57.09375
265.4334, 61.75684
265.9155, 62.98633
266.3976, 58.91016
266.8798, 56.30664
267.3619, 56.63672
267.8440, 59.53516
268.3261, 60.45117
268.8082, 57.40332
269.2903, 56.72754
269.7725, 66.82324
270.2546, 92.02441
270.7367, 104.8994
271.2188, 97.08887
271.7009, 74.65137
272.1830, 63.60742
272.6652, 66.27637
273.1473, 73.92871
273.6294, 81.71484
274.1115, 89.88379
274.5936, 95.94727
275.0757, 98.72363
275.5579, 99.88281
276.0400, 104.8359
276.5221, 114.7920
277.0042, 123.2725
277.4863, 125.0967
277.9684, 119.4824
278.4506, 117.3623
278.9327, 120.4570
279.4148, 126.2051
279.8969, 129.2754
280.3790, 129.5410
280.8611, 128.2188
281.3433, 125.9648
281.8254, 123.5693
282.3075, 123.6982
282.7896, 128.5283
283.2717, 132.1084
283.7538, 120.3613
284.2360, 93.11523
284.7181, 68.79395
285.2002, 54.42676
285.6823, 49.64453
286.1644, 54.72070
286.6465, 72.48730
287.1287, 91.79785
287.6108, 96.23535
288.0929, 86.64062
288.5750, 79.12988
289.0571, 81.86914
289.5392, 91.52539
290.0214, 93.68262
290.5035, 87.42676
290.9856, 79.48633
291.4677, 77.89941
291.9498, 81.57812
292.4319, 83.30664
292.9141, 80.76855
293.3962, 75.23828
293.8783, 68.98145
294.3604, 62.07910
294.8425, 55.75098
295.3246, 51.24707
295.8068, 48.38770
296.2889, 46.04199
296.7710, 43.17090
297.2531, 41.85449
297.7352, 47.27344
298.2173, 58.56543
298.6995, 68.84180
299.1816, 72.10156
299.6637, 70.61914
300.1458, 68.17773
300.6279, 64.33203
301.1100, 61.96094
301.5922, 66.98340
302.0743, 77.25000
302.5564, 84.43164
303.0385, 77.65332
303.5206, 66.52832
304.0027, 67.35352
304.4849, 85.03516
304.9670, 102.7588
305.4491, 101.7178
305.9312, 87.91211
306.4133, 75.73047
306.8954, 75.97363
307.3776, 79.71191
307.8597, 76.79492
308.3418, 66.16211
308.8239, 56.42285
309.3060, 57.16992
309.7881, 62.81055
310.2703, 64.16699
310.7524, 50.88770
311.2345, 37.14258
311.7166, 35.63281
312.1987, 45.98730
312.6808, 53.72754
313.1630, 45.47168
313.6451, 32.21094
314.1272, 25.79590
314.6093, 35.44434
315.0914, 47.38867
315.5735, 55.65527
316.0557, 60.45996
316.5378, 63.34766
317.0199, 64.61523
317.5020, 64.38867
317.9841, 62.48145
318.4662, 56.22949
318.9484, 52.28516
319.4305, 55.69141
319.9126, 63.29883
320.3947, 67.56738
320.8768, 64.28125
321.3589, 59.57324
321.8411, 56.70703
322.3232, 57.27051
322.8053, 56.65527
323.2874, 53.11426
323.7695, 47.97852
324.2516, 43.29883
324.7338, 35.82227
325.2159, 32.05176
325.6980, 35.43652
326.1801, 48.43652
326.6622, 58.05469
327.1443, 61.79004
327.6265, 62.59961
328.1086, 63.49609
328.5907, 67.74609
329.0728, 68.55176
329.5549, 63.47168
330.0370, 52.50781
330.5192, 43.81738
331.0013, 36.82324
331.4834, 32.65332
331.9655, 32.84863
332.4476, 44.17871
332.9297, 47.71484
333.4119, 36.70508
333.8940, 16.01074
334.3761, 8.161133
334.8582, 19.63770
335.3403, 33.34766
335.8224, 40.69434
336.3046, 39.97363
336.7867, 37.03027
337.2688, 30.25195
337.7509, 22.47754
338.2330, 21.42871
338.7151, 30.88672
339.1973, 35.04492
339.6794, 23.70215
340.1615, 4.351563
340.6436, 14.68066
341.1257, 2.099609
341.6078, 17.55762
342.0900, 24.21289
342.5721, 16.75977
343.0542, 6.723633
343.5363, 4.539063
344.0184, 15.37598
344.5005, 17.12305
344.9827, 8.691406
345.4648, 1.022461
345.9469, 2.380859
346.4290, 3.325195
346.9111, 6.796875
347.3932, 7.185547
347.8754, 3.671875
348.3575, 8.394531
348.8396, 27.80762
349.3217, 44.06543
349.8038, 45.45801
350.2859, 38.10742
350.7681, 38.80078
351.2502, 51.35938
351.7323, 64.35449
352.2144, 63.34375
352.6965, 51.75879
353.1786, 39.86816
353.6608, 33.97363
354.1429, 30.38379
354.6250, 23.91895
355.1071, 14.43066
355.5892, 6.375977
356.0714, 3.057617
356.5535, 3.683594
357.0356, 7.036133
357.5177, 17.42188
357.9998, 26.65430
358.4819, 27.60156
358.9641, 21.42383
359.4462, 14.10156
359.9283, 4.995117
360.4104, 2.026367
360.8925, 3.073242
361.3746, 6.762695
361.8568, 15.25391
362.3389, 14.10156
362.8210, 7.644531
363.3031, 6.011719
363.7852, 16.62500
364.2673, 29.19238
364.7495, 39.80566
365.2316, 48.81348
365.7137, 52.96680
366.1958, 48.12598
366.6779, 39.20898
367.1600, 32.01660
367.6422, 28.68164
368.1243, 25.65039
368.6064, 22.14453
369.0885, 18.17383
369.5706, 14.75781
370.0527, 11.66699
370.5349, 9.537109
371.0170, 8.907227
371.4991, 11.09180
371.9812, 12.85156
372.4633, 14.75586
372.9454, 16.21582
373.4276, 14.32129
373.9097, 6.590820
374.3918, 0.1269530
374.8739, 0.8232420
375.3560, 6.131836
375.8381, 7.181641
376.3203, 1.032227
376.8024, 11.01270
377.2845, 10.27246
377.7666, 2.824219
378.2487, 17.08887
378.7308, 29.56250
379.2130, 40.06738
379.6951, 44.41016
380.1772, 41.42676
380.6593, 38.19922
381.1414, 44.51465
381.6235, 58.59766
382.1057, 63.68555
382.5878, 53.08594
383.0699, 36.12207
383.5520, 30.64355
384.0341, 35.84961
384.5162, 43.24023
384.9984, 49.26465
385.4805, 53.44629
385.9626, 53.87012
386.4447, 49.61035
386.9268, 45.42480
387.4089, 47.07422
387.8911, 52.48730
388.3732, 56.87500
388.8553, 58.59863
389.3374, 57.94727
389.8195, 53.98828
390.3016, 46.91602
390.7838, 40.36816
391.2659, 38.30664
391.7480, 37.29883
392.2301, 33.48633
392.7122, 22.34863
393.1943, 13.32617
393.6765, 14.24316
394.1586, 21.49902
394.6407, 24.48926
395.1228, 14.71484
395.6049, 3.997070
396.0870, 1.827148
396.5692, 1.202148
397.0513, 1.799805
397.5334, 10.92090
398.0155, 20.43652
398.4976, 22.85547
398.9797, 5.895508
399.4619, 4.324219
399.9440, 0.4687500
400.4261, 20.04492
400.9082, 32.04688
401.3903, 31.94043
401.8724, 27.52734
402.3546, 23.44141
402.8367, 16.76465
403.3188, 18.82812
403.8009, 34.90625
404.2830, 57.46289
404.7651, 66.04297
405.2473, 55.58887
405.7294, 46.17578
406.2115, 48.34570
406.6936, 62.55957
407.1757, 65.67773
407.6578, 55.19043
408.1400, 40.64844
408.6221, 32.75879
409.1042, 31.46484
409.5863, 31.93457
410.0684, 33.78809
410.5505, 35.91699
411.0327, 35.03027
411.5148, 31.30664
411.9969, 29.07715
412.4790, 33.70312
412.9611, 42.10156
413.4432, 46.53613
413.9254, 45.74316
414.4075, 42.59082
414.8896, 38.94727
415.3717, 35.32715
415.8538, 32.85059
416.3359, 34.17773
416.8181, 35.46875
417.3002, 30.37598
417.7823, 19.19434
418.2644, 13.43945
418.7465, 25.94336
419.2286, 44.27539
419.7108, 55.68066
420.1929, 52.19043
420.6750, 47.60449
421.1571, 43.94141
421.6392, 42.77344
422.1213, 48.37793
422.6035, 77.77734
423.0856, 100.4795
423.5677, 100.5166
424.0498, 67.56641
424.5319, 45.12109
425.0140, 47.59961
425.4962, 57.08105
425.9783, 55.14551
426.4604, 30.62500
426.9425, 11.38867
427.4246, 0.6542970
427.9067, 1.615234
428.3889, 5.779297
428.8710, 29.49512
429.3531, 51.15723
429.8352, 58.93066
430.3173, 48.69043
430.7994, 44.53418
431.2816, 48.56934
431.7637, 55.97852
432.2458, 59.31055
432.7279, 58.32520
433.2100, 54.15137
433.6921, 44.61523
434.1743, 32.30762
434.6564, 27.52441
435.1385, 31.29297
435.6206, 38.84375
436.1027, 49.21973
436.5848, 59.32031
437.0670, 59.51172
437.5491, 44.99902
438.0312, 28.63184
438.5133, 28.08887
438.9954, 37.97070
439.4775, 43.02148
439.9597, 29.79688
440.4418, 12.12402
440.9239, 2.454102
441.4060, 1.637695
441.8881, 3.534180
442.3702, 5.113281
442.8524, 7.464844
443.3345, 11.82031
443.8166, 22.72852
444.2987, 30.46973
444.7808, 29.53320
445.2629, 22.62305
445.7451, 17.93262
446.2272, 19.84473
446.7093, 21.50000
447.1914, 19.13672
447.6735, 9.547852
448.1556, 6.021484
448.6378, 12.37109
449.1199, 22.16016
449.6020, 28.97559
450.0841, 31.10449
450.5662, 34.43848
451.0483, 41.59375
451.5305, 50.38965
452.0126, 51.62988
452.4947, 42.40430
452.9768, 36.84766
453.4589, 47.07227
453.9410, 73.90625
454.4232, 86.06348
454.9053, 80.17090
455.3874, 66.20117
455.8695, 57.20898
456.3516, 53.14941
456.8337, 53.28320
457.3159, 60.38574
457.7980, 69.08398
458.2801, 67.81348
458.7622, 57.77734
459.2443, 47.25195
459.7264, 41.59082
460.2086, 39.24609
460.6907, 39.64551
461.1728, 44.13672
461.6549, 45.39941
462.1370, 33.43457
462.6191, 15.94336
463.1013, 4.265625
463.5834, 7.469727
464.0655, 12.76465
464.5476, 12.48438
465.0297, 7.643555
465.5118, 8.844727
465.9940, 27.45898
466.4761, 46.21387
466.9582, 55.34082
467.4403, 49.20020
467.9224, 41.86035
468.4045, 30.95312
468.8867, 20.09766
469.3688, 15.12305
469.8509, 20.82227
470.3330, 23.65039
470.8151, 18.93164
471.2972, 7.994141
471.7794, 4.768555
472.2615, 11.70410
472.7436, 20.26074
473.2257, 25.28027
473.7078, 26.83105
474.1899, 24.03320
474.6721, 15.44824
475.1542, 6.353516
475.6363, 5.629883
476.1184, 12.04004
476.6005, 17.99023
477.0826, 19.83496
477.5648, 19.62891
478.0469, 21.00391
478.5290, 23.79297
479.0111, 26.65137
479.4932, 28.79199
479.9753, 30.40430
480.4575, 31.44824
480.9396, 31.57324
481.4217, 32.54980
481.9038, 36.35742
482.3859, 41.37695
482.8680, 45.10742
483.3502, 46.67871
483.8323, 46.63184
484.3144, 43.81738
484.7965, 38.47363
485.2786, 35.30176
485.7607, 39.58594
486.2429, 42.20605
486.7250, 37.90820
487.2071, 20.58203
487.6892, 9.436523
488.1713, 7.281250
488.6534, 9.539063
489.1356, 9.527344
489.6177, 6.357422
490.0998, 4.917969
490.5819, 8.250000
491.0640, 14.64258
491.5461, 13.30664
492.0283, 3.551758
492.5104, 6.810547
492.9925, 13.49512
493.4746, 16.37695
493.9567, 14.17871
494.4388, 6.086914
494.9210, 3.110352
495.4031, 7.538086
495.8852, 8.554688
496.3673, 10.13379
496.8494, 12.68457
497.3315, 16.69629
497.8137, 24.45898
498.2958, 34.55273
498.7779, 41.15723
499.2600, 39.00195
499.7421, 33.88867
500.2242, 30.06543
500.7064, 28.70410
501.1885, 26.42383
501.6706, 19.31445
502.1527, 12.44727
502.6348, 11.01074
503.1169, 25.01465
503.5991, 33.76953
504.0812, 33.81445
504.5633, 27.02246
505.0454, 19.37012
505.5275, 8.539063
506.0096, 1.097656
506.4918, 1.425781
506.9739, 10.76465
507.4560, 11.27344
507.9381, 3.7108999E-02
508.4202, 12.29004
508.9023, 12.07910
509.3845, 0.3359380
509.8666, 6.896484
510.3487, 5.634766
510.8308, 0.3408200
511.3129, 7.447266
511.7950, 14.28125
512.2772, 14.78320
512.7593, 2.113281
513.2414, 23.01660
513.7235, 29.70898
514.2056, 22.47852
514.6877, 15.71777
515.1699, 17.17969
515.6520, 23.94238
516.1341, 34.77539
516.6162, 56.17969
517.0983, 67.93457
517.5804, 54.47949
518.0626, 28.88574
518.5447, 12.64355
519.0268, 14.13184
519.5089, 20.04004
519.9910, 30.89941
520.4731, 45.85059
520.9553, 49.34180
521.4374, 33.39453
521.9195, 17.94727
522.4016, 15.94043
522.8837, 31.36621
523.3658, 39.63086
523.8480, 39.45801
524.3301, 34.99512
524.8122, 30.85254
525.2943, 27.21191
525.7764, 24.75977
526.2585, 24.10059
526.7407, 24.57129
527.2228, 24.43164
527.7049, 24.17480
528.1870, 26.09766
528.6691, 36.58203
529.1512, 47.49609
529.6334, 47.09570
530.1155, 34.10449
530.5976, 22.16992
531.0797, 17.04395
531.5618, 17.77246
532.0439, 24.00293
532.5261, 44.71484
533.0082, 57.63672
533.4903, 49.43359
533.9724, 30.26758
534.4545, 22.15234
534.9366, 40.86621
535.4188, 54.91211
535.9009, 55.04004
536.3830, 41.80664
536.8651, 35.24609
537.3472, 37.84766
537.8293, 42.88965
538.3115, 47.95215
538.7936, 53.78516
539.2757, 49.41992
539.7578, 31.37500
540.2399, 11.89062
540.7220, 9.416992
541.2042, 21.13379
541.6863, 30.93262
542.1684, 31.98145
542.6505, 30.89062
543.1326, 39.34082
543.6147, 54.50293
544.0969, 66.20508
544.5790, 63.62598
545.0611, 57.66113
545.5432, 58.70508
546.0253, 67.97656
546.5074, 73.69434
546.9896, 67.55078
547.4717, 57.47266
547.9538, 49.81543
548.4359, 43.63672
548.9180, 43.08691
549.4001, 54.12891
549.8823, 69.39258
550.3644, 75.35352
550.8465, 67.07227
551.3286, 60.11133
551.8107, 59.61816
552.2928, 64.74902
552.7750, 65.91895
553.2571, 62.24609
553.7392, 56.99414
554.2213, 50.08105
554.7034, 42.62305
555.1855, 43.62500
555.6677, 54.65918
556.1498, 64.95410
556.6319, 59.87012
557.1140, 45.77734
557.5961, 35.47461
558.0782, 31.93555
558.5604, 34.29590
559.0425, 46.78613
559.5246, 64.55957
560.0067, 76.71387
560.4888, 76.31641
560.9709, 71.36133
561.4531, 65.02930
561.9352, 57.48828
562.4173, 47.67773
562.8994, 29.41797
563.3815, 13.93066
563.8636, 7.429688
564.3458, 14.77441
564.8279, 19.39453
565.3100, 21.34766
565.7921, 20.25684
566.2742, 14.07715
566.7563, 2.803711
567.2385, 4.141602
567.7206, 4.625977
568.2027, 1.267578
568.6848, 1.012695
569.1669, 2.117188
569.6490, 1.944336
570.1312, 0.7373050
570.6133, 2.609375
571.0954, 0.2529300
571.5775, 6.016602
572.0596, 11.39746
572.5417, 10.79785
573.0239, 9.161133
573.5060, 11.36621
573.9881, 20.64160
574.4702, 27.42969
574.9523, 28.35059
575.4344, 25.66113
575.9166, 22.08496
576.3987, 14.59180
576.8808, 10.97266
577.3629, 13.86426
577.8450, 21.04785
578.3271, 24.84277
578.8093, 23.80176
579.2914, 23.00293
579.7735, 22.61523
580.2556, 23.31055
580.7377, 36.21680
581.2198, 62.48535
581.7020, 84.95508
582.1841, 85.14648
582.6662, 70.89941
583.1483, 61.78418
583.6304, 61.20996
584.1125, 60.98926
584.5947, 52.70801
585.0768, 40.69043
585.5589, 31.25293
586.0410, 27.96777
586.5231, 26.78613
587.0052, 26.61426
587.4874, 28.23340
587.9695, 32.54785
588.4516, 45.42090
588.9337, 52.86328
589.4158, 48.95410
589.8979, 34.60254
590.3801, 27.76367
590.8622, 30.33496
591.3443, 36.71875
591.8264, 45.08398
592.3085, 55.79883
592.7906, 57.33691
593.2728, 46.86523
593.7549, 34.62012
594.2370, 32.73633
594.7191, 39.03613
595.2012, 47.24121
595.6833, 57.05859
596.1655, 65.96680
596.6476, 70.97656
597.1297, 72.96777
597.6118, 74.30078
598.0939, 81.05469
598.5760, 83.40430
599.0582, 70.79102
599.5403, 46.03027
600.0224, 31.90137
600.5045, 44.03223
600.9866, 59.47754
601.4688, 67.91309
601.9509, 67.64160
602.4330, 68.94141
602.9151, 74.03418
603.3972, 77.56641
603.8793, 72.80078
604.3615, 58.30664
604.8436, 49.21484
605.3257, 47.38379
605.8078, 50.55469
606.2899, 56.77832
606.7720, 65.21191
607.2542, 72.17871
607.7363, 75.77734
608.2184, 77.50879
608.7005, 78.72754
609.1826, 79.45215
609.6647, 79.54492
610.1469, 77.15137
610.6290, 75.85840
611.1111, 79.25879
611.5932, 87.97949
612.0753, 93.84277
612.5574, 95.70703
613.0396, 94.22363
613.5217, 89.48242
614.0038, 79.49219
614.4859, 71.22363
614.9680, 64.03711
615.4501, 59.23145
615.9323, 60.42871
616.4144, 68.11621
616.8965, 68.48633
617.3786, 56.24902
617.8607, 40.05078
618.3428, 36.09668
618.8250, 41.84473
619.3071, 46.75195
619.7892, 45.25195
620.2713, 41.19434
620.7534, 39.46777
621.2355, 39.26367
621.7177, 36.08203
622.1998, 23.99219
622.6819, 11.83398
623.1640, 3.588867
623.6461, 0.6650390
624.1282, 2.478516
624.6104, 22.64648
625.0925, 42.03809
625.5746, 47.97461
626.0567, 31.46777
626.5388, 29.21094
627.0209, 46.68457
627.5031, 69.61523
627.9852, 77.79199
628.4673, 71.54297
628.9494, 64.50098
629.4315, 59.09277
629.9136, 55.08691
630.3958, 53.02246
630.8779, 52.24023
631.3600, 50.80957
631.8421, 44.38184
632.3242, 39.97363
632.8063, 44.61719
633.2885, 57.04980
633.7706, 69.44922
634.2527, 84.69141
634.7348, 93.36328
635.2169, 89.01562
635.6990, 68.98438
636.1812, 52.42188
636.6633, 37.25977
637.1454, 26.57422
637.6275, 21.90234
638.1096, 23.11914
638.5917, 31.90430
639.0739, 50.19141
639.5560, 70.36133
640.0381, 86.79297
640.5202, 97.95703
641.0023, 95.51172
641.4844, 72.34961
641.9666, 45.19531
642.4487, 32.07422
642.9308, 28.44336
643.4129, 24.40820
643.8950, 16.77148
644.3771, 7.105469
644.8593, 8.126953
645.3414, 26.14258
645.8235, 33.43945
646.3056, 16.96289
646.7877, 0.3613280
647.2698, 8.191406
647.7520, 8.455078
648.2341, 12.50000
648.7162, 22.31641
649.1983, 30.00391
649.6804, 28.07422
650.1625, 17.53711
650.6447, 8.248047
651.1268, 0.3515630
651.6089, 4.511719
652.0910, 2.998047
652.5731, 2.337891
653.0552, 7.253906
653.5374, 10.67188
654.0195, 13.71289
654.5016, 19.41211
654.9837, 24.94336
655.4658, 26.11719
655.9479, 15.10352
656.4301, 7.929688
656.9122, 9.615234
657.3943, 17.53516
657.8764, 24.00586
658.3585, 26.74805
658.8406, 33.66016
659.3228, 47.88477
659.8049, 67.45312
660.2870, 79.51172
660.7691, 83.41016
661.2512, 87.05273
661.7333, 95.73633
662.2155, 107.0000
662.6976, 118.1680
663.1797, 128.7578
663.6618, 133.2910
664.1439, 120.9805
664.6260, 105.2129
665.1082, 100.3223
665.5903, 114.6328
666.0724, 119.9043
666.5545, 102.8574
667.0366, 78.28320
667.5187, 60.11914
668.0009, 52.51953
668.4830, 43.51758
668.9651, 30.16992
669.4472, 18.65039
669.9293, 21.10352
670.4114, 37.79102
670.8936, 52.60547
671.3757, 63.07227
671.8578, 66.56055
672.3399, 51.05078
672.8220, 23.19141
673.3041, 6.222656
673.7863, 17.31641
674.2684, 38.11133
674.7505, 61.39453
675.2326, 84.60352
675.7147, 96.64258
676.1968, 85.42188
676.6790, 70.27539
677.1611, 58.17578
677.6432, 49.04102
678.1253, 44.85352
678.6074, 47.91016
679.0895, 51.70703
679.5717, 51.77539
680.0538, 48.22461
680.5359, 46.26367
681.0180, 46.28906
681.5001, 46.07422
681.9822, 41.08789
682.4644, 34.69336
682.9465, 35.16992
683.4286, 46.03125
683.9107, 55.35156
684.3928, 51.93555
684.8749, 43.30859
685.3571, 38.63281
685.8392, 49.39648
686.3213, 53.09570
686.8034, 39.06445
687.2855, 18.37305
687.7676, 9.232422
688.2498, 17.39453
688.7319, 23.20703
689.2140, 22.99805
689.6961, 18.13281
690.1782, 9.578125
690.6603, 2.156250
691.1425, 8.888672
691.6246, 2.279297
692.1067, 8.701172
692.5888, 7.607422
693.0709, 2.582031
693.5530, 8.728516
694.0352, 1.208984
694.5173, 14.01758
694.9994, 19.66602
695.4815, 16.12109
695.9636, 15.34375
696.4457, 21.50586
696.9279, 29.53906
697.4100, 37.96680
697.8921, 47.48047
698.3742, 50.68555
698.8563, 45.30273
699.3384, 40.53125
699.8206, 46.50977
700.3027, 60.71875
700.7848, 72.89844
701.2669, 82.52930
701.7490, 86.45898
702.2311, 76.81250
702.7133, 60.91602
703.1954, 49.58984
703.6775, 50.16992
704.1596, 49.68359
704.6417, 37.84180
705.1238, 22.45898
705.6060, 15.99805
706.0881, 25.16406
706.5702, 33.11523
707.0523, 38.52539
707.5344, 41.70703
708.0165, 42.71875
708.4987, 41.36328
708.9808, 40.25195
709.4629, 40.64258
709.9450, 40.88281
710.4271, 34.68945
710.9092, 24.37695
711.3914, 19.15625
711.8735, 30.58594
712.3556, 43.03516
712.8377, 44.47461
713.3198, 36.83789
713.8019, 30.39062
714.2841, 32.29883
714.7662, 31.46484
715.2483, 20.79688
715.7304, 1.009766
716.2125, 6.248047
716.6946, 1.910156
717.1768, 14.68359
717.6589, 29.95703
718.1410, 46.01953
718.6231, 44.22266
719.1052, 24.14062
719.5873, 5.474609
720.0695, 6.679688
720.5516, 17.37695
721.0337, 24.27930
721.5158, 24.34766
721.9979, 25.28711
722.4800, 34.77539
722.9622, 44.57617
723.4443, 46.79688
723.9264, 33.16797
724.4085, 28.85742
724.8906, 38.23047
725.3727, 51.71289
725.8549, 60.11719
726.3370, 63.31055
726.8191, 63.83594
727.3012, 61.68945
727.7833, 57.46680
728.2654, 47.67969
728.7476, 36.59766
729.2297, 36.09180
729.7118, 55.82812
730.1939, 73.56641
730.6760, 72.12305
731.1581, 59.31055
731.6403, 47.19922
732.1224, 36.56836
732.6045, 29.88867
733.0866, 30.53711
733.5687, 34.23828
734.0508, 30.28125
734.5330, 15.35352
735.0151, 8.017578
735.4972, 15.47852
735.9793, 31.01367
736.4614, 41.19922
736.9435, 46.14258
737.4257, 46.34766
737.9078, 37.93359
738.3899, 27.97070
738.8720, 20.50391
739.3541, 16.38281
739.8362, 18.89844
740.3184, 35.61719
740.8005, 52.51953
741.2826, 67.38867
741.7647, 79.08789
742.2468, 74.50586
742.7289, 44.10547
743.2111, 21.32227
743.6932, 26.52930
744.1753, 53.05859
744.6574, 60.62891
745.1395, 49.66797
745.6216, 38.03906
746.1038, 39.53516
746.5859, 46.85352
747.0680, 52.97461
747.5501, 57.38477
748.0322, 56.47656
748.5143, 41.64062
748.9965, 26.14062
749.4786, 20.63672
749.9607, 28.77539
750.4428, 28.12891
750.9249, 14.30859
751.4070, 1.501953
751.8892, 12.93164
752.3713, 20.40820
752.8534, 11.59570
753.3355, 16.00195
753.8176, 40.58008
754.2997, 36.69922
754.7819, 18.39648
755.2640, 6.964844
755.7461, 6.255859
756.2282, 9.292969
756.7103, 16.02148
757.1924, 22.92969
757.6746, 26.75195
758.1567, 25.64062
758.6388, 24.33008
759.1209, 22.93945
759.6030, 21.05078
760.0851, 15.69141
760.5673, 6.273438
761.0494, 9.871094
761.5315, 30.89453
762.0136, 53.49609
762.4957, 56.57031
762.9778, 47.88867
763.4600, 42.05859
763.9421, 42.80078
764.4242, 46.75000
764.9063, 55.32227
765.3884, 64.78320
765.8705, 70.60742
766.3527, 75.43945
766.8348, 71.17188
767.3169, 51.95703
767.7990, 28.80078
768.2811, 18.48438
768.7632, 21.53125
769.2454, 29.32812
769.7275, 42.29297
770.2096, 53.46875
770.6917, 50.27930
771.1738, 37.82422
771.6559, 27.31250
772.1381, 21.18359
772.6202, 19.38477
773.1023, 24.00391
773.5844, 32.59375
774.0665, 40.15820
774.5486, 52.81641
775.0308, 55.94336
775.5129, 43.98828
775.9950, 24.25977
776.4771, 13.69531
776.9592, 12.80273
777.4413, 9.498047
777.9235, 1.529297
778.4056, 13.53711
778.8877, 15.16016
779.3698, 9.277344
779.8519, 3.367188
780.3340, 3.060547
780.8162, 1.306641
781.2983, 5.525391
781.7804, 16.19727
782.2625, 28.00000
782.7446, 45.16406
783.2267, 54.96875
783.7089, 52.06836
784.1910, 41.38086
784.6731, 36.14258
785.1552, 36.27344
785.6373, 41.93359
786.1194, 56.52344
786.6016, 72.74219
787.0837, 80.78320
787.5658, 81.47266
788.0479, 76.85156
788.5300, 60.62891
789.0121, 46.53711
789.4943, 40.41602
789.9764, 41.39648
790.4585, 45.68750
790.9406, 56.14258
791.4227, 63.69141
791.9048, 64.56055
792.3870, 61.27148
792.8691, 61.25781
793.3512, 64.44336
793.8333, 68.94922
794.3154, 78.63867
794.7975, 85.40430
795.2797, 74.57227
795.7618, 51.79688
796.2439, 35.03516
796.7260, 38.43359
797.2081, 42.38867
797.6902, 38.32422
798.1724, 28.66016
798.6545, 22.49414
799.1366, 19.49023
799.6187, 21.73438
800.1008, 32.66016
800.5829, 47.56445
801.0651, 49.31055
801.5472, 40.17383
802.0293, 35.76562
802.5114, 52.72461
802.9935, 71.53516
803.4756, 71.62695
803.9578, 57.56250
804.4399, 45.86719
804.9220, 41.64648
805.4041, 42.43359
805.8862, 49.51367
806.3683, 60.71484
806.8505, 67.15820
807.3326, 68.23047
807.8147, 67.52930
808.2968, 65.39062
808.7789, 63.34180
809.2610, 66.14648
809.7432, 71.86133
810.2253, 74.97656
810.7074, 77.58203
811.1895, 74.30469
811.6716, 54.63477
812.1537, 24.56250
812.6359, 5.863281
813.1180, 8.460938
813.6001, 13.98828
814.0822, 19.71680
814.5643, 25.23242
815.0464, 28.30078
815.5286, 28.87500
816.0107, 29.75195
816.4928, 33.07422
816.9749, 36.30078
817.4570, 34.66406
817.9391, 29.50586
818.4213, 24.85938
818.9034, 19.25195
819.3855, 17.61328
819.8676, 22.67383
820.3497, 33.24414
820.8318, 45.61523
821.3140, 61.93359
821.7961, 73.66211
822.2782, 77.33203
822.7603, 76.11719
823.2424, 79.21289
823.7245, 85.63477
824.2067, 89.20898
824.6888, 89.91992
825.1709, 83.94141
825.6530, 60.62305
826.1351, 28.54883
826.6172, 7.158203
827.0994, 13.31250
827.5815, 17.25000
828.0636, 11.95508
828.5457, 1.849609
829.0278, 3.816406
829.5099, 4.181641
829.9921, 5.396484
830.4742, 10.32031
830.9563, 13.99414
831.4384, 6.378906
831.9205, 8.896484
832.4026, 22.61523
832.8848, 32.17188
833.3669, 38.35742
833.8490, 40.80078
834.3311, 40.05469
834.8132, 36.26953
835.2953, 22.20312
835.7775, 19.40430
836.2596, 34.26172
836.7417, 54.70703
837.2238, 58.76758
837.7059, 48.45117
838.1880, 42.59961
838.6702, 47.68359
839.1523, 52.23242
839.6344, 38.61133
840.1165, 18.78906
840.5986, 10.51562
841.0807, 28.24219
841.5629, 41.88672
842.0450, 39.99609
842.5271, 35.22070
843.0092, 42.69141
843.4913, 67.19922
843.9734, 75.79102
844.4556, 63.37500
844.9377, 43.13477
845.4198, 27.27344
845.9019, 16.11719
846.3840, 11.51367
846.8661, 15.52734
847.3483, 18.00977
847.8304, 8.125000
848.3125, 2.640625
848.7946, 2.605469
849.2767, 16.11133
849.7589, 25.44727
850.2410, 20.26172
850.7231, 15.24023
851.2052, 27.23242
851.6873, 52.19922
852.1694, 63.48242
852.6516, 58.75586
853.1337, 51.86523
853.6158, 52.55273
854.0979, 57.45117
854.5800, 64.80664
855.0621, 74.96875
855.5443, 80.82227
856.0264, 78.28320
856.5085, 74.07617
856.9906, 72.37500
857.4727, 73.41992
857.9548, 67.19336
858.4370, 53.43750
858.9191, 37.83789
859.4012, 22.86914
859.8833, 9.527344
860.3654, 2.558594
860.8475, 12.43359
861.3297, 13.88281
861.8118, 5.521484
862.2939, 25.03320
862.7760, 33.74023
863.2581, 32.85938
863.7402, 31.80273
864.2224, 29.57617
864.7045, 30.06641
865.1866, 36.23828
865.6687, 45.08398
866.1508, 46.64062
866.6329, 43.03516
867.1151, 43.53906
867.5972, 60.51172
868.0793, 75.54688
868.5614, 73.87695
869.0435, 61.09375
869.5256, 54.90625
870.0078, 57.56641
870.4899, 65.95508
870.9720, 84.38086
871.4541, 103.7969
871.9362, 101.0215
872.4183, 78.94141
872.9005, 59.25977
873.3826, 47.71875
873.8647, 43.31445
874.3468, 51.54688
874.8289, 64.42969
875.3110, 69.66602
875.7932, 54.86523
876.2753, 44.44922
876.7574, 41.82617
877.2395, 42.90820
877.7216, 43.36719
878.2037, 43.14844
878.6859, 42.58008
879.1680, 41.66406
879.6501, 41.57617
880.1322, 41.66992
880.6143, 42.19727
881.0964, 45.49414
881.5786, 53.48047
882.0607, 59.17578
882.5428, 60.13086
883.0249, 57.80078
883.5070, 52.46680
883.9891, 42.90820
884.4713, 36.71094
884.9534, 34.28906
885.4355, 33.63672
885.9176, 31.44922
886.3997, 30.85938
886.8818, 37.72266
887.3640, 51.65820
887.8461, 64.52344
888.3282, 71.04102
888.8103, 77.07812
889.2924, 86.61523
889.7745, 98.44531
890.2567, 100.9648
890.7388, 91.45898
891.2209, 80.88477
891.7030, 73.12500
892.1851, 68.15234
892.6672, 67.31445
893.1494, 69.43359
893.6315, 69.36328
894.1136, 63.17773
894.5957, 55.69336
895.0778, 47.65430
895.5599, 40.56250
896.0421, 38.39648
896.5242, 43.51367
897.0063, 49.00391
897.4884, 54.80859
897.9705, 58.95703
898.4526, 54.27734
898.9348, 43.77734
899.4169, 42.84375
899.8990, 59.69727
900.3811, 73.81836
900.8632, 61.37891
901.3453, 40.75586
901.8275, 33.37109
902.3096, 53.27539
902.7917, 68.45508
903.2738, 78.45117
903.7559, 83.73047
904.2380, 82.71875
904.7202, 76.36914
905.2023, 74.02148
905.6844, 77.00391
906.1665, 80.64844
906.6486, 82.75977
907.1307, 82.23633
907.6129, 75.17188
908.0950, 61.25586
908.5771, 50.16797
909.0592, 43.33008
909.5413, 41.40625
910.0234, 47.72070
910.5056, 59.82031
910.9877, 59.00000
911.4698, 46.08984
911.9519, 35.45117
912.4340, 38.06445
912.9161, 44.75586
913.3983, 46.44141
913.8804, 44.47461
914.3625, 42.62305
914.8446, 38.31055
915.3267, 39.09961
915.8088, 49.45312
916.2910, 62.80273
916.7731, 64.01953
917.2552, 53.41016
917.7373, 48.17188
918.2194, 53.36523
918.7015, 60.43359
919.1837, 61.71484
919.6658, 60.70117
920.1479, 59.65430
920.6300, 58.00781
921.1121, 59.80273
921.5942, 71.40625
922.0764, 80.70508
922.5585, 74.49023
923.0406, 51.83789
923.5227, 45.97266
924.0048, 58.68359
924.4869, 73.27148
924.9691, 74.15234
925.4512, 70.74219
925.9333, 73.40625
926.4154, 82.52539
926.8975, 92.83789
927.3796, 105.1895
927.8618, 115.6152
928.3439, 124.0508
928.8260, 129.3555
929.3081, 125.2500
929.7902, 111.8477
930.2723, 96.54102
930.7545, 80.55273
931.2366, 66.95898
931.7187, 62.91797
932.2008, 63.77344
932.6829, 59.80664
933.1650, 38.48438
933.6472, 26.08594
934.1293, 30.24609
934.6114, 41.01953
935.0935, 45.82617
935.5756, 44.80078
936.0577, 34.41992
936.5399, 12.53516
937.0220, 7.093750
937.5041, 7.746094
937.9862, 6.0547002E-02
938.4683, 3.689453
938.9504, 0.6855470
939.4326, 2.076172
939.9147, 4.554688
940.3968, 5.429688
940.8789, 3.660156
941.3610, 0.4941410
941.8431, 5.814453
942.3253, 12.16992
942.8074, 14.58398
943.2895, 3.494141
943.7716, 8.031250
944.2537, 2.501953
944.7358, 14.04297
945.2180, 18.47461
945.7001, 13.45508
946.1822, 30.09570
946.6643, 17.34961
947.1464, 10.83789
947.6285, 26.97266
948.1107, 31.53320
948.5928, 28.52539
949.0749, 16.61914
949.5570, 5.384766
950.0391, 3.748047
950.5212, 7.322266
951.0034, 11.22070
951.4855, 15.47070
951.9676, 17.46289
952.4497, 15.21289
952.9318, 13.82617
953.4139, 17.06641
953.8961, 24.49609
954.3782, 37.03320
954.8603, 53.72461
955.3424, 63.86133
955.8245, 52.63672
956.3066, 38.88672
956.7888, 38.01172
957.2709, 48.28320
957.7530, 50.68945
958.2351, 41.61328
958.7172, 31.97852
959.1993, 24.47070
959.6815, 18.76953
960.1636, 13.35938
960.6457, 9.199219
961.1278, 10.37109
961.6099, 24.00781
962.0920, 31.61133
962.5742, 12.47656
963.0563, 12.61914
963.5384, 18.26758
964.0205, 7.298828
964.5026, 17.10547
964.9847, 6.429688
965.4669, 4.822266
965.9490, 6.123047
966.4311, 28.27734
966.9132, 39.01953
967.3953, 37.41016
967.8774, 33.18945
968.3596, 19.84180
968.8417, 16.93750
969.3238, 43.03906
969.8059, 87.65039
970.2880, 103.8867
970.7701, 89.02734
971.2523, 68.97266
971.7344, 48.21289
972.2165, 33.41992
972.6986, 39.78320
973.1807, 57.85742
973.6628, 69.21289
974.1450, 62.53320
974.6271, 58.21289
975.1092, 64.22461
975.5913, 70.29492
976.0734, 65.05078
976.5555, 48.21680
977.0377, 39.00391
977.5198, 38.58203
978.0019, 45.04492
978.4840, 65.71484
978.9661, 86.80859
979.4482, 90.69727
979.9304, 78.02539
980.4125, 75.88867
980.8946, 101.9062
981.3767, 117.0723
981.8588, 106.2812
982.3409, 80.00977
982.8231, 63.62305
983.3052, 57.42383
983.7873, 65.88867
984.2694, 101.4531
984.7515, 130.3516
985.2336, 117.0469
985.7158, 88.05859
986.1979, 79.34375
986.6800, 105.7500
987.1621, 122.3613
987.6442, 127.4551
988.1263, 127.0098
988.6085, 126.6992
989.0906, 124.9258
989.5727, 115.7148
990.0548, 99.74414
990.5369, 86.15039
991.0190, 81.88867
991.5012, 79.20703
991.9833, 72.83984
992.4654, 65.15234
992.9475, 67.57812
993.4296, 82.38672
993.9117, 84.39844
994.3939, 60.55078
994.8760, 32.41406
995.3581, 35.12695
995.8402, 54.55078
996.3223, 63.91602
996.8044, 50.74609
997.2866, 38.44531
997.7687, 29.95508
998.2508, 23.75000
998.7329, 19.12305
999.2150, 16.10156
999.6971, 12.04492
1000.179, 7.058594
1000.661, 8.501953
1001.143, 32.12695
1001.626, 54.35742
1002.108, 55.81445
1002.590, 40.35352
1003.072, 30.02734
1003.554, 28.28906
1004.036, 22.06641
1004.518, 7.343750
1005.000, 4.890625
1005.483, 9.234375
1005.965, 38.51172
1006.447, 50.94531
1006.929, 34.80859
1007.411, 18.72266
1007.893, 15.27734
1008.375, 18.65820
1008.857, 24.94922
1009.339, 34.61523
1009.822, 40.01758
1010.304, 40.51172
1010.786, 43.16797
1011.268, 57.44727
1011.750, 72.69336
1012.232, 70.79297
1012.714, 58.21680
1013.196, 53.83594
1013.679, 75.50586
1014.161, 88.68555
1014.643, 84.76953
1015.125, 74.26562
1015.607, 72.98242
1016.089, 79.20117
1016.571, 83.59180
1017.053, 85.03125
1017.535, 82.64453
1018.018, 72.69336
1018.500, 61.51953
1018.982, 55.69531
1019.464, 56.27539
1019.946, 46.74414
1020.428, 22.27344
1020.910, 5.654297
1021.392, 11.99414
1021.875, 30.09766
1022.357, 33.77930
1022.839, 27.73047
1023.321, 22.57617
1023.803, 24.93945
1024.285, 26.36133
1024.767, 25.49805
1025.249, 21.64453
1025.731, 11.15430
1026.214, 6.314453
1026.696, 9.636719
1027.178, 2.669922
1027.660, 18.28516
1028.142, 30.11133
1028.624, 39.57617
1029.106, 49.65625
1029.588, 59.44727
1030.071, 60.81055
1030.553, 49.50391
1031.035, 40.21484
1031.517, 36.42578
1031.999, 36.24609
1032.481, 37.03711
1032.963, 38.68750
1033.445, 41.75781
1033.927, 47.95898
1034.410, 49.30273
1034.892, 27.81250
1035.374, 12.68555
1035.856, 29.92773
1036.338, 81.08984
1036.820, 98.85352
1037.302, 82.39844
1037.784, 58.99609
1038.266, 39.64844
1038.749, 25.99023
1039.231, 22.25391
1039.713, 25.46289
1040.195, 28.58203
1040.677, 29.80664
1041.159, 31.89062
1041.641, 36.11328
1042.123, 39.67773
1042.605, 37.64062
1043.088, 32.39453
1043.570, 32.08008
1044.052, 37.51367
1044.534, 39.25586
1045.016, 28.32617
1045.498, 16.20703
1045.980, 7.074219
1046.462, 1.773438
1046.945, 7.687500
1047.427, 25.74023
1047.909, 32.97266
1048.391, 16.89258
1048.873, 1.345703
1049.355, 4.982422
1049.837, 21.42773
1050.319, 27.76562
1050.802, 11.94922
1051.284, 6.769531
1051.766, 18.65430
1052.248, 28.19531
1052.730, 11.02344
1053.212, 20.10352
1053.694, 16.21875
1054.176, 16.33398
1054.658, 47.47656
1055.141, 66.96875
1055.623, 76.07617
1056.105, 67.75391
1056.587, 53.91406
1057.069, 52.94531
1057.551, 65.19727
1058.033, 77.21680
1058.515, 88.14453
1058.998, 92.75000
1059.480, 80.18945
1059.962, 63.64062
1060.444, 57.53711
1060.926, 63.19531
1061.408, 59.75391
1061.890, 42.67188
1062.372, 27.21094
1062.854, 17.50391
1063.337, 14.19922
1063.819, 20.47070
1064.301, 32.97461
1064.783, 44.72656
1065.265, 53.95508
1065.747, 61.34180
1066.229, 70.08594
1066.711, 74.31836
1067.193, 68.94922
1067.676, 54.33203
1068.158, 38.71680
1068.640, 22.32031
1069.122, 9.423828
1069.604, 0.6054690
1070.086, 0.9394530
1070.568, 12.01562
1071.050, 30.61719
1071.532, 37.59570
1072.015, 29.53320
1072.497, 20.91016
1072.979, 12.51367
1073.461, 6.888672
1073.943, 10.59180
1074.425, 16.86328
1074.907, 12.64258
1075.389, 2.097656
1075.872, 5.183594
1076.354, 23.85156
1076.836, 42.73242
1077.318, 35.02539
1077.800, 14.94727
1078.282, 18.03516
1078.764, 37.16406
1079.246, 44.51953
1079.729, 27.73633
1080.211, 16.79102
1080.693, 38.03711
1081.175, 63.02344
1081.657, 68.86914
1082.139, 55.61328
1082.621, 47.13477
1083.103, 43.49609
1083.585, 43.68555
1084.068, 50.63672
1084.550, 57.40234
1085.032, 52.12109
1085.514, 43.54883
1085.996, 49.70312
1086.478, 93.08398
1086.960, 101.8477
1087.442, 65.06836
1087.925, 21.08789
1088.407, 4.505859
1088.889, 6.302734
1089.371, 13.77734
1089.853, 24.89062
1090.335, 31.55273
1090.817, 31.18945
1091.299, 24.70703
1091.781, 7.371094
1092.264, 10.39844
1092.746, 5.246094
1093.228, 17.49219
1093.710, 30.98633
1094.192, 29.78516
1094.674, 28.19141
1095.156, 35.78320
1095.638, 44.00586
1096.120, 47.71094
1096.603, 46.73242
1097.085, 36.20117
1097.567, 15.05469
1098.049, 8.958984
1098.531, 35.75977
1099.013, 66.24609
1099.495, 62.60742
1099.977, 44.48047
1100.459, 39.06836
1100.942, 53.94922
1101.424, 73.28906
1101.906, 101.0117
1102.388, 120.6113
1102.870, 119.8828
1103.352, 105.1387
1103.834, 82.74609
1104.316, 56.60742
1104.799, 38.01367
1105.281, 31.47656
1105.763, 33.50195
1106.245, 47.78516
1106.727, 63.38672
1107.209, 69.40820
1107.691, 66.31641
1108.173, 51.33789
1108.656, 25.43359
1109.138, 3.169922
1109.620, 10.99414
1110.102, 15.07031
1110.584, 1.105469
1111.066, 19.33789
1111.548, 21.74219
1112.030, 7.144531
1112.512, 9.064453
1112.995, 36.24609
1113.477, 62.26758
1113.959, 60.16602
1114.441, 49.68164
1114.923, 47.31445
1115.405, 53.68750
1115.887, 59.37500
1116.369, 64.56055
1116.852, 68.39258
1117.334, 70.94531
1117.816, 71.44141
1118.298, 68.73633
1118.780, 63.54688
1119.262, 56.22656
1119.744, 44.66016
1120.226, 39.80273
1120.708, 45.85938
1121.191, 49.40039
1121.673, 38.88672
1122.155, 22.62695
1122.637, 23.75586
1123.119, 35.93750
1123.601, 41.42188
1124.083, 24.79883
1124.565, 13.02734
1125.047, 12.55078
1125.530, 14.98047
1126.012, 12.32031
1126.494, 5.537109
1126.976, 4.621094
1127.458, 16.09375
1127.940, 12.72852
1128.422, 33.84570
1128.904, 75.83008
1129.386, 88.33398
1129.869, 85.34570
1130.351, 85.72656
1130.833, 89.36328
1131.315, 97.57422
1131.797, 110.9043
1132.279, 120.6914
1132.761, 116.1758
1133.243, 108.6680
1133.726, 104.7051
1134.208, 105.3984
1134.690, 113.9883
1135.172, 132.5645
1135.654, 143.7168
1136.136, 142.8633
1136.618, 136.5371
1137.100, 130.8184
1137.583, 124.5566
1138.065, 114.7930
1138.547, 100.2637
1139.029, 96.52930
1139.511, 108.4707
1139.993, 115.0527
1140.475, 105.5078
1140.957, 89.95898
1141.439, 80.36523
1141.922, 77.43359
1142.404, 84.63086
1142.886, 112.4629
1143.368, 120.8906
1143.850, 98.85742
1144.332, 75.19336
1144.814, 68.65625
1145.296, 72.74609
1145.779, 71.36719
1146.261, 66.30273
1146.743, 63.31836
1147.225, 74.14844
1147.707, 72.55859
1148.189, 47.54297
1148.671, 20.30664
1149.153, 10.74609
1149.635, 15.32031
1150.118, 19.12500
1150.600, 21.97656
1151.082, 20.13477
1151.564, 5.357422
1152.046, 6.710938
1152.528, 10.37500
1153.010, 8.154297
1153.492, 0.9570310
1153.974, 10.37891
1154.457, 17.08203
1154.939, 18.18945
1155.421, 13.15820
1155.903, 11.76953
1156.385, 29.57812
1156.867, 14.97070
1157.349, 15.84180
1157.831, 24.53711
1158.313, 10.50781
1158.796, 7.513672
1159.278, 22.07227
1159.760, 39.41406
1160.242, 50.07031
1160.724, 55.81055
1161.206, 57.86133
1161.688, 56.33398
1162.170, 47.24023
1162.653, 28.54297
1163.135, 26.50391
1163.617, 52.59375
1164.099, 84.25391
1164.581, 101.8086
1165.063, 110.1973
1165.545, 112.9297
1166.027, 109.7031
1166.510, 109.5254
1166.992, 113.1543
1167.474, 113.9180
1167.956, 107.6387
1168.438, 102.3848
1168.920, 112.3027
1169.402, 125.9824
1169.884, 126.3848
1170.366, 104.6211
1170.849, 87.67578
1171.331, 74.41602
1171.813, 70.88086
1172.295, 87.23047
1172.777, 109.3496
1173.259, 115.8398
1173.741, 110.4629
1174.223, 99.98633
1174.706, 78.42969
1175.188, 66.12109
1175.670, 65.22461
1176.152, 68.10547
1176.634, 66.91992
1177.116, 66.28906
1177.598, 81.33203
1178.080, 105.2207
1178.563, 117.8066
1179.045, 106.1660
1179.527, 90.36523
1180.009, 68.37305
1180.491, 51.03320
1180.973, 53.23242
1181.455, 63.34570
1181.937, 59.50391
1182.419, 44.63477
1182.901, 37.36328
1183.384, 50.83203
1183.866, 54.03320
1184.348, 40.08008
1184.830, 24.71680
1185.312, 28.10938
1185.794, 41.62500
1186.276, 45.41406
1186.758, 38.96289
1187.240, 40.16211
1187.723, 60.52539
1188.205, 77.56836
1188.687, 86.09180
1189.169, 90.34180
1189.651, 99.45312
1190.133, 109.2617
1190.615, 102.6660
1191.097, 77.27148
1191.580, 62.85156
1192.062, 79.34766
1192.544, 102.3125
1193.026, 129.9688
1193.508, 152.6621
1193.990, 138.7715
1194.472, 101.6504
1194.954, 94.02930
1195.437, 130.5273
1195.919, 151.3711
1196.401, 109.5059
1196.883, 70.16797
1197.365, 62.15625
1197.847, 74.65039
1198.329, 79.34766
1198.811, 76.75000
1199.293, 66.30859
1199.776, 44.22852
1200.258, 31.11133
1200.740, 43.17578
1201.222, 59.54883
1201.704, 70.97461
1202.186, 77.44922
1202.668, 78.70508
1203.150, 74.63867
1203.633, 63.18164
1204.115, 36.95898
1204.597, 23.10938
1205.079, 48.01172
1205.561, 75.87695
1206.043, 84.63867
1206.525, 78.86328
1207.007, 83.94531
1207.490, 96.17969
1207.972, 97.58594
1208.454, 72.66992
1208.936, 52.50781
1209.418, 51.70898
1209.900, 58.58008
1210.382, 69.38281
1210.864, 82.75977
1211.346, 84.40234
1211.828, 76.69141
1212.311, 71.80469
1212.793, 77.06836
1213.275, 83.35547
1213.757, 81.76758
1214.239, 83.84180
1214.721, 108.7656
1215.203, 150.3066
1215.685, 146.2930
1216.167, 105.9512
1216.650, 78.77539
1217.132, 110.3398
1217.614, 131.5508
1218.096, 112.2676
1218.578, 83.32422
1219.060, 72.25781
1219.542, 75.96484
1220.024, 72.74023
1220.507, 63.40625
1220.989, 54.66797
1221.471, 49.56250
1221.953, 46.42773
1222.435, 45.11523
1222.917, 45.29297
1223.399, 48.04297
1223.881, 52.27930
1224.364, 48.54883
1224.846, 39.11133
1225.328, 39.15039
1225.810, 68.98828
1226.292, 91.79102
1226.774, 98.13672
1227.256, 95.07617
1227.738, 85.95312
1228.220, 74.55469
1228.703, 79.56445
1229.185, 98.56641
1229.667, 109.1309
1230.149, 88.14648
1230.631, 75.26562
1231.113, 81.87305
1231.595, 95.24414
1232.077, 95.19922
1232.560, 89.37695
1233.042, 106.8809
1233.524, 144.8809
1234.006, 165.8633
1234.488, 140.2910
1234.970, 113.8770
1235.452, 94.77734
1235.934, 79.64844
1236.417, 67.02930
1236.899, 54.45312
1237.381, 29.97266
1237.863, 3.921875
1238.345, 18.17969
1238.827, 26.91602
1239.309, 44.28906
1239.791, 10.16211
1240.273, 34.94922
1240.755, 30.03320
1241.238, 9.5702998E-02
1241.720, 5.146484
1242.202, 16.32422
1242.684, 23.65234
1243.166, 4.523438
1243.648, 17.20508
1244.130, 0.3964840
1244.612, 23.17773
1245.094, 14.15625
1245.577, 9.044922
1246.059, 17.24219
1246.541, 9.189453
1247.023, 11.83008
1247.505, 31.04102
1247.987, 50.98828
1248.469, 68.39062
1248.951, 84.73438
1249.434, 106.2832
1249.916, 124.0078
1250.398, 124.1211
1250.880, 106.7344
1251.362, 94.49414
1251.844, 87.60938
1252.326, 92.63477
1252.808, 115.3750
1253.291, 133.0703
1253.773, 111.0039
1254.255, 78.57227
1254.737, 65.89258
1255.219, 73.60938
1255.701, 75.73438
1256.183, 72.03906
1256.665, 62.49414
1257.147, 45.33984
1257.630, 31.45703
1258.112, 28.78320
1258.594, 35.11328
1259.076, 57.03125
1259.558, 87.08203
1260.040, 88.92773
1260.522, 62.92969
1261.004, 52.10352
1261.487, 68.24609
1261.969, 83.73828
1262.451, 70.93164
1262.933, 56.89258
1263.415, 63.54883
1263.897, 81.93359
1264.379, 78.11719
1264.861, 55.60352
1265.344, 42.45898
1265.826, 45.48438
1266.308, 51.71289
1266.790, 55.12500
1267.272, 58.34375
1267.754, 61.45312
1268.236, 66.33594
1268.718, 81.73047
1269.200, 103.4902
1269.682, 114.4727
1270.165, 110.4512
1270.647, 106.9336
1271.129, 113.4395
1271.611, 112.6035
1272.093, 107.8340
1272.575, 94.04297
1273.057, 85.70117
1273.539, 82.29883
1274.021, 73.61328
1274.504, 61.54297
1274.986, 52.60156
1275.468, 66.24219
1275.950, 75.89062
1276.432, 75.64062
1276.914, 70.84375
1277.396, 72.09375
1277.878, 74.44531
1278.361, 67.83008
1278.843, 50.50000
1279.325, 45.50000
1279.807, 57.78906
1280.289, 67.47656
1280.771, 68.70703
1281.253, 67.32227
1281.735, 68.50000
1282.218, 73.25391
1282.700, 86.28125
1283.182, 105.9766
1283.664, 102.9590
1284.146, 73.21875
1284.628, 67.77930
1285.110, 104.2402
1285.592, 142.0723
1286.074, 139.5430
1286.557, 128.6211
1287.039, 138.1836
1287.521, 160.3340
1288.003, 160.5605
1288.485, 141.4844
1288.967, 137.0488
1289.449, 156.9668
1289.931, 171.2852
1290.414, 156.3945
1290.896, 136.4727
1291.378, 122.5781
1291.860, 114.0586
1292.342, 114.2598
1292.824, 118.1699
1293.306, 102.3906
1293.788, 61.04883
1294.271, 36.04102
1294.753, 63.44922
1295.235, 83.64062
1295.717, 77.91992
1296.199, 62.09375
1296.681, 68.96094
1297.163, 82.64453
1297.645, 65.39453
1298.127, 12.82617
1298.609, 3.607422
1299.092, 39.41406
1299.574, 67.57031
1300.056, 61.49023
1300.538, 46.35742
1301.020, 60.78125
1301.502, 79.31836
1301.984, 65.73438
1302.466, 24.11523
1302.948, 1.386719
1303.431, 0.2734380
1303.913, 6.519531
1304.395, 0.0000000E+00
##END=



