##NAMES=Yofortierite
##RRUFFID=R080111
##IDEAL CHEMISTRY=(Mn^2+^,Mg,Fe^3+^)_5_Si_8_O_20_(OH,H_2_O)_2_&#183;7H_2_O
##LOCALITY=Mont Saint-Hilaire, Quebec, Canada
##OWNER=RRUFF
##SOURCE=William W. Pinch
##DESCRIPTION=Orange-brown thin fibers associated with albite
##STATUS=The identification of this mineral is not yet confirmed.
##URL=rruff.info/R080111
150.3774, 0.0000000E+00
150.8595, 5.0781000E-02
151.3417, 0.3203130
151.8238, 10.00000
152.3059, 26.84766
152.7880, 48.30859
153.2701, 68.14062
153.7522, 72.31250
154.2344, 32.00781
154.7165, 4.863281
155.1986, 10.37891
155.6807, 30.47266
156.1628, 40.36719
156.6449, 26.51562
157.1271, 2.343750
157.6092, 9.500000
158.0913, 22.71484
158.5734, 53.07031
159.0555, 71.00000
159.5376, 77.89062
160.0198, 74.13281
160.5019, 56.50000
160.9840, 30.03906
161.4661, 13.62109
161.9482, 9.042969
162.4303, 11.72266
162.9125, 22.80469
163.3946, 41.76172
163.8767, 56.76172
164.3588, 60.38672
164.8409, 55.00000
165.3230, 43.62891
165.8052, 19.66016
166.2873, 3.636719
166.7694, 5.855469
167.2515, 18.85938
167.7336, 44.85156
168.2157, 61.23438
168.6979, 71.31641
169.1800, 78.12109
169.6621, 82.37109
170.1442, 84.70703
170.6263, 87.17188
171.1084, 91.17969
171.5906, 93.02734
172.0727, 89.96484
172.5548, 84.67188
173.0369, 80.86719
173.5190, 80.77344
174.0011, 84.05078
174.4833, 88.08594
174.9654, 96.26953
175.4475, 101.4258
175.9296, 98.29688
176.4117, 90.95703
176.8938, 87.10156
177.3760, 93.07031
177.8581, 109.2422
178.3402, 120.1523
178.8223, 124.3672
179.3044, 125.6328
179.7865, 121.9727
180.2687, 115.7969
180.7508, 114.1328
181.2329, 124.9766
181.7150, 150.4688
182.1971, 156.3047
182.6792, 124.1367
183.1614, 90.74219
183.6435, 77.99219
184.1256, 86.37891
184.6077, 102.1484
185.0898, 114.4453
185.5719, 122.6992
186.0541, 128.8945
186.5362, 129.6328
187.0183, 130.0039
187.5004, 136.5508
187.9825, 150.3047
188.4646, 162.2422
188.9468, 160.7891
189.4289, 149.3867
189.9110, 142.1445
190.3931, 146.9688
190.8752, 156.4023
191.3573, 158.1055
191.8395, 149.1719
192.3216, 138.4297
192.8037, 129.6562
193.2858, 124.0156
193.7679, 125.4492
194.2500, 148.2109
194.7322, 180.9531
195.2143, 182.5625
195.6964, 130.2617
196.1785, 81.00781
196.6606, 67.41406
197.1427, 79.66016
197.6249, 96.83594
198.1070, 107.3750
198.5891, 111.5156
199.0712, 111.7539
199.5533, 104.0898
200.0354, 96.23438
200.5176, 91.38281
200.9997, 88.60547
201.4818, 85.16016
201.9639, 77.20312
202.4460, 64.30859
202.9281, 62.31641
203.4103, 84.35156
203.8924, 106.1250
204.3745, 122.5703
204.8566, 132.9688
205.3387, 137.0898
205.8208, 133.3633
206.3030, 119.9297
206.7851, 117.2383
207.2672, 130.0977
207.7493, 148.0430
208.2314, 173.6445
208.7135, 202.6172
209.1957, 219.8633
209.6778, 207.6914
210.1599, 158.1523
210.6420, 144.9766
211.1241, 202.3516
211.6062, 258.5820
212.0884, 273.8438
212.5705, 249.9062
213.0526, 213.9570
213.5347, 187.9297
214.0168, 172.9453
214.4989, 167.0273
214.9811, 181.9531
215.4632, 195.8086
215.9453, 191.3594
216.4274, 168.6836
216.9095, 145.6406
217.3916, 139.1914
217.8737, 149.6875
218.3559, 151.2266
218.8380, 132.4062
219.3201, 111.8711
219.8022, 106.5469
220.2843, 117.8008
220.7664, 135.1016
221.2486, 155.1797
221.7307, 175.2656
222.2128, 183.2461
222.6949, 167.5117
223.1770, 143.8750
223.6591, 129.6133
224.1413, 125.7070
224.6234, 126.5625
225.1055, 130.4805
225.5876, 136.1602
226.0697, 141.6602
226.5518, 145.8164
227.0340, 149.6367
227.5161, 154.4531
227.9982, 160.0625
228.4803, 166.8750
228.9624, 178.4531
229.4445, 190.5078
229.9267, 196.3906
230.4088, 190.7383
230.8909, 180.0430
231.3730, 179.2148
231.8551, 195.3945
232.3372, 203.2617
232.8194, 186.9922
233.3015, 159.1680
233.7836, 132.6367
234.2657, 111.2812
234.7478, 96.66406
235.2299, 95.13672
235.7121, 118.1406
236.1942, 130.9141
236.6763, 115.8086
237.1584, 90.09766
237.6405, 71.21875
238.1227, 66.64062
238.6048, 72.91797
239.0869, 82.80859
239.5690, 103.0664
240.0511, 114.3359
240.5332, 110.6914
241.0154, 98.92578
241.4975, 82.27734
241.9796, 61.88281
242.4617, 44.21484
242.9438, 48.19141
243.4259, 99.75000
243.9081, 131.7773
244.3902, 124.1016
244.8723, 101.8242
245.3544, 87.14062
245.8365, 88.92578
246.3186, 103.5391
246.8008, 121.7656
247.2829, 148.2266
247.7650, 170.7617
248.2471, 190.2461
248.7292, 205.1367
249.2113, 213.5391
249.6935, 214.6016
250.1756, 209.7383
250.6577, 200.7578
251.1398, 174.2539
251.6219, 164.7188
252.1040, 189.6484
252.5862, 220.6445
253.0683, 229.6367
253.5504, 209.3438
254.0325, 177.2539
254.5146, 162.2188
254.9967, 178.5547
255.4789, 187.0352
255.9610, 183.0430
256.4431, 174.7891
256.9252, 169.4766
257.4073, 168.8320
257.8894, 168.6484
258.3716, 161.8438
258.8537, 142.2695
259.3358, 134.6367
259.8179, 152.9727
260.3000, 175.0117
260.7821, 179.8164
261.2643, 164.1875
261.7464, 141.6992
262.2285, 125.7227
262.7106, 116.8555
263.1927, 115.3789
263.6748, 126.0352
264.1570, 140.7891
264.6391, 156.8945
265.1212, 173.0781
265.6033, 179.8711
266.0854, 163.9023
266.5675, 124.0156
267.0497, 100.1523
267.5318, 103.8438
268.0139, 116.4648
268.4960, 122.5508
268.9781, 121.5898
269.4602, 124.6211
269.9424, 144.6055
270.4245, 177.1172
270.9066, 191.8633
271.3887, 177.2891
271.8708, 153.2109
272.3529, 133.2617
272.8351, 117.5156
273.3172, 102.6211
273.7993, 86.19531
274.2814, 69.45312
274.7635, 55.26562
275.2456, 42.69531
275.7278, 34.14453
276.2099, 32.09375
276.6920, 36.17578
277.1741, 43.42188
277.6562, 54.31641
278.1383, 66.43359
278.6205, 75.44531
279.1026, 81.62109
279.5847, 83.94531
280.0668, 77.90234
280.5489, 65.47266
281.0310, 59.28516
281.5132, 64.58984
281.9953, 77.71875
282.4774, 93.51562
282.9595, 112.7148
283.4416, 129.6523
283.9237, 141.7344
284.4059, 148.8711
284.8880, 149.7070
285.3701, 140.0859
285.8522, 129.1641
286.3343, 129.0469
286.8164, 139.0664
287.2986, 144.5273
287.7807, 130.9492
288.2628, 105.7891
288.7449, 95.43359
289.2270, 110.1719
289.7091, 128.0938
290.1913, 129.0312
290.6734, 117.2617
291.1555, 107.5938
291.6376, 112.7500
292.1197, 124.4531
292.6018, 120.8750
293.0840, 95.46484
293.5661, 68.13672
294.0482, 49.76953
294.5303, 39.67188
295.0124, 35.13281
295.4945, 37.21094
295.9767, 44.50000
296.4588, 56.53906
296.9409, 76.85547
297.4230, 89.71094
297.9051, 78.12891
298.3872, 57.03516
298.8694, 44.67188
299.3515, 49.52734
299.8336, 58.78125
300.3157, 52.92969
300.7978, 28.60156
301.2799, 9.042969
301.7621, 10.29297
302.2442, 16.89844
302.7263, 12.48438
303.2084, 7.285156
303.6905, 26.24609
304.1726, 23.70312
304.6548, 1.636719
305.1369, 17.54688
305.6190, 7.515625
306.1011, 7.785156
306.5832, 10.85156
307.0653, 0.8945310
307.5475, 8.667969
308.0296, 4.109375
308.5117, 12.93359
308.9938, 21.45312
309.4759, 14.80859
309.9580, 2.449219
310.4402, 12.96484
310.9223, 29.24609
311.4044, 38.77734
311.8865, 33.28125
312.3686, 16.17188
312.8507, 0.9453130
313.3329, 15.78125
313.8150, 24.03516
314.2971, 14.79297
314.7792, 4.890625
315.2613, 21.79688
315.7434, 26.75391
316.2256, 27.18359
316.7077, 43.42578
317.1898, 85.70312
317.6719, 114.8633
318.1540, 100.3320
318.6361, 70.21484
319.1183, 53.82812
319.6004, 60.33984
320.0825, 76.92969
320.5646, 89.57812
321.0467, 98.27734
321.5288, 107.3672
322.0110, 124.4570
322.4931, 138.7070
322.9752, 139.6289
323.4573, 125.0508
323.9394, 105.2266
324.4215, 89.63281
324.9037, 78.48438
325.3858, 67.35938
325.8679, 50.96094
326.3500, 40.01953
326.8321, 44.69922
327.3142, 62.74609
327.7964, 80.42188
328.2785, 90.50391
328.7606, 92.50391
329.2427, 85.69141
329.7248, 65.23047
330.2069, 47.80078
330.6891, 42.60938
331.1712, 44.55664
331.6533, 45.58594
332.1354, 43.17578
332.6175, 39.96484
333.0996, 39.64258
333.5818, 41.82227
334.0639, 48.71875
334.5460, 71.28320
335.0281, 95.71289
335.5102, 103.0508
335.9923, 82.13477
336.4745, 54.44336
336.9566, 46.33008
337.4387, 58.92969
337.9208, 72.10742
338.4029, 81.33594
338.8850, 86.61328
339.3671, 85.84375
339.8492, 78.17969
340.3314, 73.87891
340.8135, 88.65430
341.2956, 117.2031
341.7777, 123.0469
342.2598, 85.65430
342.7419, 44.18945
343.2241, 34.02539
343.7062, 50.03906
344.1883, 68.60156
344.6704, 80.44922
345.1525, 86.20898
345.6346, 86.73633
346.1168, 80.79688
346.5989, 73.98242
347.0810, 68.41016
347.5631, 64.91406
348.0452, 66.12891
348.5273, 77.69922
349.0095, 89.87109
349.4916, 92.53906
349.9737, 85.72852
350.4558, 70.66211
350.9379, 39.55859
351.4200, 5.789063
351.9022, 9.091797
352.3843, 0.5039060
352.8664, 16.59180
353.3485, 32.03906
353.8306, 45.33008
354.3127, 49.01367
354.7949, 37.52930
355.2770, 21.33984
355.7591, 11.78125
356.2412, 8.285156
356.7233, 12.08203
357.2054, 34.63867
357.6876, 61.22656
358.1697, 63.75000
358.6518, 35.48633
359.1339, 5.544922
359.6160, 1.949219
360.0981, 19.79297
360.5803, 32.19922
361.0624, 31.91797
361.5445, 27.72852
362.0266, 27.44727
362.5087, 31.28320
362.9908, 36.06836
363.4730, 41.99805
363.9551, 46.58594
364.4372, 42.54297
364.9193, 23.06445
365.4014, 7.392578
365.8835, 5.335938
366.3657, 12.27930
366.8478, 19.53320
367.3299, 24.66016
367.8120, 29.44531
368.2941, 35.93555
368.7762, 43.38672
369.2584, 54.88867
369.7405, 79.84570
370.2226, 103.7812
370.7047, 109.6465
371.1868, 95.91211
371.6689, 78.62500
372.1511, 73.22656
372.6332, 80.45117
373.1153, 79.42773
373.5974, 66.67383
374.0795, 50.20508
374.5616, 32.14844
375.0438, 13.47070
375.5259, 6.005859
376.0080, 27.21094
376.4901, 46.91406
376.9722, 52.78125
377.4543, 31.32422
377.9365, 13.95508
378.4186, 5.097656
378.9007, 1.519531
379.3828, 1.486328
379.8649, 4.095703
380.3470, 5.843750
380.8292, 1.099609
381.3113, 14.52539
381.7934, 22.83398
382.2755, 20.67383
382.7576, 15.04297
383.2397, 8.382813
383.7219, 1.740234
384.2040, 3.537109
384.6861, 6.412109
385.1682, 6.775391
385.6503, 4.474609
386.1324, 12.63672
386.6146, 19.07812
387.0967, 2.361328
387.5788, 32.55664
388.0609, 45.38281
388.5430, 29.77539
389.0251, 0.4316410
389.5073, 17.25195
389.9894, 14.58398
390.4715, 10.28516
390.9536, 3.166016
391.4357, 3.687500
391.9178, 11.31836
392.4000, 18.08984
392.8821, 17.85156
393.3642, 0.8886720
393.8463, 33.61914
394.3284, 52.70898
394.8105, 39.28906
395.2927, 29.49219
395.7748, 40.25391
396.2569, 61.98047
396.7390, 78.49023
397.2211, 81.58789
397.7032, 75.22852
398.1854, 67.02148
398.6675, 55.44531
399.1496, 46.90234
399.6317, 48.55078
400.1138, 50.74023
400.5959, 43.89258
401.0781, 26.73438
401.5602, 10.91016
402.0423, 8.675781
402.5244, 18.84180
403.0065, 27.53711
403.4886, 32.34766
403.9708, 36.73633
404.4529, 43.41992
404.9350, 51.63281
405.4171, 59.23047
405.8992, 65.86914
406.3813, 71.00195
406.8635, 72.32617
407.3456, 69.11133
407.8277, 68.69922
408.3098, 76.74219
408.7919, 88.89453
409.2740, 97.29102
409.7562, 99.51953
410.2383, 102.3965
410.7204, 112.7090
411.2025, 126.1250
411.6846, 129.4434
412.1667, 116.9961
412.6489, 100.4199
413.1310, 94.43750
413.6131, 98.52148
414.0952, 102.5059
414.5773, 106.7246
415.0594, 109.0430
415.5416, 104.4355
416.0237, 94.13086
416.5058, 89.15820
416.9879, 97.71289
417.4700, 116.9648
417.9521, 131.4414
418.4343, 139.3535
418.9164, 144.4199
419.3985, 142.2891
419.8806, 139.3867
420.3627, 147.7461
420.8448, 171.0195
421.3270, 197.9180
421.8091, 211.2070
422.2912, 204.3066
422.7733, 201.6152
423.2554, 205.9688
423.7375, 211.3086
424.2197, 216.1445
424.7018, 219.1602
425.1839, 217.6230
425.6660, 208.9258
426.1481, 194.8516
426.6302, 187.3301
427.1124, 196.8555
427.5945, 200.4434
428.0766, 189.2266
428.5587, 174.1523
429.0408, 165.8555
429.5229, 167.6953
430.0051, 175.9668
430.4872, 186.7949
430.9693, 201.7754
431.4514, 213.0215
431.9335, 225.0254
432.4156, 228.7109
432.8978, 212.6953
433.3799, 183.9648
433.8620, 160.6934
434.3441, 155.8711
434.8262, 164.3027
435.3083, 171.4629
435.7905, 177.8340
436.2726, 179.9980
436.7547, 171.7168
437.2368, 160.6211
437.7189, 152.5020
438.2010, 148.3027
438.6832, 149.1035
439.1653, 161.4258
439.6474, 181.1152
440.1295, 185.2988
440.6116, 163.0488
441.0938, 138.9004
441.5759, 133.3535
442.0580, 142.5996
442.5401, 157.9824
443.0222, 185.7617
443.5043, 213.0352
443.9865, 227.1348
444.4686, 228.1836
444.9507, 220.9648
445.4328, 202.6152
445.9149, 182.1133
446.3970, 181.9531
446.8792, 211.3945
447.3613, 233.2441
447.8434, 232.4531
448.3255, 220.4336
448.8076, 210.2344
449.2897, 204.0996
449.7719, 198.5664
450.2540, 189.6426
450.7361, 177.3047
451.2182, 175.2383
451.7003, 192.1367
452.1824, 207.1348
452.6646, 213.1816
453.1467, 212.3594
453.6288, 207.4980
454.1109, 199.7734
454.5930, 191.6016
455.0751, 187.3477
455.5573, 185.9023
456.0394, 190.9258
456.5215, 207.5000
457.0036, 224.9121
457.4857, 237.6465
457.9678, 245.3496
458.4500, 249.3730
458.9321, 249.4727
459.4142, 247.0078
459.8963, 252.0820
460.3784, 271.1504
460.8605, 286.7441
461.3427, 294.3770
461.8248, 296.8027
462.3069, 296.7246
462.7890, 294.8809
463.2711, 289.8145
463.7532, 275.8379
464.2354, 254.2559
464.7175, 246.5215
465.1996, 262.3789
465.6817, 281.0039
466.1638, 286.1699
466.6459, 282.4062
467.1281, 280.9922
467.6102, 286.2773
468.0923, 294.7207
468.5744, 301.8965
469.0565, 308.0742
469.5386, 318.6602
470.0208, 339.1582
470.5029, 360.4805
470.9850, 364.0703
471.4671, 346.8184
471.9492, 333.4824
472.4313, 331.6621
472.9135, 335.9180
473.3956, 343.3125
473.8777, 352.4316
474.3598, 356.6172
474.8419, 349.8906
475.3240, 333.7930
475.8062, 322.8574
476.2883, 327.3535
476.7704, 324.1992
477.2525, 299.0078
477.7346, 268.2480
478.2167, 252.6777
478.6989, 257.3105
479.1810, 270.8730
479.6631, 278.6777
480.1452, 278.5586
480.6273, 283.7988
481.1094, 305.3691
481.5916, 320.1934
482.0737, 315.2031
482.5558, 299.2148
483.0379, 287.4023
483.5200, 287.4902
484.0021, 294.3906
484.4843, 297.5352
484.9664, 295.8125
485.4485, 295.0781
485.9306, 298.5547
486.4127, 301.5293
486.8948, 300.0605
487.3770, 295.2422
487.8591, 291.7949
488.3412, 296.5234
488.8233, 303.8438
489.3054, 299.0449
489.7875, 280.8848
490.2697, 267.7266
490.7518, 270.8301
491.2339, 283.1680
491.7160, 290.1211
492.1981, 290.9219
492.6802, 289.9707
493.1624, 288.1504
493.6445, 286.3633
494.1266, 285.7051
494.6087, 286.0352
495.0908, 285.4824
495.5729, 282.4023
496.0551, 276.8203
496.5372, 270.7715
497.0193, 261.5938
497.5014, 255.1211
497.9835, 254.4473
498.4656, 256.9961
498.9478, 260.3086
499.4299, 263.2344
499.9120, 263.6484
500.3941, 259.0176
500.8762, 249.8906
501.3583, 232.6445
501.8405, 191.2656
502.3226, 158.0332
502.8047, 148.2637
503.2868, 154.5469
503.7689, 163.3770
504.2510, 168.3105
504.7331, 171.5957
505.2152, 179.2129
505.6974, 193.1836
506.1795, 198.9102
506.6616, 188.3262
507.1437, 173.2480
507.6258, 161.1777
508.1079, 152.2383
508.5901, 146.2070
509.0722, 143.2871
509.5543, 143.1836
510.0364, 146.3906
510.5185, 152.8848
511.0006, 158.7441
511.4828, 162.5332
511.9649, 164.1641
512.4470, 163.2031
512.9291, 158.9766
513.4113, 154.7031
513.8934, 146.3770
514.3755, 141.2754
514.8576, 151.1230
515.3397, 174.4219
515.8218, 195.7930
516.3040, 203.9727
516.7861, 200.0762
517.2682, 192.5820
517.7503, 174.8066
518.2324, 161.8066
518.7145, 158.0020
519.1967, 158.1836
519.6788, 156.9238
520.1609, 153.5859
520.6430, 152.0684
521.1251, 157.7715
521.6072, 170.2363
522.0894, 175.0137
522.5715, 167.0898
523.0536, 159.2148
523.5357, 158.6406
524.0178, 159.2012
524.4999, 152.3379
524.9821, 135.2168
525.4642, 117.7285
525.9463, 106.5176
526.4284, 102.1602
526.9105, 110.5508
527.3926, 139.0430
527.8748, 160.9121
528.3569, 147.5820
528.8390, 109.8750
529.3211, 85.06836
529.8032, 86.75000
530.2853, 90.93164
530.7675, 83.00781
531.2496, 68.73242
531.7317, 60.82812
532.2138, 62.96875
532.6959, 66.14648
533.1780, 57.88086
533.6602, 34.15039
534.1423, 24.00586
534.6244, 38.69141
535.1065, 52.08789
535.5886, 56.19336
536.0707, 52.04883
536.5529, 40.10742
537.0350, 21.00391
537.5171, 0.6875000
537.9992, 9.933594
538.4813, 8.435547
538.9634, 9.591797
539.4456, 20.23047
539.9277, 26.15039
540.4098, 16.09375
540.8919, 2.808594
541.3740, 15.99023
541.8561, 16.79688
542.3383, 11.85547
542.8204, 9.205078
543.3025, 8.353516
543.7846, 3.640625
544.2667, 9.292969
544.7488, 20.75195
545.2310, 15.55469
545.7131, 3.841797
546.1952, 13.49414
546.6773, 4.269531
547.1594, 10.53906
547.6415, 28.81836
548.1237, 45.56250
548.6058, 46.78711
549.0879, 26.05859
549.5700, 1.279297
550.0521, 8.744141
550.5342, 13.97070
551.0164, 24.60352
551.4985, 21.03516
551.9806, 9.378906
552.4627, 16.78320
552.9448, 47.40234
553.4269, 63.89844
553.9091, 56.80078
554.3912, 38.23047
554.8733, 29.30664
555.3554, 31.33789
555.8375, 32.33008
556.3196, 27.24023
556.8018, 24.84180
557.2839, 35.88281
557.7660, 53.98047
558.2481, 60.33594
558.7302, 38.43555
559.2123, 13.82617
559.6945, 19.22461
560.1766, 46.77148
560.6587, 59.17578
561.1408, 42.49609
561.6229, 16.16602
562.1050, 3.109375
562.5872, 5.501953
563.0693, 11.37891
563.5514, 25.07422
564.0335, 37.90430
564.5156, 44.07422
564.9977, 46.45898
565.4799, 51.38867
565.9620, 61.22070
566.4441, 71.36914
566.9262, 73.29102
567.4083, 63.01953
567.8904, 60.18750
568.3726, 74.46484
568.8547, 86.12891
569.3368, 88.89062
569.8189, 84.27148
570.3010, 74.21680
570.7831, 58.17773
571.2653, 42.25586
571.7474, 33.07422
572.2295, 30.34375
572.7116, 32.95703
573.1937, 44.56250
573.6758, 51.91406
574.1580, 35.38867
574.6401, 4.029297
575.1222, 6.457031
575.6043, 23.82227
576.0864, 56.85938
576.5685, 75.42969
577.0507, 84.01172
577.5328, 89.63672
578.0149, 94.17773
578.4970, 96.08008
578.9791, 93.37500
579.4612, 85.95117
579.9434, 78.51367
580.4255, 66.92773
580.9076, 60.49414
581.3897, 67.70117
581.8718, 77.25977
582.3539, 76.08594
582.8361, 61.65234
583.3182, 42.98047
583.8003, 24.23633
584.2824, 7.175781
584.7645, 6.558594
585.2466, 25.49023
585.7288, 52.07617
586.2108, 89.00195
586.6929, 125.9297
587.1750, 146.7598
587.6572, 147.7988
588.1393, 144.3398
588.6214, 142.2148
589.1035, 139.3125
589.5856, 130.5664
590.0677, 116.7910
590.5499, 108.4336
591.0320, 113.3281
591.5141, 127.1641
591.9962, 134.2168
592.4783, 132.7500
592.9604, 126.5801
593.4426, 110.6191
593.9247, 94.46484
594.4068, 85.62500
594.8889, 83.34570
595.3710, 81.54102
595.8531, 75.86328
596.3353, 69.24219
596.8174, 67.02344
597.2995, 68.91406
597.7816, 77.26758
598.2637, 102.8164
598.7458, 124.3887
599.2280, 117.1309
599.7101, 86.87891
600.1922, 67.35156
600.6743, 80.72070
601.1564, 101.2227
601.6385, 107.5547
602.1207, 102.6133
602.6028, 94.19141
603.0849, 85.30078
603.5670, 80.49805
604.0491, 86.67969
604.5313, 107.7812
605.0134, 113.9375
605.4955, 83.67773
605.9776, 63.87500
606.4597, 83.59375
606.9418, 118.4824
607.4240, 134.3965
607.9061, 121.1406
608.3882, 96.35742
608.8703, 76.86719
609.3524, 63.80078
609.8345, 63.49805
610.3167, 81.15234
610.7988, 98.48633
611.2809, 107.6465
611.7630, 111.0000
612.2451, 111.4688
612.7272, 109.4531
613.2094, 104.4043
613.6915, 94.13867
614.1736, 81.62891
614.6557, 67.47461
615.1378, 53.35742
615.6199, 48.20703
616.1021, 58.41797
616.5842, 78.98828
617.0663, 95.86523
617.5484, 109.1719
618.0305, 117.1035
618.5126, 116.5332
618.9948, 113.9180
619.4769, 111.5234
619.9590, 110.0156
620.4411, 111.0977
620.9232, 116.5879
621.4053, 121.4648
621.8875, 113.1738
622.3696, 91.49414
622.8517, 84.50586
623.3338, 103.2695
623.8159, 126.6797
624.2980, 138.2871
624.7802, 140.7031
625.2623, 142.1172
625.7444, 143.2461
626.2265, 142.1523
626.7086, 136.0234
627.1907, 128.5879
627.6729, 126.3398
628.1550, 129.6562
628.6371, 130.7383
629.1192, 121.5645
629.6013, 102.8359
630.0834, 98.75000
630.5656, 131.6289
631.0477, 143.8340
631.5298, 106.1309
632.0119, 63.29492
632.4940, 49.52539
632.9761, 63.80859
633.4583, 84.43164
633.9404, 102.2539
634.4225, 114.2891
634.9046, 113.3203
635.3867, 100.4121
635.8688, 88.23633
636.3510, 79.61133
636.8331, 76.18555
637.3152, 82.28125
637.7973, 99.42578
638.2794, 107.4688
638.7615, 101.3027
639.2437, 91.75195
639.7258, 79.19922
640.2079, 67.16602
640.6900, 61.48438
641.1721, 63.14453
641.6542, 67.41016
642.1364, 68.99805
642.6185, 68.20898
643.1006, 72.02930
643.5827, 87.36719
644.0648, 92.45508
644.5469, 65.35352
645.0291, 31.64844
645.5112, 15.24609
645.9933, 17.98047
646.4754, 26.22266
646.9575, 37.92188
647.4396, 49.31055
647.9218, 57.82617
648.4039, 63.00391
648.8860, 61.16406
649.3681, 48.87109
649.8502, 34.99805
650.3323, 35.67578
650.8145, 57.42188
651.2966, 64.24609
651.7787, 41.45508
652.2608, 21.18164
652.7429, 17.34375
653.2250, 19.65234
653.7072, 13.15625
654.1893, 5.500000
654.6714, 23.49219
655.1535, 27.74805
655.6356, 21.79297
656.1177, 18.99609
656.5999, 20.77734
657.0820, 14.54102
657.5641, 10.86523
658.0462, 42.74219
658.5283, 54.85156
659.0104, 42.91602
659.4926, 37.91992
659.9747, 53.07617
660.4568, 68.17969
660.9389, 69.64453
661.4210, 60.91406
661.9031, 50.10742
662.3853, 40.50195
662.8674, 33.21680
663.3495, 30.55859
663.8316, 32.87500
664.3137, 32.38086
664.7958, 25.90625
665.2780, 21.84180
665.7601, 25.56836
666.2422, 32.89453
666.7243, 39.01367
667.2064, 43.16602
667.6885, 48.66406
668.1707, 63.27930
668.6528, 76.11523
669.1349, 72.31641
669.6170, 54.49219
670.0991, 34.99023
670.5812, 19.32227
671.0634, 8.632813
671.5455, 5.388672
672.0276, 12.21484
672.5097, 17.53906
672.9918, 23.03906
673.4739, 25.24805
673.9561, 19.25586
674.4382, 10.98438
674.9203, 8.703125
675.4024, 14.47266
675.8845, 21.03711
676.3666, 21.82812
676.8488, 19.34766
677.3309, 19.59180
677.8130, 23.30078
678.2951, 24.22070
678.7772, 15.08398
679.2593, 6.529297
679.7415, 18.49805
680.2236, 64.10742
680.7057, 88.70703
681.1878, 84.44336
681.6699, 68.04102
682.1520, 34.21094
682.6342, 2.228516
683.1163, 19.12891
683.5984, 10.65625
684.0805, 8.435547
684.5626, 28.89258
685.0447, 47.67969
685.5269, 43.09961
686.0090, 8.939453
686.4911, 14.84375
686.9732, 5.281250
687.4553, 19.20117
687.9374, 28.06250
688.4196, 19.74609
688.9017, 15.13672
689.3838, 22.69922
689.8659, 29.81055
690.3480, 27.00195
690.8301, 19.31055
691.3123, 15.46875
691.7944, 18.44141
692.2765, 23.27539
692.7586, 24.13867
693.2407, 21.30273
693.7228, 19.45898
694.2050, 18.38477
694.6871, 18.31836
695.1692, 20.68555
695.6513, 22.83984
696.1334, 20.53711
696.6155, 13.77344
697.0977, 10.90234
697.5798, 18.70312
698.0619, 27.64258
698.5440, 29.21094
699.0261, 26.27344
699.5082, 24.47461
699.9904, 25.27734
700.4725, 24.58203
700.9546, 16.27930
701.4367, 1.714844
701.9188, 2.548828
702.4009, 31.39844
702.8831, 50.54688
703.3652, 41.92578
703.8473, 26.72070
704.3294, 20.63672
704.8115, 22.78711
705.2936, 22.00000
705.7758, 7.910156
706.2579, 5.041016
706.7400, 2.970703
707.2221, 8.748047
707.7042, 17.86328
708.1863, 21.68945
708.6685, 27.13086
709.1506, 41.81055
709.6327, 63.63867
710.1148, 74.93750
710.5969, 72.38867
711.0790, 65.78906
711.5612, 48.96484
712.0433, 33.96484
712.5254, 31.67383
713.0075, 39.20312
713.4896, 44.45117
713.9717, 39.78516
714.4539, 34.19727
714.9360, 39.97070
715.4181, 53.02344
715.9002, 61.47070
716.3823, 62.88867
716.8644, 55.45508
717.3466, 35.40820
717.8287, 9.423828
718.3108, 2.156250
718.7929, 26.89062
719.2750, 45.05859
719.7571, 56.50977
720.2393, 60.47852
720.7214, 50.25977
721.2035, 33.67383
721.6856, 26.04297
722.1677, 33.88086
722.6498, 42.83789
723.1320, 39.83203
723.6141, 29.92578
724.0962, 22.50391
724.5783, 18.31250
725.0604, 16.71094
725.5425, 17.62891
726.0247, 20.28711
726.5068, 23.17773
726.9889, 26.57812
727.4710, 29.27344
727.9531, 30.21680
728.4352, 31.68555
728.9174, 37.47852
729.3995, 42.99023
729.8816, 40.51953
730.3637, 28.62109
730.8458, 19.09961
731.3279, 23.79297
731.8101, 33.88477
732.2922, 33.81055
732.7743, 25.14648
733.2564, 20.49414
733.7385, 25.09570
734.2206, 29.15039
734.7028, 17.74805
735.1849, 11.44727
735.6670, 19.88672
736.1491, 12.74805
736.6312, 40.15625
737.1133, 57.46094
737.5955, 65.42969
738.0776, 59.44922
738.5597, 42.59375
739.0418, 29.84961
739.5239, 26.50586
740.0060, 33.56055
740.4882, 60.69531
740.9703, 98.42578
741.4524, 116.7656
741.9345, 109.7480
742.4166, 95.16211
742.8987, 87.51562
743.3809, 84.74219
743.8630, 76.66211
744.3451, 55.48828
744.8272, 42.79492
745.3093, 47.52148
745.7914, 52.60352
746.2736, 49.75391
746.7557, 40.45312
747.2378, 26.49023
747.7199, 5.226563
748.2020, 7.050781
748.6841, 10.85547
749.1663, 42.30078
749.6484, 58.77930
750.1305, 59.48828
750.6126, 56.98828
751.0947, 57.70898
751.5768, 58.48242
752.0590, 52.11719
752.5411, 34.83203
753.0232, 29.75195
753.5053, 56.49414
753.9874, 68.95117
754.4695, 35.37695
754.9517, 7.964844
755.4338, 18.45703
755.9159, 7.291016
756.3980, 31.89258
756.8801, 37.13867
757.3622, 33.64648
757.8444, 28.67383
758.3265, 23.39258
758.8086, 20.75391
759.2907, 20.88281
759.7728, 20.80664
760.2549, 17.42188
760.7371, 11.12891
761.2192, 8.142578
761.7013, 10.45703
762.1834, 10.69531
762.6655, 5.753906
763.1476, 0.7558590
763.6298, 0.7675780
764.1119, 2.869141
764.5940, 0.1503910
765.0761, 14.32617
765.5582, 23.39453
766.0403, 16.40820
766.5225, 2.125000
767.0046, 13.24219
767.4867, 26.80273
767.9688, 32.42188
768.4509, 26.74219
768.9330, 15.50195
769.4152, 8.576172
769.8973, 6.031250
770.3794, 1.019531
770.8615, 17.59766
771.3436, 25.26758
771.8257, 11.69531
772.3079, 12.11328
772.7900, 31.75195
773.2721, 47.56445
773.7542, 56.30664
774.2363, 54.25781
774.7184, 48.83398
775.2006, 40.31445
775.6827, 32.42969
776.1648, 32.74609
776.6469, 40.67969
777.1290, 43.70117
777.6111, 28.43945
778.0933, 7.160156
778.5754, 12.21094
779.0575, 42.27344
779.5396, 61.89844
780.0217, 62.36914
780.5038, 58.78516
780.9860, 64.22656
781.4681, 74.67969
781.9502, 72.32812
782.4323, 40.49219
782.9144, 23.70703
783.3965, 42.06055
783.8787, 58.00781
784.3608, 41.91211
784.8429, 10.68750
785.3250, 2.480469
785.8071, 12.92773
786.2892, 34.58008
786.7714, 46.65430
787.2535, 50.81836
787.7356, 46.57617
788.2177, 35.86719
788.6998, 32.06445
789.1819, 40.89062
789.6641, 50.92383
790.1462, 46.77930
790.6283, 28.59961
791.1104, 22.34961
791.5925, 39.91406
792.0746, 49.57812
792.5568, 38.00977
793.0389, 23.23047
793.5210, 18.38867
794.0031, 23.09766
794.4852, 27.84570
794.9673, 28.67188
795.4495, 31.55273
795.9316, 42.71680
796.4137, 56.48633
796.8958, 66.28711
797.3779, 71.28516
797.8600, 71.21484
798.3422, 65.70312
798.8243, 59.30859
799.3064, 61.35547
799.7885, 72.25000
800.2706, 74.59180
800.7527, 65.20898
801.2349, 56.56641
801.7170, 54.71680
802.1991, 55.03906
802.6812, 51.90430
803.1633, 45.57422
803.6454, 35.73242
804.1276, 14.21680
804.6097, 0.4179690
805.0918, 4.400391
805.5739, 4.414063
806.0560, 39.37891
806.5381, 91.40430
807.0203, 124.4180
807.5024, 113.7207
807.9845, 86.45703
808.4666, 79.48047
808.9487, 88.27148
809.4308, 97.15039
809.9130, 104.3066
810.3951, 103.7285
810.8772, 90.28320
811.3593, 70.69922
811.8414, 58.54883
812.3235, 55.54883
812.8057, 52.44531
813.2878, 45.87109
813.7699, 43.70508
814.2520, 51.95508
814.7341, 61.60352
815.2162, 58.15820
815.6984, 43.35156
816.1805, 43.28320
816.6626, 87.28906
817.1447, 130.4043
817.6268, 136.3906
818.1089, 121.0332
818.5911, 106.9336
819.0732, 98.21875
819.5553, 90.81445
820.0374, 81.81445
820.5195, 73.41406
821.0016, 70.78125
821.4838, 74.09766
821.9659, 75.99219
822.4480, 74.57617
822.9301, 76.11914
823.4122, 86.63672
823.8943, 100.2539
824.3765, 104.0566
824.8586, 93.89062
825.3407, 93.44141
825.8228, 117.2207
826.3049, 134.1660
826.7870, 125.8574
827.2692, 110.7031
827.7513, 108.6211
828.2334, 120.1621
828.7155, 133.4922
829.1976, 145.7520
829.6797, 152.1719
830.1619, 139.2266
830.6440, 116.7012
831.1261, 111.6113
831.6082, 125.1855
832.0903, 136.0059
832.5724, 131.3008
833.0546, 118.6973
833.5367, 113.3867
834.0188, 116.5215
834.5009, 117.7441
834.9830, 114.7324
835.4651, 114.5527
835.9473, 126.3320
836.4294, 137.0840
836.9115, 126.6035
837.3936, 96.82812
837.8757, 85.10547
838.3578, 112.6914
838.8400, 140.1348
839.3221, 158.6094
839.8042, 165.8477
840.2863, 152.5762
840.7684, 126.2188
841.2505, 108.8086
841.7327, 111.7637
842.2148, 121.6621
842.6969, 122.8965
843.1790, 118.2207
843.6611, 115.3047
844.1432, 114.5156
844.6254, 113.7891
845.1075, 112.0801
845.5896, 110.9648
846.0717, 112.2520
846.5538, 115.9258
847.0359, 123.0059
847.5181, 136.6855
848.0002, 147.3359
848.4823, 156.3145
848.9644, 158.3047
849.4465, 144.4434
849.9286, 120.7227
850.4108, 104.9199
850.8929, 101.5273
851.3750, 102.5840
851.8571, 111.6191
852.3392, 118.4355
852.8214, 110.0977
853.3035, 94.05664
853.7856, 87.72656
854.2677, 95.88867
854.7498, 104.2676
855.2319, 95.83008
855.7141, 79.80859
856.1962, 79.46094
856.6783, 92.37305
857.1604, 100.2754
857.6425, 98.41992
858.1246, 95.19531
858.6068, 97.74609
859.0889, 104.2754
859.5710, 108.0703
860.0531, 109.2520
860.5352, 107.3086
861.0173, 99.37500
861.4995, 91.81836
861.9816, 85.53906
862.4637, 81.43164
862.9458, 81.14648
863.4279, 85.11328
863.9100, 91.57227
864.3922, 107.1016
864.8743, 116.7539
865.3564, 105.2969
865.8385, 89.51367
866.3206, 87.91406
866.8027, 100.3320
867.2849, 115.4043
867.7670, 126.5254
868.2491, 133.7246
868.7312, 134.6211
869.2133, 132.1172
869.6954, 137.1934
870.1776, 149.4961
870.6597, 152.9941
871.1418, 139.6914
871.6239, 120.9102
872.1060, 112.5781
872.5881, 114.7031
873.0703, 115.7168
873.5524, 115.6543
874.0345, 114.3984
874.5166, 109.2090
874.9987, 105.9531
875.4808, 113.0391
875.9630, 125.8184
876.4451, 129.5645
876.9272, 118.1230
877.4093, 108.9219
877.8914, 106.3203
878.3735, 105.8555
878.8557, 104.5527
879.3378, 103.5137
879.8199, 103.8828
880.3020, 106.2109
880.7841, 112.8105
881.2662, 131.3184
881.7484, 149.1094
882.2305, 146.3770
882.7126, 131.5156
883.1947, 124.9609
883.6768, 129.3984
884.1589, 135.3809
884.6411, 136.8457
885.1232, 136.4219
885.6053, 141.0273
886.0874, 151.0078
886.5695, 150.9824
887.0516, 138.4219
887.5338, 124.7891
888.0159, 113.7891
888.4980, 104.6816
888.9801, 95.84570
889.4622, 87.24805
889.9443, 85.47461
890.4265, 97.98438
890.9086, 106.5957
891.3907, 106.6758
891.8728, 105.4512
892.3549, 106.3105
892.8370, 109.4883
893.3192, 114.9355
893.8013, 122.7520
894.2834, 131.9629
894.7655, 148.1133
895.2476, 159.7012
895.7297, 154.8828
896.2119, 139.5703
896.6940, 121.6973
897.1761, 104.3828
897.6582, 91.80273
898.1403, 87.34766
898.6224, 87.33594
899.1046, 86.02344
899.5867, 83.66602
900.0688, 80.68555
900.5509, 77.17969
901.0330, 77.72656
901.5151, 85.41992
901.9973, 92.90234
902.4794, 88.65430
902.9615, 72.69531
903.4436, 59.37891
903.9257, 48.47656
904.4078, 40.87109
904.8900, 38.51758
905.3721, 37.28125
905.8542, 33.22656
906.3363, 28.00195
906.8184, 27.44531
907.3005, 35.64453
907.7827, 39.15820
908.2648, 33.64258
908.7469, 26.09375
909.2290, 16.70898
909.7111, 9.148438
910.1932, 8.513672
910.6754, 14.54883
911.1575, 20.86523
911.6396, 25.17969
912.1217, 27.08203
912.6038, 25.11133
913.0859, 20.98633
913.5681, 14.62695
914.0502, 8.318359
914.5323, 10.96680
915.0144, 26.14258
915.4965, 39.83789
915.9786, 32.48828
916.4607, 10.44141
916.9428, 3.964844
917.4249, 11.00977
917.9070, 16.05469
918.3892, 20.32617
918.8713, 21.81641
919.3534, 18.28320
919.8355, 10.77344
920.3176, 2.669922
920.7997, 6.947266
921.2819, 13.96484
921.7640, 20.92773
922.2461, 19.69922
922.7282, 0.9765630
923.2103, 22.33398
923.6924, 36.32812
924.1746, 41.19727
924.6567, 35.95312
925.1388, 9.517578
925.6209, 11.26953
926.1030, 18.68359
926.5851, 19.63867
927.0673, 16.62109
927.5494, 12.32617
928.0315, 9.345703
928.5136, 8.451172
928.9957, 11.13672
929.4778, 19.23633
929.9600, 28.56836
930.4421, 37.64648
930.9242, 46.14258
931.4063, 55.62109
931.8884, 64.45312
932.3705, 65.65625
932.8527, 54.69531
933.3348, 39.25586
933.8169, 27.09961
934.2990, 19.03516
934.7811, 19.52539
935.2632, 27.22461
935.7454, 31.35352
936.2275, 28.40039
936.7096, 25.20898
937.1917, 29.07422
937.6738, 37.01953
938.1559, 36.51562
938.6381, 25.91016
939.1202, 21.39844
939.6023, 26.38672
940.0844, 31.35156
940.5665, 30.09766
941.0486, 27.47266
941.5308, 32.54492
942.0129, 46.67969
942.4950, 53.04688
942.9771, 42.30273
943.4592, 37.54688
943.9413, 46.82422
944.4235, 58.06445
944.9056, 66.07227
945.3877, 69.96484
945.8698, 66.68750
946.3519, 52.84375
946.8340, 46.00586
947.3162, 55.70312
947.7983, 67.83203
948.2804, 78.71289
948.7625, 85.96875
949.2446, 83.45703
949.7267, 74.25977
950.2089, 72.30859
950.6910, 86.63281
951.1731, 100.2598
951.6552, 96.88867
952.1373, 87.42188
952.6194, 86.94531
953.1016, 91.68750
953.5837, 87.42773
954.0658, 72.00781
954.5479, 61.38867
955.0300, 70.21094
955.5121, 88.17383
955.9943, 96.77148
956.4764, 97.85352
956.9585, 99.22656
957.4406, 101.4668
957.9227, 99.68359
958.4048, 91.17969
958.8870, 82.49609
959.3691, 82.58008
959.8512, 90.47461
960.3333, 100.0273
960.8154, 112.3125
961.2975, 117.7383
961.7797, 113.4805
962.2618, 105.5781
962.7439, 96.34180
963.2260, 88.16992
963.7081, 87.52344
964.1902, 97.92578
964.6724, 96.52539
965.1545, 70.18555
965.6366, 54.24219
966.1187, 63.29102
966.6008, 79.44336
967.0829, 94.09961
967.5651, 104.6055
968.0472, 101.5332
968.5293, 77.00977
969.0114, 58.90625
969.4935, 51.36523
969.9756, 50.41211
970.4578, 59.60352
970.9399, 70.61523
971.4220, 74.13672
971.9041, 70.60156
972.3862, 67.01953
972.8683, 65.90430
973.3505, 64.78711
973.8326, 65.82422
974.3147, 63.02734
974.7968, 45.48047
975.2789, 21.99023
975.7610, 9.734375
976.2432, 11.22656
976.7253, 13.76562
977.2074, 9.218750
977.6895, 3.193359
978.1716, 1.029297
978.6537, 1.650391
979.1359, 4.296875
979.6180, 7.902344
980.1001, 9.322266
980.5822, 7.259766
981.0643, 2.197266
981.5464, 3.720703
982.0286, 10.08203
982.5107, 18.46875
982.9928, 25.92188
983.4749, 23.42578
983.9570, 11.17969
984.4391, 0.2402340
984.9213, 3.623047
985.4034, 2.572266
985.8855, 1.794922
986.3676, 8.431641
986.8497, 6.197266
987.3318, 5.951172
987.8140, 13.90039
988.2961, 13.82031
988.7782, 14.46875
989.2603, 21.63281
989.7424, 33.24023
990.2245, 46.24609
990.7067, 62.18750
991.1888, 65.65039
991.6709, 49.98242
992.1530, 38.33789
992.6351, 37.64258
993.1172, 40.02148
993.5994, 37.34570
994.0815, 33.47266
994.5636, 41.43555
995.0457, 68.38672
995.5278, 86.78125
996.0099, 97.84570
996.4921, 98.49023
996.9742, 74.52148
997.4563, 50.91406
997.9384, 53.66797
998.4205, 74.74609
998.9026, 83.12695
999.3848, 66.55859
999.8669, 59.49609
1000.349, 83.70703
1000.831, 101.1660
1001.313, 88.18945
1001.795, 63.13477
1002.277, 43.92383
1002.760, 32.75195
1003.242, 27.07031
1003.724, 28.33398
1004.206, 29.82227
1004.688, 30.68750
1005.170, 28.71094
1005.652, 16.50781
1006.134, 3.244141
1006.617, 5.548828
1007.099, 22.59961
1007.581, 34.85156
1008.063, 30.40039
1008.545, 23.95508
1009.027, 25.79492
1009.509, 33.07422
1009.991, 48.72070
1010.473, 65.19336
1010.956, 64.39648
1011.438, 44.58594
1011.920, 24.48438
1012.402, 15.36523
1012.884, 15.07812
1013.366, 24.80078
1013.848, 39.45117
1014.330, 50.10547
1014.813, 56.65039
1015.295, 61.72461
1015.777, 66.09961
1016.259, 68.35352
1016.741, 66.84375
1017.223, 63.41602
1017.705, 61.79688
1018.187, 61.19727
1018.669, 57.70703
1019.152, 51.89648
1019.634, 50.12695
1020.116, 54.73438
1020.598, 61.65234
1021.080, 67.36133
1021.562, 71.21484
1022.044, 70.73242
1022.526, 66.26758
1023.008, 59.49414
1023.491, 50.58594
1023.973, 47.74414
1024.455, 54.59961
1024.937, 66.91602
1025.419, 80.74219
1025.901, 94.91797
1026.383, 104.6387
1026.865, 109.9043
1027.348, 108.0391
1027.830, 97.20508
1028.312, 88.72266
1028.794, 88.09766
1029.276, 90.44727
1029.758, 89.27930
1030.240, 85.66016
1030.722, 87.81445
1031.204, 95.51367
1031.687, 112.4121
1032.169, 145.0352
1032.651, 168.1094
1033.133, 166.4355
1033.615, 155.3242
1034.097, 156.6211
1034.579, 168.7773
1035.061, 164.7812
1035.544, 130.7598
1036.026, 117.4238
1036.508, 140.1172
1036.990, 163.1133
1037.472, 168.5742
1037.954, 166.9766
1038.436, 174.1973
1038.918, 189.3457
1039.401, 187.9023
1039.883, 152.9727
1040.365, 133.1738
1040.847, 143.9102
1041.329, 154.1602
1041.811, 149.9941
1042.293, 138.8320
1042.775, 127.0918
1043.257, 114.8965
1043.740, 111.5703
1044.222, 126.3145
1044.704, 136.1523
1045.186, 141.2109
1045.668, 140.8945
1046.150, 130.3750
1046.632, 116.6934
1047.114, 106.2891
1047.596, 99.66016
1048.079, 101.2246
1048.561, 121.2871
1049.043, 134.9160
1049.525, 127.5215
1050.007, 124.2891
1050.489, 146.2363
1050.971, 173.6426
1051.453, 181.3730
1051.936, 170.1387
1052.418, 159.6738
1052.900, 155.5898
1053.382, 150.2285
1053.864, 132.6133
1054.346, 122.4102
1054.828, 138.0977
1055.310, 160.6992
1055.792, 167.8906
1056.275, 160.1191
1056.757, 151.2422
1057.239, 142.3105
1057.721, 137.1758
1058.203, 143.2500
1058.685, 146.1797
1059.167, 127.3340
1059.649, 108.3574
1060.131, 120.4844
1060.614, 158.0352
1061.096, 184.0723
1061.578, 187.1250
1062.060, 182.8691
1062.542, 171.9961
1063.024, 160.5742
1063.506, 149.8418
1063.988, 141.7773
1064.471, 141.5879
1064.953, 146.5195
1065.435, 144.7207
1065.917, 129.7715
1066.399, 119.3652
1066.881, 125.3242
1067.363, 132.4297
1067.845, 133.4668
1068.328, 129.8574
1068.810, 119.5820
1069.292, 106.7305
1069.774, 103.5625
1070.256, 115.7070
1070.738, 124.7793
1071.220, 120.8613
1071.702, 114.2676
1072.184, 107.8184
1072.667, 104.2520
1073.149, 109.6523
1073.631, 119.6387
1074.113, 121.4102
1074.595, 110.6133
1075.077, 103.5273
1075.559, 107.1250
1076.041, 116.7148
1076.523, 140.9766
1077.006, 160.2520
1077.488, 147.6172
1077.970, 116.7578
1078.452, 102.1152
1078.934, 111.7637
1079.416, 118.1973
1079.898, 100.4160
1080.380, 87.46094
1080.862, 101.7480
1081.345, 121.0059
1081.827, 127.5859
1082.309, 123.0371
1082.791, 110.9375
1083.273, 92.99023
1083.755, 78.81055
1084.237, 70.73047
1084.719, 69.85352
1085.202, 87.27930
1085.684, 101.9688
1086.166, 90.07812
1086.648, 67.46484
1087.130, 60.42969
1087.612, 71.42188
1088.094, 83.75977
1088.576, 94.22852
1089.058, 99.24414
1089.541, 94.67969
1090.023, 86.84961
1090.505, 80.86133
1090.987, 73.87109
1091.469, 55.69922
1091.951, 31.24219
1092.433, 26.62109
1092.915, 60.02930
1093.397, 83.70898
1093.880, 71.38086
1094.362, 52.54297
1094.844, 38.27930
1095.326, 31.24414
1095.808, 36.78906
1096.290, 50.78320
1096.772, 61.18945
1097.254, 64.83984
1097.737, 65.84180
1098.219, 66.30078
1098.701, 63.44727
1099.183, 51.75000
1099.665, 39.93555
1100.147, 39.02539
1100.629, 43.36328
1101.111, 38.72266
1101.594, 22.06055
1102.076, 6.742188
1102.558, 4.492188
1103.040, 12.60352
1103.522, 17.72070
1104.004, 19.91797
1104.486, 16.25195
1104.968, 11.06445
1105.450, 13.51367
1105.932, 23.90820
1106.415, 26.28125
1106.897, 9.992188
1107.379, 2.902344
1107.861, 6.583984
1108.343, 7.421875
1108.825, 9.806641
1109.307, 10.25195
1109.789, 0.5957030
1110.272, 19.43555
1110.754, 21.89648
1111.236, 10.11914
1111.718, 27.51367
1112.200, 16.51172
1112.682, 2.541016
1113.164, 11.84180
1113.646, 20.12500
1114.129, 12.29102
1114.611, 6.267578
1115.093, 17.19141
1115.575, 17.91602
1116.057, 18.38672
1116.539, 18.98633
1117.021, 18.68359
1117.503, 14.91797
1117.985, 12.96289
1118.468, 18.62695
1118.950, 26.83789
1119.432, 26.51953
1119.914, 16.12109
1120.396, 15.47266
1120.878, 30.70312
1121.360, 42.50195
1121.842, 49.84180
1122.324, 50.43164
1122.807, 37.65039
1123.289, 25.26953
1123.771, 33.82031
1124.253, 59.46094
1124.735, 68.75781
1125.217, 57.20703
1125.699, 44.72461
1126.181, 30.46094
1126.664, 20.66797
1127.146, 17.05664
1127.628, 20.63477
1128.110, 34.95117
1128.592, 53.73633
1129.074, 56.11328
1129.556, 39.16992
1130.038, 39.18359
1130.521, 59.75586
1131.003, 70.47656
1131.485, 63.16211
1131.967, 53.25781
1132.449, 50.15430
1132.931, 51.86914
1133.413, 55.49023
1133.895, 60.89648
1134.377, 68.58398
1134.859, 78.33008
1135.342, 82.33984
1135.824, 79.70117
1136.306, 80.63672
1136.788, 89.74609
1137.270, 99.12305
1137.752, 100.3184
1138.234, 95.93555
1138.716, 91.98242
1139.199, 88.14648
1139.681, 79.94531
1140.163, 69.58984
1140.645, 74.17578
1141.127, 96.19336
1141.609, 112.1875
1142.091, 105.5527
1142.573, 88.53711
1143.056, 77.17188
1143.538, 68.38672
1144.020, 50.27148
1144.502, 31.01367
1144.984, 37.59766
1145.466, 66.42188
1145.948, 83.15430
1146.430, 73.60742
1146.912, 66.10156
1147.395, 92.71289
1147.877, 125.8359
1148.359, 134.6797
1148.841, 129.9102
1149.323, 121.4766
1149.805, 113.9531
1150.287, 115.4043
1150.769, 126.0059
1151.251, 134.1348
1151.734, 133.4570
1152.216, 129.4180
1152.698, 122.6992
1153.180, 117.1016
1153.662, 114.4668
1154.144, 115.9746
1154.626, 126.4805
1155.108, 142.1582
1155.591, 149.8438
1156.073, 144.5000
1156.555, 141.5742
1157.037, 151.7754
1157.519, 158.5977
1158.001, 154.5801
1158.483, 145.3984
1158.965, 127.1875
1159.448, 110.7734
1159.930, 120.5273
1160.412, 157.3164
1160.894, 171.6758
1161.376, 134.7500
1161.858, 112.8242
1162.340, 119.4102
1162.822, 132.7402
1163.304, 152.4863
1163.786, 166.5312
1164.269, 162.3887
1164.751, 145.9141
1165.233, 131.8047
1165.715, 118.6387
1166.197, 112.0645
1166.679, 113.2129
1167.161, 119.3027
1167.643, 133.8887
1168.126, 140.1191
1168.608, 126.5371
1169.090, 109.9453
1169.572, 113.9922
1170.054, 134.2227
1170.536, 135.2988
1171.018, 115.3789
1171.500, 102.7090
1171.983, 100.4238
1172.465, 113.4062
1172.947, 143.4141
1173.429, 172.1055
1173.911, 184.4355
1174.393, 184.8477
1174.875, 176.5684
1175.357, 164.2734
1175.839, 171.1562
1176.322, 190.8828
1176.804, 192.3457
1177.286, 173.8164
1177.768, 159.9082
1178.250, 161.7383
1178.732, 167.3301
1179.214, 163.7109
1179.696, 159.3848
1180.178, 169.6289
1180.661, 184.0625
1181.143, 185.1562
1181.625, 177.2441
1182.107, 172.9512
1182.589, 174.2539
1183.071, 175.2793
1183.553, 173.9355
1184.035, 168.9863
1184.518, 152.5684
1185.000, 140.9668
1185.482, 151.2734
1185.964, 166.1445
1186.446, 168.0840
1186.928, 160.5938
1187.410, 155.6387
1187.892, 155.8535
1188.375, 152.4551
1188.857, 132.0000
1189.339, 122.7383
1189.821, 143.2402
1190.303, 162.2285
1190.785, 164.3047
1191.267, 157.6230
1191.749, 150.6074
1192.231, 142.1836
1192.714, 131.1602
1193.196, 115.3164
1193.678, 108.3711
1194.160, 112.6348
1194.642, 118.6016
1195.124, 125.2285
1195.606, 128.9004
1196.088, 126.9453
1196.570, 124.3301
1197.053, 128.6191
1197.535, 137.5488
1198.017, 139.1387
1198.499, 133.5762
1198.981, 132.8262
1199.463, 137.0859
1199.945, 131.1289
1200.427, 111.2520
1200.910, 100.8574
1201.392, 117.1445
1201.874, 140.6191
1202.356, 143.0703
1202.838, 132.8906
1203.320, 126.9434
1203.802, 123.1504
1204.284, 116.1855
1204.766, 106.4590
1205.249, 96.24414
1205.731, 87.08984
1206.213, 85.29883
1206.695, 100.5078
1207.177, 110.3809
1207.659, 87.78320
1208.141, 62.84961
1208.623, 64.34766
1209.105, 77.75000
1209.588, 86.44531
1210.070, 88.32227
1210.552, 83.68750
1211.034, 71.71289
1211.516, 62.83203
1211.998, 55.82812
1212.480, 57.41016
1212.962, 84.06641
1213.445, 102.3496
1213.927, 85.80664
1214.409, 58.84180
1214.891, 44.62109
1215.373, 42.83398
1215.855, 54.47070
1216.337, 86.33789
1216.819, 99.80859
1217.302, 89.73828
1217.784, 81.08398
1218.266, 79.40820
1218.748, 77.07422
1219.230, 69.79492
1219.712, 59.46289
1220.194, 47.73633
1220.676, 35.84375
1221.158, 27.20898
1221.641, 21.85352
1222.123, 20.71484
1222.605, 23.00586
1223.087, 25.47656
1223.569, 26.69922
1224.051, 21.70508
1224.533, 7.265625
1225.015, 4.031250
1225.497, 3.404297
1225.980, 17.91016
1226.462, 27.38477
1226.944, 34.27539
1227.426, 42.78125
1227.908, 51.07031
1228.390, 53.50586
1228.872, 50.28320
1229.354, 50.90430
1229.837, 62.53320
1230.319, 64.17773
1230.801, 36.98633
1231.283, 13.53711
1231.765, 8.792969
1232.247, 12.16797
1232.729, 17.35742
1233.211, 24.04102
1233.693, 33.33594
1234.176, 45.06641
1234.658, 50.23633
1235.140, 46.13867
1235.622, 44.44141
1236.104, 47.02539
1236.586, 46.24414
1237.068, 38.68359
1237.550, 32.68359
1238.032, 34.75195
1238.515, 39.84961
1238.997, 40.18750
1239.479, 36.05078
1239.961, 27.05664
1240.443, 14.78516
1240.925, 7.380859
1241.407, 4.560547
1241.889, 0.1894530
1242.372, 7.771484
1242.854, 9.500000
1243.336, 1.263672
1243.818, 11.96289
1244.300, 10.47656
1244.782, 3.880859
1245.264, 5.742188
1245.746, 12.35938
1246.229, 6.269531
1246.711, 7.259766
1247.193, 18.98828
1247.675, 26.59766
1248.157, 25.58203
1248.639, 7.154297
1249.121, 4.441406
1249.603, 2.035156
1250.085, 6.078125
1250.568, 1.900391
1251.050, 10.62695
1251.532, 14.54688
1252.014, 12.67969
1252.496, 1.486328
1252.978, 17.33594
1253.460, 23.62891
1253.942, 15.26953
1254.424, 19.25781
1254.907, 37.83008
1255.389, 48.91797
1255.871, 45.99414
1256.353, 41.74414
1256.835, 43.60547
1257.317, 46.01172
1257.799, 40.57422
1258.281, 32.60156
1258.764, 33.27930
1259.246, 37.37500
1259.728, 35.21875
1260.210, 29.34180
1260.692, 27.03711
1261.174, 29.31445
1261.656, 32.79297
1262.138, 36.72070
1262.620, 38.75195
1263.103, 35.06445
1263.585, 32.72266
1264.067, 37.08984
1264.549, 39.23438
1265.031, 30.32812
1265.513, 24.15234
1265.995, 37.17383
1266.477, 61.88672
1266.959, 71.13086
1267.442, 54.32812
1267.924, 40.03320
1268.406, 31.26172
1268.888, 25.36133
1269.370, 23.82422
1269.852, 30.55859
1270.334, 38.42188
1270.816, 41.09570
1271.299, 31.64258
1271.781, 18.06641
1272.263, 17.22852
1272.745, 25.12891
1273.227, 37.95898
1273.709, 49.50195
1274.191, 43.37305
1274.673, 23.50977
1275.156, 9.537109
1275.638, 8.585938
1276.120, 12.65820
1276.602, 20.03906
1277.084, 29.44922
1277.566, 47.66602
1278.048, 59.29492
1278.530, 49.48828
1279.012, 32.64453
1279.495, 21.86523
1279.977, 16.28125
1280.459, 11.54297
1280.941, 6.361328
1281.423, 3.255859
1281.905, 4.958984
1282.387, 10.49219
1282.869, 21.40625
1283.351, 27.09961
1283.834, 24.70508
1284.316, 17.79102
1284.798, 8.000000
1285.280, 0.1640630
1285.762, 0.4296880
1286.244, 0.0000000E+00
##END=



