##NAMES=Yuanfuliite
##RRUFFID=R100067
##IDEAL CHEMISTRY=Mg(Fe^3+^,Al)O(BO_3_)
##LOCALITY=La Ceila, near Jumilla, Murcia Province, Spain
##OWNER=RRUFF
##SOURCE=Bob Jenkins
##DESCRIPTION=Sprays of red needles associated with black tabular hematite, colorless plates of sanidine, and yellow bladed crystals of an amphibole R100069, possibly richterite
##STATUS=The identification of this mineral has been confirmed only by single crystal X-ray diffraction.
##URL=rruff.info/R100067
103.1040, 0.0000000E+00
103.5861, 5.473633
104.0682, 13.33984
104.5504, 17.30566
105.0325, 21.40723
105.5146, 17.15234
105.9967, 11.92236
106.4788, 3.145996
106.9609, 0.7856450
107.4431, 4.649902
107.9252, 14.16455
108.4073, 19.67920
108.8894, 17.77051
109.3715, 11.94727
109.8536, 8.247559
110.3358, 6.680176
110.8179, 5.918457
111.3000, 5.279785
111.7821, 4.806152
112.2642, 6.349609
112.7463, 10.44434
113.2285, 12.30225
113.7106, 14.36621
114.1927, 17.46387
114.6748, 20.06592
115.1569, 19.52393
115.6390, 14.22803
116.1212, 9.825195
116.6033, 8.319824
117.0854, 8.202148
117.5675, 7.976074
118.0496, 6.826172
118.5317, 5.078125
119.0139, 4.423340
119.4960, 7.438965
119.9781, 8.674805
120.4602, 5.588379
120.9423, 7.596162
121.4244, 4.803223
121.9066, 6.505371
122.3887, 4.905762
122.8708, 2.270508
123.3529, 2.201660
123.8350, 6.739746
124.3171, 11.03955
124.7993, 14.84033
125.2814, 17.22412
125.7635, 16.73242
126.2456, 12.34180
126.7277, 11.05225
127.2098, 15.70166
127.6920, 22.24170
128.1741, 26.39258
128.6562, 27.09375
129.1383, 26.24854
129.6204, 25.66797
130.1025, 25.27930
130.5847, 25.65088
131.0668, 27.96826
131.5489, 31.43164
132.0310, 33.10889
132.5131, 31.40479
132.9952, 28.74707
133.4774, 26.99219
133.9595, 26.22168
134.4416, 26.51660
134.9237, 28.85010
135.4058, 33.89062
135.8879, 36.64990
136.3701, 34.20166
136.8522, 30.51807
137.3343, 27.82324
137.8164, 26.67676
138.2985, 26.07959
138.7806, 23.81250
139.2628, 16.72656
139.7449, 14.18311
140.2270, 20.47217
140.7091, 29.29492
141.1912, 34.64893
141.6733, 33.79199
142.1555, 28.86133
142.6376, 27.19092
143.1197, 32.45068
143.6018, 37.02002
144.0839, 39.83350
144.5660, 41.43164
145.0482, 42.81689
145.5303, 44.60400
146.0124, 46.60254
146.4945, 47.57227
146.9766, 47.87061
147.4587, 47.05957
147.9409, 43.41016
148.4230, 37.82129
148.9051, 34.53418
149.3872, 37.83105
149.8693, 46.18164
150.3514, 49.96533
150.8336, 45.98291
151.3157, 39.26904
151.7978, 32.79590
152.2799, 26.12939
152.7620, 23.33643
153.2441, 32.51074
153.7263, 47.62842
154.2084, 58.57812
154.6905, 60.21631
155.1726, 55.62256
155.6547, 51.03174
156.1368, 45.53857
156.6190, 41.93896
157.1011, 42.33154
157.5832, 45.37305
158.0653, 48.54150
158.5474, 50.32080
159.0295, 50.78271
159.5117, 50.89697
159.9938, 50.19678
160.4759, 49.56885
160.9580, 49.44141
161.4401, 49.65674
161.9222, 49.64355
162.4044, 48.79346
162.8865, 46.87256
163.3686, 45.32959
163.8507, 43.61768
164.3328, 42.64746
164.8149, 42.92041
165.2971, 44.66016
165.7792, 47.17334
166.2613, 50.08301
166.7434, 54.29004
167.2255, 55.90332
167.7076, 53.55420
168.1898, 50.02148
168.6719, 46.91357
169.1540, 44.65820
169.6361, 43.24365
170.1182, 42.83301
170.6003, 44.33008
171.0825, 44.48633
171.5646, 41.78467
172.0467, 38.22070
172.5288, 36.27490
173.0109, 36.77539
173.4930, 38.24512
173.9752, 38.14746
174.4573, 36.31250
174.9394, 34.70898
175.4215, 34.30420
175.9036, 34.52246
176.3857, 33.81543
176.8679, 31.09473
177.3500, 28.33008
177.8321, 28.32666
178.3142, 31.25146
178.7963, 34.36426
179.2784, 34.66064
179.7606, 32.90723
180.2427, 34.93506
180.7248, 47.37012
181.2069, 59.49805
181.6890, 60.80908
182.1711, 50.21680
182.6533, 37.18311
183.1354, 31.46191
183.6175, 34.23193
184.0996, 35.02979
184.5817, 27.11914
185.0638, 19.21582
185.5460, 17.37988
186.0281, 22.76562
186.5102, 30.59131
186.9923, 34.35449
187.4744, 33.10889
187.9565, 29.95996
188.4387, 22.93311
188.9208, 15.80811
189.4029, 11.19336
189.8850, 9.889648
190.3671, 11.09180
190.8492, 13.52832
191.3314, 18.57520
191.8135, 22.53662
192.2956, 24.07471
192.7777, 25.08789
193.2598, 27.78809
193.7419, 32.95117
194.2241, 38.92627
194.7062, 41.73340
195.1883, 38.93359
195.6704, 35.35596
196.1525, 29.38086
196.6346, 23.23535
197.1168, 19.87549
197.5989, 20.66748
198.0810, 24.08301
198.5631, 25.70654
199.0452, 24.12256
199.5273, 22.75684
200.0095, 22.02490
200.4916, 21.86328
200.9737, 22.37500
201.4558, 23.79932
201.9379, 25.54785
202.4200, 25.87500
202.9022, 24.39014
203.3843, 22.59375
203.8664, 20.35693
204.3485, 18.12500
204.8306, 17.09326
205.3127, 17.72803
205.7949, 20.06299
206.2770, 24.31689
206.7591, 32.27393
207.2412, 38.33203
207.7233, 37.88916
208.2054, 31.97217
208.6876, 26.92090
209.1697, 25.41992
209.6518, 26.11182
210.1339, 27.17529
210.6160, 29.18652
211.0981, 29.69434
211.5803, 25.20801
212.0624, 15.69580
212.5445, 8.538086
213.0266, 7.566406
213.5087, 9.655273
213.9908, 11.76953
214.4730, 13.29980
214.9551, 15.87891
215.4372, 22.71680
215.9193, 35.14355
216.4014, 43.78516
216.8836, 44.29150
217.3657, 40.81201
217.8478, 34.17529
218.3299, 24.49121
218.8120, 15.56104
219.2941, 13.16650
219.7763, 19.16455
220.2584, 25.64062
220.7405, 33.50293
221.2226, 39.89453
221.7047, 42.29102
222.1868, 40.08936
222.6690, 35.31445
223.1511, 30.74414
223.6332, 25.42773
224.1153, 22.65430
224.5974, 23.75391
225.0795, 26.39990
225.5617, 29.82080
226.0438, 33.53516
226.5259, 36.22656
227.0080, 35.30566
227.4901, 28.13623
227.9722, 22.08301
228.4544, 16.35400
228.9365, 12.29541
229.4186, 11.66162
229.9007, 14.70557
230.3828, 19.54590
230.8649, 23.02734
231.3471, 25.69287
231.8292, 25.69336
232.3113, 19.20410
232.7934, 12.45459
233.2755, 11.15234
233.7576, 16.66748
234.2398, 25.53467
234.7219, 32.09814
235.2040, 35.88867
235.6861, 37.88135
236.1682, 36.75342
236.6503, 34.27393
237.1325, 31.55127
237.6146, 28.84961
238.0967, 26.64648
238.5788, 26.13867
239.0609, 28.91602
239.5430, 30.52441
240.0252, 29.29785
240.5073, 27.14355
240.9894, 25.83984
241.4715, 26.01953
241.9536, 27.43359
242.4357, 30.23291
242.9179, 35.26221
243.4000, 37.68018
243.8821, 35.61328
244.3642, 31.36768
244.8463, 26.76953
245.3284, 22.07520
245.8106, 18.56592
246.2927, 18.27197
246.7748, 21.78857
247.2569, 25.63281
247.7390, 29.36475
248.2211, 32.38281
248.7033, 34.17432
249.1854, 34.66748
249.6675, 33.50781
250.1496, 28.67188
250.6317, 20.92920
251.1138, 16.37500
251.5960, 19.74805
252.0781, 25.51074
252.5602, 25.44385
253.0423, 17.82910
253.5244, 10.07764
254.0065, 9.957520
254.4887, 15.03369
254.9708, 18.86572
255.4529, 19.92529
255.9350, 18.83496
256.4171, 14.87842
256.8992, 6.759277
257.3813, 1.693848
257.8635, 9.405762
258.3456, 23.45557
258.8277, 33.09961
259.3098, 33.56299
259.7919, 28.93555
260.2740, 24.35352
260.7562, 19.58447
261.2383, 15.90381
261.7204, 13.27490
262.2025, 12.04346
262.6846, 13.08057
263.1667, 17.80957
263.6489, 23.44873
264.1310, 25.99902
264.6131, 24.95947
265.0952, 22.95752
265.5773, 20.48730
266.0594, 17.93555
266.5416, 15.82861
267.0237, 14.54590
267.5058, 13.19824
267.9879, 9.684082
268.4700, 2.970215
268.9521, 0.8549800
269.4343, 3.374512
269.9164, 9.872559
270.3985, 14.40430
270.8806, 15.93262
271.3627, 16.00488
271.8448, 16.88330
272.3270, 19.12305
272.8091, 19.19824
273.2912, 12.82861
273.7733, 6.104492
274.2554, 2.643066
274.7375, 3.052246
275.2197, 5.889648
275.7018, 10.87891
276.1839, 18.89990
276.6660, 23.03809
277.1481, 18.04395
277.6302, 11.81104
278.1124, 7.735352
278.5945, 6.228027
279.0766, 6.323242
279.5587, 7.747559
280.0408, 10.85010
280.5229, 12.35107
281.0051, 9.749512
281.4872, 7.558105
281.9693, 8.435059
282.4514, 11.67871
282.9335, 14.47559
283.4156, 13.90039
283.8978, 9.844727
284.3799, 7.768066
284.8620, 10.38086
285.3441, 12.28027
285.8262, 10.25342
286.3083, 5.987793
286.7905, 3.489258
287.2726, 6.348145
287.7547, 13.68799
288.2368, 16.95410
288.7189, 12.39062
289.2010, 7.897461
289.6832, 5.099121
290.1653, 3.862305
290.6474, 4.262207
291.1295, 6.782227
291.6116, 10.26611
292.0938, 9.641602
292.5759, 11.00072
293.0580, 12.05104
293.5401, 10.20605
294.0222, 11.44678
294.5043, 9.927734
294.9865, 5.465820
295.4686, 3.9062999E-02
295.9507, 1.547363
296.4328, 4.562500
296.9149, 8.189941
297.3970, 8.065918
297.8792, 5.397949
298.3613, 0.5390630
298.8434, 6.222168
299.3255, 13.50244
299.8076, 19.40967
300.2897, 25.06641
300.7719, 26.35254
301.2540, 19.90723
301.7361, 12.06934
302.2182, 7.020508
302.7003, 5.303711
303.1824, 4.340332
303.6646, 0.1220700
304.1467, 1.434643
304.6288, 1.993425
305.1109, 4.382813
305.5930, 5.542480
306.0751, 10.60059
306.5573, 11.12109
307.0394, 10.80811
307.5215, 13.23682
308.0036, 18.75488
308.4857, 22.02832
308.9678, 22.19238
309.4500, 20.82764
309.9321, 16.98242
310.4142, 11.92529
310.8963, 7.992188
311.3784, 6.845703
311.8605, 8.138184
312.3427, 9.085449
312.8248, 8.900391
313.3069, 9.346191
313.7890, 10.77246
314.2711, 13.00635
314.7532, 16.11230
315.2354, 20.17676
315.7175, 24.54346
316.1996, 27.48730
316.6817, 30.65625
317.1638, 29.31152
317.6459, 17.67236
318.1281, 4.688477
318.6102, 0.5561520
319.0923, 4.479492
319.5744, 13.95264
320.0565, 17.93115
320.5386, 13.18262
321.0208, 10.85303
321.5029, 12.14453
321.9850, 14.19629
322.4671, 15.10938
322.9492, 15.10791
323.4313, 15.48096
323.9135, 18.12695
324.3956, 24.14160
324.8777, 26.63916
325.3598, 22.93994
325.8419, 18.17334
326.3240, 11.96045
326.8062, 6.099609
327.2883, 4.630859
327.7704, 11.77881
328.2525, 26.64062
328.7346, 35.05762
329.2167, 30.97412
329.6989, 27.05811
330.1810, 27.66650
330.6631, 30.17041
331.1452, 29.89941
331.6273, 24.06348
332.1094, 15.15576
332.5916, 12.22070
333.0737, 19.76758
333.5558, 25.88232
334.0379, 29.14746
334.5200, 29.97900
335.0021, 27.43848
335.4843, 21.41699
335.9664, 15.47900
336.4485, 16.12793
336.9306, 26.30127
337.4127, 33.94385
337.8948, 36.56494
338.3770, 37.43164
338.8591, 37.81250
339.3412, 38.13965
339.8233, 38.80713
340.3055, 40.70117
340.7876, 44.10938
341.2697, 45.68262
341.7518, 44.83008
342.2339, 42.47510
342.7160, 37.41113
343.1982, 31.15479
343.6803, 27.01904
344.1624, 27.42578
344.6445, 31.26318
345.1266, 33.75977
345.6087, 34.17529
346.0909, 34.92090
346.5730, 37.85205
347.0551, 41.18799
347.5372, 42.22998
348.0193, 39.45508
348.5014, 35.46436
348.9836, 35.55225
349.4657, 41.33350
349.9478, 45.75879
350.4299, 46.00049
350.9120, 44.47949
351.3941, 43.13086
351.8763, 42.44922
352.3584, 41.84766
352.8405, 41.07129
353.3226, 40.16797
353.8047, 37.53613
354.2868, 29.98828
354.7690, 23.36182
355.2511, 21.58984
355.7332, 24.23828
356.2153, 28.56006
356.6974, 34.18311
357.1795, 40.02734
357.6617, 41.15186
358.1438, 34.55762
358.6259, 29.41260
359.1080, 33.74072
359.5901, 42.34863
360.0722, 46.56104
360.5544, 41.20215
361.0365, 32.54639
361.5186, 29.71338
362.0007, 32.94580
362.4828, 36.28174
362.9649, 39.33496
363.4471, 40.73975
363.9292, 38.30078
364.4113, 30.99951
364.8934, 23.49170
365.3755, 18.80957
365.8576, 16.83350
366.3398, 17.19873
366.8219, 20.63574
367.3040, 25.26514
367.7861, 29.20605
368.2682, 32.53711
368.7503, 35.74121
369.2325, 40.88574
369.7146, 45.50684
370.1967, 44.27100
370.6788, 35.87891
371.1609, 26.94434
371.6430, 22.54199
372.1252, 21.74512
372.6073, 21.46143
373.0894, 22.28662
373.5715, 22.71729
374.0536, 21.18701
374.5357, 18.00049
375.0179, 14.92480
375.5000, 12.77539
375.9821, 11.33691
376.4642, 10.13525
376.9463, 10.33887
377.4284, 9.004883
377.9106, 9.763452
378.3927, 5.676758
378.8748, 9.126465
379.3569, 6.014160
379.8390, 0.8886720
380.3211, 9.313965
380.8033, 20.24023
381.2854, 26.16016
381.7675, 23.56006
382.2496, 17.86719
382.7317, 12.43604
383.2138, 7.791992
383.6960, 4.076660
384.1781, 1.280273
384.6602, 0.5463870
385.1423, 0.6083980
385.6244, 1.516602
386.1065, 4.509766
386.5887, 9.958008
387.0708, 15.58594
387.5529, 16.93799
388.0350, 11.87842
388.5171, 3.567871
388.9992, 1.067383
389.4814, 0.4501950
389.9635, 2.242676
390.4456, 5.175781
390.9277, 7.848145
391.4098, 9.196777
391.8919, 9.062012
392.3741, 7.803223
392.8562, 5.584961
393.3383, 2.126465
393.8204, 2.5878999E-02
394.3025, 0.2373050
394.7846, 0.2885740
395.2668, 1.439453
395.7489, 3.121094
396.2310, 5.563477
396.7131, 9.081055
397.1952, 12.80859
397.6773, 13.54932
398.1595, 8.695801
398.6416, 5.093262
399.1237, 4.743652
399.6058, 5.160645
400.0879, 3.742188
400.5700, 4.295466
401.0522, 3.534668
401.5343, 4.363770
402.0164, 2.193848
402.4985, 1.549805
402.9806, 9.990723
403.4627, 16.93018
403.9449, 18.96631
404.4270, 17.24219
404.9091, 14.93115
405.3912, 13.72607
405.8733, 13.46875
406.3554, 13.72803
406.8376, 14.55420
407.3197, 15.76562
407.8018, 18.62939
408.2839, 21.22314
408.7660, 21.05127
409.2481, 17.12744
409.7303, 12.62012
410.2124, 11.30566
410.6945, 12.90771
411.1766, 12.51758
411.6587, 7.124023
412.1408, 2.111328
412.6230, 3.596191
413.1051, 10.63428
413.5872, 16.12158
414.0693, 16.27393
414.5514, 13.36035
415.0335, 10.27881
415.5157, 7.032715
415.9978, 5.481445
416.4799, 8.255371
416.9620, 13.41309
417.4441, 14.80908
417.9262, 8.523438
418.4084, 3.354004
418.8905, 6.278320
419.3726, 14.25293
419.8547, 19.16064
420.3368, 17.92188
420.8189, 13.61523
421.3011, 10.75293
421.7832, 9.207520
422.2653, 9.614258
422.7474, 15.35645
423.2295, 20.89160
423.7116, 20.56250
424.1938, 14.57715
424.6759, 7.796387
425.1580, 3.789551
425.6401, 2.476563
426.1222, 2.340332
426.6043, 3.220703
427.0865, 5.206055
427.5686, 9.625000
428.0507, 14.71924
428.5328, 17.91260
429.0149, 18.23682
429.4970, 17.04297
429.9792, 16.73047
430.4613, 17.54736
430.9434, 18.58252
431.4255, 20.75977
431.9076, 22.48877
432.3897, 23.20361
432.8719, 22.71338
433.3540, 20.59229
433.8361, 15.96924
434.3182, 9.563965
434.8003, 6.489746
435.2824, 7.489746
435.7646, 11.07666
436.2467, 19.29297
436.7288, 28.06982
437.2109, 33.24023
437.6930, 33.59668
438.1751, 30.76953
438.6573, 25.86963
439.1394, 18.55420
439.6215, 14.25732
440.1036, 16.36963
440.5857, 18.71045
441.0678, 15.82520
441.5500, 9.327637
442.0321, 5.502930
442.5142, 9.394531
442.9963, 17.26758
443.4784, 23.19727
443.9605, 27.35840
444.4427, 27.41846
444.9248, 19.22803
445.4069, 7.585449
445.8890, 0.9741210
446.3711, 0.8369140
446.8532, 2.384766
447.3354, 3.536621
447.8175, 4.764648
448.2996, 7.646484
448.7817, 12.78467
449.2638, 17.63623
449.7459, 18.91309
450.2281, 16.32861
450.7102, 15.74463
451.1923, 20.62646
451.6744, 24.53955
452.1565, 22.61133
452.6386, 16.28125
453.1208, 9.908203
453.6029, 5.563477
454.0850, 3.454102
454.5671, 2.938477
455.0492, 5.716309
455.5313, 7.412109
456.0135, 6.472656
456.4956, 5.447754
456.9777, 6.710938
457.4598, 10.35352
457.9419, 14.57031
458.4240, 17.58447
458.9062, 19.25244
459.3883, 21.36768
459.8704, 26.23730
460.3525, 29.36816
460.8346, 26.99902
461.3167, 23.14111
461.7989, 23.94043
462.2810, 31.84229
462.7631, 41.23828
463.2452, 42.82520
463.7273, 35.14648
464.2094, 28.11914
464.6916, 22.34277
465.1737, 18.13916
465.6558, 15.40186
466.1379, 14.25928
466.6200, 15.24316
467.1021, 20.71924
467.5843, 27.56348
468.0664, 28.23340
468.5485, 21.60840
469.0306, 17.22070
469.5127, 22.03027
469.9948, 29.99609
470.4770, 30.81006
470.9591, 21.77588
471.4412, 14.60938
471.9233, 17.62256
472.4054, 25.91064
472.8875, 30.18604
473.3697, 28.67578
473.8518, 25.66357
474.3339, 25.01855
474.8160, 26.72559
475.2981, 27.13184
475.7802, 25.67578
476.2624, 23.51660
476.7445, 20.60840
477.2266, 17.42139
477.7087, 15.00684
478.1908, 13.76953
478.6729, 12.78467
479.1551, 10.08203
479.6372, 2.833496
480.1193, 0.7265630
480.6014, 8.087402
481.0835, 16.06836
481.5656, 19.06055
482.0478, 18.16309
482.5299, 17.62842
483.0120, 20.54736
483.4941, 25.52393
483.9762, 26.10596
484.4583, 18.69678
484.9405, 14.60596
485.4226, 21.53613
485.9047, 28.69580
486.3868, 25.38574
486.8689, 11.24023
487.3510, 1.958496
487.8332, 2.704590
488.3153, 6.391113
488.7974, 12.56787
489.2795, 14.80566
489.7616, 15.46582
490.2437, 15.36768
490.7259, 15.06152
491.2080, 14.87305
491.6901, 14.58838
492.1722, 14.36768
492.6543, 14.33301
493.1364, 14.59082
493.6186, 15.36719
494.1007, 16.66016
494.5828, 18.92871
495.0649, 23.96631
495.5470, 32.34668
496.0291, 34.37109
496.5113, 23.68164
496.9934, 12.20898
497.4755, 6.601563
497.9576, 5.840332
498.4397, 6.998047
498.9218, 8.790039
499.4040, 10.56299
499.8861, 10.68457
500.3682, 7.108887
500.8503, 5.705566
501.3324, 8.887207
501.8145, 11.91260
502.2967, 11.36377
502.7788, 7.904785
503.2609, 4.451660
503.7430, 2.912109
504.2251, 3.052246
504.7072, 4.386719
505.1894, 8.266113
505.6715, 10.19824
506.1536, 6.970703
506.6357, 2.773438
507.1178, 1.137695
507.5999, 2.417969
508.0821, 3.893555
508.5642, 3.137695
509.0463, 1.060059
509.5284, 0.7934570
510.0105, 3.134766
510.4926, 4.437500
510.9748, 4.491196
511.4569, 5.757324
511.9390, 5.546387
512.4211, 5.725586
512.9032, 7.439843
513.3853, 6.555684
513.8674, 9.316406
514.3495, 7.412598
514.8317, 11.21240
515.3138, 15.19678
515.7959, 13.33252
516.2780, 4.996094
516.7601, 7.4219003E-02
517.2422, 0.5605470
517.7244, 0.1308590
518.2065, 1.659180
518.6886, 3.389160
519.1707, 4.644043
519.6528, 5.172852
520.1349, 5.013184
520.6171, 3.979980
521.0992, 1.639160
521.5813, 0.3344730
522.0634, 1.223145
522.5455, 2.110352
523.0276, 1.943359
523.5098, 1.259766
523.9919, 1.220703
524.4740, 2.479004
524.9561, 4.164063
525.4382, 4.578613
525.9203, 3.656738
526.4025, 4.511719
526.8846, 9.041992
527.3667, 13.93213
527.8488, 15.97900
528.3309, 15.50000
528.8130, 14.42383
529.2952, 13.15723
529.7773, 11.62646
530.2594, 8.966309
530.7415, 5.729980
531.2236, 4.801270
531.7057, 7.967773
532.1879, 12.59570
532.6700, 13.41211
533.1521, 7.740234
533.6342, 4.348633
534.1163, 5.074707
534.5984, 6.704590
535.0806, 7.430664
535.5627, 7.220703
536.0448, 6.715332
536.5269, 6.328613
537.0090, 5.820313
537.4911, 4.213379
537.9733, 0.1640630
538.4554, 2.022461
538.9375, 0.1796880
539.4196, 2.585938
539.9017, 2.233398
540.3839, 0.3842770
540.8660, 2.198242
541.3481, 0.7006840
541.8302, 2.646973
542.3123, 4.648926
542.7944, 5.241699
543.2766, 5.203125
543.7587, 4.419922
544.2408, 3.548340
544.7229, 3.649414
545.2050, 4.824219
545.6871, 5.696289
546.1693, 6.809082
546.6514, 6.894043
547.1335, 3.245117
547.6156, 3.415039
548.0977, 8.107422
548.5798, 7.755371
549.0620, 3.371582
549.5441, 1.650879
550.0262, 10.16650
550.5083, 15.25781
550.9904, 14.37891
551.4725, 11.89648
551.9547, 11.07666
552.4368, 11.87793
552.9189, 12.21484
553.4010, 10.19434
553.8831, 6.900879
554.3652, 7.182129
554.8474, 12.98242
555.3295, 17.50879
555.8116, 19.07666
556.2937, 18.74414
556.7758, 16.20410
557.2579, 11.82227
557.7401, 8.465332
558.2222, 8.096680
558.7043, 9.721680
559.1864, 12.30566
559.6685, 15.79590
560.1506, 17.52148
560.6328, 14.86475
561.1149, 10.84277
561.5970, 13.47803
562.0791, 26.41846
562.5612, 33.07275
563.0433, 24.55713
563.5255, 12.84521
564.0076, 8.015137
564.4897, 9.922363
564.9718, 12.92578
565.4539, 13.38330
565.9360, 12.24463
566.4182, 12.38721
566.9003, 15.65625
567.3824, 16.76172
567.8645, 12.67090
568.3466, 8.903320
568.8287, 9.970215
569.3109, 14.47266
569.7930, 17.95459
570.2751, 17.50977
570.7572, 14.45898
571.2393, 11.63232
571.7214, 8.883301
572.2036, 8.443848
572.6857, 13.08350
573.1678, 18.04395
573.6499, 16.41504
574.1320, 8.391113
574.6141, 3.418945
575.0963, 5.871582
575.5784, 10.97412
576.0605, 15.97363
576.5426, 20.13574
577.0247, 21.46777
577.5068, 18.82373
577.9890, 14.37402
578.4711, 12.38428
578.9532, 14.94385
579.4353, 14.61670
579.9174, 6.077148
580.3995, 0.3354490
580.8817, 6.091797
581.3638, 18.01953
581.8459, 25.09131
582.3280, 21.77539
582.8101, 14.19971
583.2922, 12.78027
583.7744, 18.06299
584.2565, 21.24023
584.7386, 19.71387
585.2207, 17.95361
585.7029, 20.06250
586.1850, 24.37988
586.6671, 26.50488
587.1492, 23.76660
587.6313, 20.70898
588.1135, 22.01904
588.5956, 25.38086
589.0777, 24.33594
589.5598, 17.12500
590.0419, 9.718262
590.5240, 8.849121
591.0062, 14.92041
591.4883, 18.44922
591.9704, 17.61328
592.4525, 16.80176
592.9346, 17.58008
593.4167, 18.76807
593.8989, 19.60645
594.3810, 19.59570
594.8631, 17.71484
595.3452, 11.61475
595.8273, 2.265137
596.3094, 0.7465820
596.7916, 6.178711
597.2737, 11.88379
597.7558, 8.793457
598.2379, 3.479492
598.7200, 3.598633
599.2021, 10.79736
599.6843, 17.33740
600.1664, 20.09277
600.6485, 20.13184
601.1306, 17.18164
601.6127, 11.86914
602.0948, 9.581055
602.5770, 14.07959
603.0591, 22.50000
603.5412, 26.96045
604.0233, 24.34619
604.5054, 22.59717
604.9875, 23.53564
605.4697, 23.49707
605.9518, 18.87549
606.4339, 11.65527
606.9160, 6.837402
607.3981, 7.257324
607.8802, 10.17090
608.3624, 10.61523
608.8445, 8.314453
609.3266, 7.186035
609.8087, 8.108887
610.2908, 10.10400
610.7729, 13.20801
611.2551, 16.82617
611.7372, 19.10254
612.2193, 19.22900
612.7014, 18.32275
613.1835, 16.17041
613.6656, 13.69824
614.1478, 13.26074
614.6299, 15.41992
615.1120, 18.32812
615.5941, 20.32812
616.0762, 21.40137
616.5583, 20.73682
617.0405, 15.75732
617.5226, 12.19727
618.0047, 12.87891
618.4868, 14.21729
618.9689, 11.91016
619.4510, 5.866211
619.9332, 0.3911130
620.4153, 0.2729490
620.8974, 2.416504
621.3795, 2.316406
621.8616, 1.687988
622.3438, 1.849609
622.8259, 8.243652
623.3080, 20.55322
623.7901, 23.29346
624.2722, 15.94873
624.7543, 10.83350
625.2365, 13.43457
625.7186, 17.70410
626.2007, 18.07373
626.6828, 15.87939
627.1649, 15.70264
627.6470, 19.48926
628.1292, 24.89746
628.6113, 28.14648
629.0934, 28.58594
629.5755, 29.36768
630.0576, 32.67383
630.5397, 33.79443
631.0219, 28.43164
631.5040, 21.09668
631.9861, 18.70117
632.4682, 23.37744
632.9503, 28.83301
633.4324, 27.85303
633.9146, 23.04834
634.3967, 24.18750
634.8788, 32.91064
635.3609, 39.14941
635.8430, 35.96631
636.3251, 26.78955
636.8073, 21.46826
637.2894, 20.65576
637.7715, 21.34863
638.2536, 24.36914
638.7357, 27.67578
639.2178, 30.27197
639.7000, 31.72803
640.1821, 31.27979
640.6642, 28.42432
641.1463, 24.20508
641.6284, 20.43799
642.1105, 16.97314
642.5927, 15.40332
643.0748, 16.20215
643.5569, 17.67334
644.0390, 20.09375
644.5211, 22.58398
645.0032, 23.08105
645.4854, 20.29736
645.9675, 17.50586
646.4496, 18.13965
646.9317, 19.94092
647.4138, 17.86084
647.8959, 11.48096
648.3781, 5.773438
648.8602, 4.709473
649.3423, 7.121094
649.8244, 7.422852
650.3065, 3.803223
650.7886, 0.7807620
651.2708, 2.613770
651.7529, 4.463379
652.2350, 2.510254
652.7171, 2.141113
653.1992, 6.373047
653.6813, 8.665527
654.1635, 9.358398
654.6456, 9.136230
655.1277, 7.909668
655.6098, 4.721680
656.0919, 2.096191
656.5740, 6.436523
657.0562, 1.253906
657.5383, 11.68994
658.0204, 18.41211
658.5025, 13.77002
658.9846, 9.268555
659.4667, 9.021973
659.9489, 10.05029
660.4310, 8.661133
660.9131, 4.884766
661.3952, 2.154785
661.8773, 3.233398
662.3594, 6.692383
662.8416, 7.717285
663.3237, 5.745605
663.8058, 3.387695
664.2879, 0.2021480
664.7700, 2.622559
665.2521, 1.896973
665.7343, 1.356934
666.2164, 5.052734
666.6985, 9.540527
667.1806, 13.10693
667.6627, 14.54346
668.1448, 14.22266
668.6270, 12.27344
669.1091, 8.888672
669.5912, 5.800293
670.0733, 4.442871
670.5554, 4.753906
671.0375, 6.458496
671.5197, 11.43262
672.0018, 14.59570
672.4839, 12.07812
672.9660, 10.48486
673.4481, 16.66309
673.9302, 28.07910
674.4124, 35.44287
674.8945, 32.67529
675.3766, 25.89404
675.8587, 22.75879
676.3408, 22.40137
676.8229, 20.25049
677.3051, 14.91309
677.7872, 10.10840
678.2693, 8.915039
678.7514, 11.28174
679.2335, 16.05566
679.7156, 28.05469
680.1978, 35.67529
680.6799, 34.94287
681.1620, 31.13379
681.6441, 27.81445
682.1262, 25.71484
682.6083, 25.06104
683.0905, 26.41797
683.5726, 28.27783
684.0547, 27.48682
684.5368, 23.98438
685.0189, 20.88232
685.5010, 18.47021
685.9832, 17.00342
686.4653, 17.15771
686.9474, 18.69385
687.4295, 20.18262
687.9116, 22.36328
688.3937, 23.44385
688.8759, 22.01221
689.3580, 19.85938
689.8401, 18.71143
690.3222, 18.70557
690.8043, 19.46924
691.2864, 21.03906
691.7686, 22.24854
692.2507, 19.12012
692.7328, 10.32373
693.2149, 6.275391
693.6970, 11.51074
694.1791, 17.25488
694.6613, 16.35205
695.1434, 11.57324
695.6255, 8.913086
696.1076, 9.565918
696.5897, 11.80078
697.0718, 17.63330
697.5540, 22.96143
698.0361, 21.66992
698.5182, 14.34814
699.0003, 6.150391
699.4824, 3.0762000E-02
699.9645, 3.583496
700.4467, 2.299316
700.9288, 5.474121
701.4109, 12.01855
701.8930, 17.53320
702.3751, 20.96143
702.8572, 21.26221
703.3394, 19.42969
703.8215, 16.80957
704.3036, 13.33887
704.7857, 10.59326
705.2678, 10.05859
705.7499, 10.52100
706.2321, 10.57764
706.7142, 10.05615
707.1963, 8.722656
707.6784, 6.385254
708.1605, 4.033203
708.6426, 3.648926
709.1248, 5.516113
709.6069, 6.776367
710.0890, 7.638184
710.5711, 8.258789
711.0532, 8.495117
711.5353, 8.302734
712.0175, 7.520020
712.4996, 6.090820
712.9817, 4.591797
713.4638, 1.535156
713.9459, 0.5190430
714.4280, 3.990723
714.9102, 14.23145
715.3923, 22.78467
715.8744, 26.55127
716.3565, 25.83643
716.8386, 19.83008
717.3207, 6.718750
717.8029, 0.8867190
718.2850, 8.861816
718.7671, 16.37793
719.2492, 20.83740
719.7313, 22.98389
720.2134, 23.37744
720.6956, 22.22412
721.1777, 20.18506
721.6598, 16.49756
722.1419, 12.81396
722.6240, 11.17871
723.1061, 11.36084
723.5883, 12.68848
724.0704, 15.17236
724.5525, 16.74268
725.0346, 14.60498
725.5167, 8.959961
725.9988, 7.129395
726.4810, 13.81104
726.9631, 17.39404
727.4452, 13.60889
727.9273, 8.732422
728.4094, 7.545410
728.8915, 9.704590
729.3737, 12.31396
729.8558, 14.57520
730.3379, 15.82617
730.8200, 14.63037
731.3021, 11.93701
731.7842, 10.65186
732.2664, 11.27490
732.7485, 11.40576
733.2306, 8.864746
733.7127, 4.901367
734.1948, 4.623535
734.6769, 11.39209
735.1591, 15.74854
735.6412, 15.71143
736.1233, 15.16016
736.6054, 16.86279
737.0875, 19.26660
737.5696, 18.87061
738.0518, 14.11963
738.5339, 9.234863
739.0160, 8.232910
739.4981, 9.094727
739.9802, 7.864746
740.4623, 4.495117
740.9445, 1.248047
741.4266, 0.8442380
741.9087, 1.823730
742.3908, 1.789063
742.8729, 0.8564450
743.3550, 1.554199
743.8372, 6.395020
744.3193, 11.59570
744.8014, 18.72510
745.2835, 24.70410
745.7656, 25.37842
746.2477, 20.48633
746.7299, 15.30273
747.2120, 12.19971
747.6941, 10.73584
748.1762, 11.55127
748.6583, 13.63721
749.1404, 13.05566
749.6226, 8.774902
750.1047, 5.339355
750.5868, 8.103027
751.0689, 16.07080
751.5510, 17.90820
752.0331, 8.392578
752.5153, 2.759766
752.9974, 8.031738
753.4795, 13.85938
753.9616, 12.54004
754.4437, 6.207520
754.9258, 2.535645
755.4080, 3.869141
755.8901, 7.476074
756.3722, 12.92480
756.8543, 18.85352
757.3364, 24.38330
757.8185, 28.47314
758.3007, 27.56885
758.7828, 18.98926
759.2649, 6.944824
759.7470, 1.261719
760.2291, 3.355469
760.7112, 4.919434
761.1934, 5.415527
761.6755, 5.995117
762.1576, 8.063965
762.6397, 10.14600
763.1218, 10.16211
763.6039, 7.796387
764.0861, 5.025391
764.5682, 1.688477
765.0503, 0.9985350
765.5324, 2.804688
766.0145, 3.044922
766.4966, 0.7519530
766.9788, 8.701660
767.4609, 15.73389
767.9430, 16.28809
768.4251, 11.68359
768.9072, 8.428711
769.3893, 6.601074
769.8715, 5.834961
770.3536, 6.756836
770.8357, 7.676758
771.3178, 6.738281
771.7999, 4.254395
772.2820, 2.378418
772.7642, 1.469238
773.2463, 0.5913090
773.7284, 1.208008
774.2105, 2.542969
774.6926, 2.604004
775.1747, 1.064941
775.6569, 3.515625
776.1390, 12.43115
776.6211, 20.22217
777.1032, 17.67627
777.5853, 6.893066
778.0674, 2.2461001E-02
778.5496, 1.753906
779.0317, 2.572266
779.5138, 4.616211
779.9959, 6.563965
780.4780, 5.845215
780.9601, 5.870992
781.4423, 5.454392
781.9244, 3.044434
782.4065, 3.496582
782.8886, 1.467773
783.3707, 0.4560550
783.8528, 1.233398
784.3350, 6.379395
784.8171, 10.75293
785.2992, 11.18262
785.7813, 10.19434
786.2634, 10.76611
786.7455, 12.69727
787.2277, 16.46387
787.7098, 22.03076
788.1919, 24.06494
788.6740, 17.34131
789.1561, 5.391113
789.6382, 1.901367
790.1204, 12.06396
790.6025, 18.05518
791.0846, 14.62402
791.5667, 11.67627
792.0488, 15.62158
792.5309, 22.08398
793.0131, 23.00732
793.4952, 15.99414
793.9773, 11.78906
794.4594, 18.76953
794.9415, 27.96143
795.4236, 32.06689
795.9058, 31.36768
796.3879, 26.21631
796.8700, 17.31104
797.3521, 9.718262
797.8342, 9.448242
798.3163, 14.62402
798.7985, 14.95312
799.2806, 9.236328
799.7627, 4.863770
800.2448, 3.278320
800.7269, 4.036621
801.2090, 8.498047
801.6912, 15.21680
802.1733, 17.19189
802.6554, 10.33057
803.1375, 5.114746
803.6196, 4.809570
804.1017, 5.568848
804.5839, 3.210449
805.0660, 2.8809000E-02
805.5481, 2.321777
806.0302, 12.50049
806.5123, 22.56543
806.9944, 23.50537
807.4766, 18.70801
807.9587, 16.18604
808.4408, 16.07812
808.9229, 15.65771
809.4050, 13.88232
809.8871, 12.21436
810.3693, 12.87549
810.8514, 9.062653
811.3335, 7.955881
811.8156, 3.236328
812.2977, 3.860840
812.7798, 2.440430
813.2620, 1.154297
813.7441, 3.538086
814.2262, 4.594727
814.7083, 4.543457
815.1904, 2.445801
815.6725, 1.639160
816.1547, 3.888184
816.6368, 8.429688
817.1189, 16.80371
817.6010, 26.66016
818.0831, 30.76367
818.5652, 26.12256
819.0474, 18.61084
819.5295, 15.31006
820.0116, 16.04053
820.4937, 20.90430
820.9758, 31.54395
821.4579, 35.56006
821.9401, 25.91455
822.4222, 13.63232
822.9043, 10.51465
823.3864, 16.24219
823.8685, 20.76318
824.3506, 24.44043
824.8328, 26.86475
825.3149, 26.69922
825.7970, 26.42041
826.2791, 29.15039
826.7612, 33.07080
827.2433, 33.10938
827.7255, 26.90820
828.2076, 20.94873
828.6897, 21.57520
829.1718, 25.58447
829.6539, 28.06934
830.1360, 28.89893
830.6182, 28.96436
831.1003, 28.58594
831.5824, 27.72314
832.0645, 26.26514
832.5466, 24.38818
833.0287, 23.78711
833.5109, 24.96484
833.9930, 25.69482
834.4751, 25.93701
834.9572, 25.02197
835.4393, 20.20996
835.9214, 13.70215
836.4036, 12.60938
836.8857, 21.07764
837.3678, 27.65186
837.8499, 28.73096
838.3320, 27.92139
838.8141, 26.93945
839.2963, 26.27930
839.7784, 27.03369
840.2605, 29.45264
840.7426, 31.68359
841.2247, 30.04053
841.7068, 27.27881
842.1890, 29.52246
842.6711, 35.56836
843.1532, 38.54883
843.6353, 36.66064
844.1174, 31.66162
844.5995, 24.15479
845.0817, 15.84180
845.5638, 15.47510
846.0459, 27.23340
846.5280, 35.16406
847.0101, 37.24609
847.4922, 36.33398
847.9744, 30.48291
848.4565, 24.01172
848.9386, 24.78516
849.4207, 34.75537
849.9028, 41.97021
850.3849, 41.94727
850.8671, 39.60449
851.3492, 36.89551
851.8313, 34.25781
852.3134, 31.39600
852.7955, 28.79883
853.2776, 29.25049
853.7598, 35.70508
854.2419, 42.13574
854.7240, 36.49707
855.2061, 22.85303
855.6882, 18.71436
856.1703, 26.07324
856.6525, 35.34229
857.1346, 41.71973
857.6167, 44.55566
858.0988, 41.56592
858.5809, 31.00488
859.0630, 26.42725
859.5452, 31.12646
860.0273, 35.99707
860.5094, 40.49121
860.9915, 42.31348
861.4736, 36.95215
861.9557, 26.21875
862.4379, 20.85840
862.9200, 28.10547
863.4021, 33.60059
863.8842, 30.32715
864.3663, 24.97559
864.8484, 23.20508
865.3306, 24.38379
865.8127, 25.16553
866.2948, 24.27832
866.7769, 24.38770
867.2590, 29.86816
867.7411, 37.44629
868.2233, 40.18359
868.7054, 38.47852
869.1875, 35.01074
869.6696, 30.13623
870.1517, 25.04346
870.6339, 21.02637
871.1160, 18.12012
871.5981, 16.13818
872.0802, 14.73584
872.5623, 15.79102
873.0444, 21.37842
873.5266, 26.32178
874.0087, 27.54736
874.4908, 26.38477
874.9729, 24.95654
875.4550, 22.99902
875.9371, 22.40625
876.4193, 25.12549
876.9014, 27.22949
877.3835, 27.74219
877.8656, 26.33105
878.3477, 20.83057
878.8298, 12.79443
879.3120, 8.252441
879.7941, 10.79590
880.2762, 16.22168
880.7583, 22.32617
881.2404, 27.66504
881.7225, 27.72412
882.2047, 24.04688
882.6868, 25.36768
883.1689, 35.59668
883.6510, 46.50244
884.1331, 46.93164
884.6152, 38.50830
885.0974, 33.41650
885.5795, 32.05615
886.0616, 31.64697
886.5437, 31.82471
887.0258, 32.21094
887.5079, 32.70850
887.9901, 33.14844
888.4722, 32.87158
888.9543, 32.65039
889.4364, 30.22607
889.9185, 23.25879
890.4006, 16.93848
890.8828, 12.63623
891.3649, 10.50781
891.8470, 11.67676
892.3291, 15.85156
892.8112, 18.39795
893.2933, 16.40771
893.7755, 13.49512
894.2576, 11.73877
894.7397, 10.42480
895.2218, 8.201660
895.7039, 5.516602
896.1860, 4.682129
896.6682, 6.916504
897.1503, 8.848633
897.6324, 2.885254
898.1145, 6.090820
898.5966, 9.7660003E-03
899.0787, 19.46484
899.5609, 31.20410
900.0430, 28.29541
900.5251, 20.67334
901.0072, 17.72900
901.4893, 18.40283
901.9714, 17.58398
902.4536, 14.59717
902.9357, 12.65479
903.4178, 12.64160
903.8999, 12.55420
904.3820, 9.915039
904.8641, 7.429688
905.3463, 11.75342
905.8284, 24.83740
906.3105, 28.94385
906.7926, 13.05762
907.2747, 0.7905270
907.7568, 1.890137
908.2390, 7.658691
908.7211, 12.82275
909.2032, 15.62988
909.6853, 12.96191
910.1674, 13.51759
910.6495, 11.49545
911.1317, 8.357910
911.6138, 6.241211
912.0959, 3.530762
912.5780, 0.6582030
913.0601, 2.426270
913.5422, 5.501953
914.0244, 7.280762
914.5065, 6.596191
914.9886, 5.339844
915.4707, 8.694824
915.9528, 15.48926
916.4349, 17.46729
916.9171, 13.40674
917.3992, 12.16650
917.8813, 19.23047
918.3634, 29.07178
918.8455, 32.12842
919.3276, 27.68555
919.8098, 24.60693
920.2919, 23.15967
920.7740, 23.06348
921.2561, 26.28174
921.7382, 28.41748
922.2203, 24.58252
922.7025, 16.74512
923.1846, 12.37988
923.6667, 12.19727
924.1488, 12.53906
924.6309, 16.49414
925.1130, 17.91650
925.5952, 10.79443
926.0773, 1.548340
926.5594, 2.138672
927.0415, 0.4038090
927.5236, 5.188965
928.0057, 13.13086
928.4879, 19.04150
928.9700, 17.69385
929.4521, 13.71191
929.9342, 12.35107
930.4163, 13.28418
930.8984, 14.00439
931.3806, 13.57568
931.8627, 12.68896
932.3448, 11.61621
932.8269, 10.80127
933.3090, 11.47021
933.7911, 13.31055
934.2733, 15.20654
934.7554, 16.67529
935.2375, 16.56348
935.7196, 13.77441
936.2017, 10.43506
936.6838, 12.05518
937.1660, 19.11328
937.6481, 20.90479
938.1302, 16.38721
938.6123, 10.60791
939.0944, 3.626953
939.5765, 0.4067380
940.0587, 4.222656
940.5408, 15.73779
941.0229, 20.79980
941.5050, 12.86963
941.9871, 10.48291
942.4692, 20.46631
942.9514, 28.79395
943.4335, 28.79150
943.9156, 24.60010
944.3977, 20.95752
944.8798, 18.16016
945.3619, 16.17773
945.8441, 13.82275
946.3262, 13.80127
946.8083, 19.51416
947.2904, 25.74268
947.7725, 27.84717
948.2546, 26.97363
948.7368, 27.03955
949.2189, 29.30957
949.7010, 29.38916
950.1831, 21.86475
950.6652, 13.48145
951.1473, 9.682129
951.6295, 9.611328
952.1116, 13.07568
952.5937, 18.77734
953.0758, 22.32227
953.5579, 20.68945
954.0400, 16.23193
954.5222, 10.58252
955.0043, 5.274902
955.4864, 5.336426
955.9685, 10.02637
956.4506, 16.13672
956.9327, 22.27637
957.4149, 25.64014
957.8970, 23.14111
958.3791, 17.27197
958.8612, 16.23145
959.3433, 20.43457
959.8254, 23.22949
960.3076, 24.22070
960.7897, 23.62549
961.2718, 21.42676
961.7539, 17.78711
962.2360, 12.10498
962.7181, 4.672363
963.2003, 2.142578
963.6824, 7.216797
964.1645, 11.84619
964.6466, 17.76025
965.1287, 20.05957
965.6108, 11.41748
966.0930, 0.2119140
966.5751, 2.272461
967.0572, 6.396973
967.5393, 14.41406
968.0214, 22.97168
968.5035, 27.15137
968.9857, 24.57275
969.4678, 18.90869
969.9499, 9.376465
970.4320, 0.3427730
970.9141, 1.968262
971.3962, 7.483887
971.8784, 15.31152
972.3605, 13.46143
972.8426, 10.36768
973.3247, 13.13574
973.8068, 17.29639
974.2889, 16.58545
974.7711, 11.27832
975.2532, 5.468262
975.7353, 0.7573240
976.2174, 2.004395
976.6995, 0.8701170
977.1816, 1.884766
977.6638, 3.602539
978.1459, 4.094238
978.6280, 2.922363
979.1101, 4.864808
979.5922, 3.058105
980.0743, 6.708984
980.5565, 8.791016
981.0386, 9.026287
981.5207, 4.562988
982.0028, 7.267578
982.4849, 4.083496
982.9670, 1.355469
983.4492, 1.202637
983.9313, 3.065918
984.4134, 6.840332
984.8955, 11.40723
985.3776, 11.28809
985.8597, 6.253418
986.3419, 3.124023
986.8240, 2.264648
987.3061, 4.679688
987.7882, 11.70801
988.2703, 19.49023
988.7524, 23.47852
989.2346, 23.88037
989.7167, 22.93701
990.1988, 20.80713
990.6809, 16.41455
991.1630, 6.943359
991.6451, 0.5429690
992.1273, 2.913086
992.6094, 9.244629
993.0915, 12.19775
993.5736, 11.48193
994.0557, 12.79150
994.5378, 18.47559
995.0200, 22.76904
995.5021, 25.87354
995.9842, 26.64062
996.4663, 21.73486
996.9484, 15.21631
997.4305, 14.69775
997.9127, 21.62158
998.3948, 24.90479
998.8769, 17.67285
999.3590, 13.26318
999.8411, 20.01709
1000.323, 27.24561
1000.805, 25.24609
1001.287, 17.60059
1001.770, 12.88965
1002.252, 13.13525
1002.734, 13.00781
1003.216, 8.639160
1003.698, 5.335449
1004.180, 7.617188
1004.662, 11.20312
1005.144, 11.83105
1005.627, 9.948242
1006.109, 8.397461
1006.591, 8.246582
1007.073, 7.198242
1007.555, 1.118164
1008.037, 4.157715
1008.519, 0.3222660
1009.001, 6.825195
1009.483, 6.952637
1009.966, 0.7050780
1010.448, 4.183594
1010.930, 4.102051
1011.412, 1.772461
1011.894, 0.6308590
1012.376, 3.121094
1012.858, 6.437988
1013.340, 9.769531
1013.823, 10.34229
1014.305, 8.353516
1014.787, 7.733398
1015.269, 10.81348
1015.751, 14.80518
1016.233, 14.59229
1016.715, 12.65479
1017.197, 18.82178
1017.679, 30.39258
1018.162, 31.68408
1018.644, 20.30469
1019.126, 12.08643
1019.608, 17.93848
1020.090, 29.74609
1020.572, 33.52100
1021.054, 30.41113
1021.536, 28.61084
1022.018, 27.89795
1022.501, 25.75000
1022.983, 21.33838
1023.465, 18.18555
1023.947, 18.66895
1024.429, 22.13135
1024.911, 27.87158
1025.393, 35.65869
1025.875, 45.08447
1026.358, 57.32227
1026.840, 59.78174
1027.322, 47.10400
1027.804, 33.49316
1028.286, 29.86377
1028.768, 33.05371
1029.250, 35.95020
1029.732, 38.73730
1030.214, 37.16309
1030.697, 29.35986
1031.179, 23.74756
1031.661, 22.87354
1032.143, 24.12354
1032.625, 26.50293
1033.107, 28.50732
1033.589, 24.98730
1034.071, 13.05859
1034.553, 8.795898
1035.036, 16.37256
1035.518, 22.55371
1036.000, 23.23828
1036.482, 22.53662
1036.964, 23.48438
1037.446, 25.41943
1037.928, 26.72412
1038.410, 27.81689
1038.893, 28.84473
1039.375, 29.55078
1039.857, 29.67236
1040.339, 29.57959
1040.821, 28.49561
1041.303, 24.65771
1041.785, 19.76025
1042.267, 18.39551
1042.750, 21.34180
1043.232, 25.95459
1043.714, 36.53320
1044.196, 42.78271
1044.678, 40.72803
1045.160, 35.00586
1045.642, 25.49072
1046.124, 15.47607
1046.606, 13.24512
1047.089, 21.29785
1047.571, 28.35645
1048.053, 33.64258
1048.535, 37.10205
1049.017, 38.17627
1049.499, 37.73926
1049.981, 37.44482
1050.463, 36.53955
1050.945, 32.16846
1051.428, 22.90137
1051.910, 17.73730
1052.392, 24.23291
1052.874, 27.35156
1053.356, 18.85303
1053.838, 8.528320
1054.320, 2.405762
1054.802, 0.7294920
1055.285, 4.527344
1055.767, 14.71338
1056.249, 19.98291
1056.731, 12.99023
1057.213, 6.374023
1057.695, 4.679199
1058.177, 5.222656
1058.659, 7.253906
1059.141, 9.422852
1059.624, 9.523438
1060.106, 7.199707
1060.588, 4.486816
1061.070, 1.788574
1061.552, 3.236816
1062.034, 10.10742
1062.516, 23.24561
1062.998, 22.79834
1063.480, 14.43848
1063.963, 8.154785
1064.445, 5.793945
1064.927, 5.935059
1065.409, 9.604980
1065.891, 13.16846
1066.373, 17.18604
1066.855, 19.62988
1067.337, 17.57031
1067.820, 13.34033
1068.302, 10.32520
1068.784, 9.348145
1069.266, 9.115234
1069.748, 8.833008
1070.230, 9.513672
1070.712, 13.03809
1071.194, 16.20508
1071.677, 16.84521
1072.159, 15.41455
1072.641, 11.30615
1073.123, 5.642090
1073.605, 4.131836
1074.087, 11.30518
1074.569, 16.89111
1075.051, 14.80957
1075.533, 10.85840
1076.016, 8.629883
1076.498, 7.446777
1076.980, 6.366699
1077.462, 5.165527
1077.944, 2.951172
1078.426, 2.001953
1078.908, 2.724609
1079.390, 9.766602
1079.873, 7.974659
1080.355, 18.89893
1080.837, 12.56152
1081.319, 14.83057
1081.801, 23.70703
1082.283, 28.20117
1082.765, 24.12451
1083.247, 22.06689
1083.729, 30.33838
1084.212, 37.76465
1084.694, 36.54932
1085.176, 32.25635
1085.658, 30.40137
1086.140, 30.54639
1086.622, 30.02832
1087.104, 28.15918
1087.586, 26.73096
1088.068, 27.63965
1088.551, 27.71777
1089.033, 23.96533
1089.515, 20.02246
1089.997, 20.50830
1090.479, 22.69043
1090.961, 20.40771
1091.443, 12.86182
1091.925, 6.736328
1092.408, 3.977539
1092.890, 3.847656
1093.372, 9.564941
1093.854, 14.26025
1094.336, 12.36963
1094.818, 6.560059
1095.300, 0.5756840
1095.782, 7.711426
1096.265, 9.587402
1096.747, 0.6923830
1097.229, 5.860840
1097.711, 3.940918
1098.193, 0.4482420
1098.675, 3.814453
1099.157, 5.146973
1099.639, 4.221680
1100.121, 20.68799
1100.604, 27.75000
1101.086, 18.70215
1101.568, 10.32373
1102.050, 4.879395
1102.532, 3.539063
1103.014, 12.32373
1103.496, 20.64014
1103.978, 16.98145
1104.460, 5.395996
1104.943, 2.497559
1105.425, 4.836914
1105.907, 5.192871
1106.389, 7.038574
1106.871, 14.93429
1107.353, 13.87451
1107.835, 32.07227
1108.317, 45.91113
1108.800, 54.17725
1109.282, 53.41602
1109.764, 43.02148
1110.246, 35.87988
1110.728, 35.21289
1111.210, 34.86816
1111.692, 34.79150
1112.174, 33.93115
1112.656, 31.45703
1113.139, 28.23584
1113.621, 24.16357
1114.103, 19.72021
1114.585, 19.81152
1115.067, 29.64404
1115.549, 34.58545
1116.031, 33.36816
1116.513, 28.95898
1116.995, 19.34961
1117.478, 9.966797
1117.960, 5.309082
1118.442, 4.685059
1118.924, 5.922363
1119.406, 9.579102
1119.888, 13.31982
1120.370, 16.35840
1120.852, 20.81299
1121.335, 29.18750
1121.817, 35.14746
1122.299, 32.80566
1122.781, 27.47070
1123.263, 29.76904
1123.745, 39.96338
1124.227, 42.00146
1124.709, 33.45654
1125.192, 24.70508
1125.674, 15.51465
1126.156, 11.07129
1126.638, 14.89209
1127.120, 21.60449
1127.602, 24.66357
1128.084, 25.25439
1128.566, 30.80859
1129.048, 26.88623
1129.531, 41.44336
1130.013, 22.29297
1130.495, 9.631836
1130.977, 11.87842
1131.459, 16.37256
1131.941, 12.50830
1132.423, 14.85645
1132.905, 15.98096
1133.387, 14.34717
1133.870, 18.49902
1134.352, 18.68066
1134.834, 19.79834
1135.316, 22.72461
1135.798, 21.54004
1136.280, 12.60010
1136.762, 3.382813
1137.244, 4.036133
1137.727, 11.48584
1138.209, 17.81250
1138.691, 22.93799
1139.173, 27.04443
1139.655, 29.76709
1140.137, 27.92188
1140.619, 20.90186
1141.101, 15.41992
1141.583, 17.41016
1142.066, 22.41748
1142.548, 23.81836
1143.030, 23.13574
1143.512, 23.03027
1143.994, 23.61328
1144.476, 25.48291
1144.958, 28.09473
1145.440, 28.36719
1145.922, 24.55225
1146.405, 20.95996
1146.887, 22.75586
1147.369, 25.87207
1147.851, 27.05322
1148.333, 25.64258
1148.815, 17.39844
1149.297, 6.496094
1149.779, 4.608887
1150.262, 14.13574
1150.744, 22.97852
1151.226, 24.39502
1151.708, 22.91553
1152.190, 19.64746
1152.672, 16.52539
1153.154, 14.78418
1153.636, 14.17920
1154.119, 15.20996
1154.601, 17.96191
1155.083, 20.48877
1155.565, 22.39307
1156.047, 23.68994
1156.529, 25.09180
1157.011, 24.74902
1157.493, 20.09717
1157.975, 15.20410
1158.458, 13.26953
1158.940, 13.90186
1159.422, 16.46094
1159.904, 21.11475
1160.386, 24.01074
1160.868, 22.69873
1161.350, 22.85303
1161.832, 28.36475
1162.314, 30.98779
1162.797, 23.37988
1163.279, 15.13232
1163.761, 18.57520
1164.243, 30.01709
1164.725, 32.23047
1165.207, 21.29785
1165.689, 15.08105
1166.171, 15.20166
1166.654, 15.97559
1167.136, 16.10938
1167.618, 15.09131
1168.100, 11.67871
1168.582, 9.652344
1169.064, 16.80127
1169.546, 31.31348
1170.028, 35.33545
1170.510, 28.58057
1170.993, 20.92822
1171.475, 13.32471
1171.957, 10.86963
1172.439, 15.53174
1172.921, 24.53955
1173.403, 36.62109
1173.885, 47.05322
1174.367, 43.72168
1174.849, 31.22021
1175.332, 25.74365
1175.814, 26.09521
1176.296, 25.10205
1176.778, 22.07617
1177.260, 21.67383
1177.742, 26.04785
1178.224, 31.82666
1178.706, 37.36865
1179.189, 41.35107
1179.671, 41.20605
1180.153, 39.00977
1180.635, 36.87939
1181.117, 35.55566
1181.599, 37.41016
1182.081, 41.71191
1182.563, 41.50684
1183.046, 31.44482
1183.528, 24.39941
1184.010, 33.01416
1184.492, 40.20703
1184.974, 29.84766
1185.456, 15.06982
1185.938, 9.761719
1186.420, 13.29248
1186.902, 22.02832
1187.385, 34.94922
1187.867, 41.94189
1188.349, 35.90723
1188.831, 32.33936
1189.313, 36.69336
1189.795, 40.92578
1190.277, 40.53955
1190.759, 38.68018
1191.241, 37.66504
1191.724, 38.00049
1192.206, 42.02100
1192.688, 51.99902
1193.170, 53.64746
1193.652, 43.50195
1194.134, 36.02686
1194.616, 34.50488
1195.098, 34.97314
1195.581, 35.67041
1196.063, 36.00732
1196.545, 35.03271
1197.027, 33.25684
1197.509, 32.48730
1197.991, 32.59229
1198.473, 33.37598
1198.955, 34.55029
1199.438, 29.93311
1199.920, 18.58496
1200.402, 12.78027
1200.884, 21.18994
1201.366, 33.58789
1201.848, 36.32959
1202.330, 33.66797
1202.812, 31.51611
1203.294, 31.21240
1203.776, 38.76416
1204.259, 50.14062
1204.741, 51.82861
1205.223, 41.38672
1205.705, 31.73145
1206.187, 30.78711
1206.669, 30.90576
1207.151, 26.16162
1207.633, 21.12451
1208.116, 19.03223
1208.598, 19.01758
1209.080, 21.12402
1209.562, 23.98047
1210.044, 23.65869
1210.526, 18.92480
1211.008, 18.23438
1211.490, 27.96191
1211.973, 34.53662
1212.455, 33.57324
1212.937, 31.09717
1213.419, 28.75488
1213.901, 27.00732
1214.383, 26.06836
1214.865, 26.07031
1215.347, 27.99121
1215.829, 32.55176
1216.312, 34.21875
1216.794, 32.96729
1217.276, 28.35938
1217.758, 19.59521
1218.240, 12.88623
1218.722, 11.47461
1219.204, 12.38721
1219.686, 12.59814
1220.168, 12.02246
1220.651, 9.272461
1221.133, 5.590332
1221.615, 7.669434
1222.097, 5.156333
1222.579, 4.341058
1223.061, 4.872070
1223.543, 1.753906
1224.025, 3.115234
1224.508, 0.5913090
1224.990, 12.67822
1225.472, 25.29346
1225.954, 31.24219
1226.436, 32.61426
1226.918, 29.49609
1227.400, 24.75781
1227.882, 23.66260
1228.365, 25.48291
1228.847, 24.02588
1229.329, 15.08545
1229.811, 8.621094
1230.293, 9.833008
1230.775, 10.44775
1231.257, 5.687988
1231.739, 1.801758
1232.221, 3.357910
1232.703, 7.807129
1233.186, 13.28906
1233.668, 18.91211
1234.150, 17.59814
1234.632, 5.462891
1235.114, 2.580078
1235.596, 11.31445
1236.078, 19.23242
1236.560, 24.16357
1237.043, 24.16162
1237.525, 17.35938
1238.007, 9.512207
1238.489, 8.458008
1238.971, 11.47412
1239.453, 12.13721
1239.935, 10.22900
1240.417, 13.33932
1240.900, 7.654785
1241.382, 14.21338
1241.864, 15.16309
1242.346, 10.19678
1242.828, 1.168945
1243.310, 9.093262
1243.792, 1.360352
1244.274, 6.937988
1244.756, 2.612305
1245.239, 5.812012
1245.721, 11.03223
1246.203, 13.87109
1246.685, 17.31250
1247.167, 20.85010
1247.649, 20.58496
1248.131, 14.66260
1248.613, 8.959473
1249.095, 2.299805
1249.578, 0.6816410
1250.060, 1.571289
1250.542, 6.396973
1251.024, 13.42578
1251.506, 21.26318
1251.988, 28.78516
1252.470, 34.82568
1252.952, 34.59229
1253.435, 27.86670
1253.917, 19.66846
1254.399, 10.68359
1254.881, 10.68457
1255.363, 21.09424
1255.845, 29.32373
1256.327, 27.96289
1256.809, 24.23340
1257.292, 25.04736
1257.774, 27.75684
1258.256, 28.39844
1258.738, 28.87109
1259.220, 31.22412
1259.702, 35.81055
1260.184, 42.89062
1260.666, 49.83447
1261.148, 53.62207
1261.630, 52.74561
1262.113, 48.59570
1262.595, 33.98291
1263.077, 28.60791
1263.559, 44.49805
1264.041, 55.72949
1264.523, 58.30908
1265.005, 56.78857
1265.487, 49.75049
1265.970, 43.60352
1266.452, 36.80176
1266.934, 29.04199
1267.416, 24.45117
1267.898, 22.17139
1268.380, 20.42773
1268.862, 19.58252
1269.344, 18.60986
1269.827, 16.96875
1270.309, 13.13086
1270.791, 7.139648
1271.273, 2.520996
1271.755, 3.911133
1272.237, 7.972656
1272.719, 7.848633
1273.201, 5.916992
1273.683, 5.592285
1274.166, 6.407715
1274.648, 5.785645
1275.130, 5.145020
1275.612, 7.330078
1276.094, 14.49414
1276.576, 19.59473
1277.058, 19.09180
1277.540, 17.12500
1278.022, 14.37598
1278.505, 10.69775
1278.987, 3.605469
1279.469, 1.399414
1279.951, 1.060547
1280.433, 9.022461
1280.915, 13.38135
1281.397, 14.44434
1281.879, 19.17041
1282.362, 28.33203
1282.844, 30.46094
1283.326, 24.93164
1283.808, 18.21191
1284.290, 12.74707
1284.772, 9.309082
1285.254, 4.581543
1285.736, 0.0000000E+00
##END=



