##NAMES=Yuanfuliite
##RRUFFID=R100067
##IDEAL CHEMISTRY=Mg(Fe^3+^,Al)O(BO_3_)
##LOCALITY=La Ceila, near Jumilla, Murcia Province, Spain
##OWNER=RRUFF
##SOURCE=Bob Jenkins
##DESCRIPTION=Sprays of red needles associated with black tabular hematite, colorless plates of sanidine, and yellow bladed crystals of an amphibole R100069, possibly richterite
##STATUS=The identification of this mineral has been confirmed only by single crystal X-ray diffraction.
##URL=rruff.info/R100067
178.2374, 0.0000000E+00
178.7195, 0.2634890
179.2017, 0.6635740
179.6838, 0.9932250
180.1659, 1.023987
180.6480, 0.4704590
181.1301, 0.2537230
181.6122, 3.6681999E-02
182.0944, 1.966309
182.5765, 4.649963
183.0586, 6.091248
183.5407, 6.256531
184.0228, 6.245361
184.5049, 7.169617
184.9871, 8.761902
185.4692, 10.04272
185.9513, 11.10638
186.4334, 11.53058
186.9155, 9.541809
187.3976, 4.894836
187.8798, 0.7130740
188.3619, 0.7480470
188.8440, 4.431702
189.3261, 8.119751
189.8082, 10.85907
190.2903, 12.67975
190.7725, 13.46295
191.2546, 13.06299
191.7367, 12.50110
192.2188, 13.37952
192.7009, 15.59668
193.1830, 16.92590
193.6652, 16.03766
194.1473, 13.38007
194.6294, 11.87115
195.1115, 11.68848
195.5936, 12.04346
196.0757, 11.67798
196.5579, 10.54077
197.0400, 10.14575
197.5221, 11.95044
198.0042, 15.66370
198.4863, 16.11273
198.9684, 12.24701
199.4506, 7.440979
199.9327, 7.396301
200.4148, 12.67682
200.8969, 17.47833
201.3790, 19.04022
201.8611, 17.20050
202.3433, 16.62695
202.8254, 17.63611
203.3075, 19.38556
203.7896, 20.35822
204.2717, 20.39331
204.7538, 20.46716
205.2360, 21.05005
205.7181, 22.20844
206.2002, 23.30798
206.6823, 24.63171
207.1644, 25.55878
207.6465, 24.50092
208.1287, 20.76105
208.6108, 17.52118
209.0929, 16.49109
209.5750, 18.24072
210.0571, 19.13245
210.5392, 18.91925
211.0214, 18.09790
211.5035, 17.71466
211.9856, 17.93195
212.4677, 18.16864
212.9498, 18.13300
213.4319, 17.71729
213.9140, 17.50104
214.3962, 17.58954
214.8783, 17.81226
215.3604, 17.67285
215.8425, 16.88409
216.3246, 16.35663
216.8067, 16.41992
217.2889, 16.95947
217.7710, 18.61438
218.2531, 22.28375
218.7352, 26.59088
219.2173, 28.12329
219.6994, 25.78473
220.1816, 22.74548
220.6637, 20.31183
221.1458, 18.53363
221.6279, 17.23401
222.1100, 16.47974
222.5921, 16.18219
223.0743, 16.20111
223.5564, 16.86774
224.0385, 17.29858
224.5206, 16.93756
225.0027, 15.22424
225.4848, 14.37646
225.9670, 14.65063
226.4491, 15.52637
226.9312, 16.35181
227.4133, 17.25525
227.8954, 18.20331
228.3775, 19.12842
228.8597, 20.27948
229.3418, 21.52191
229.8239, 23.01831
230.3060, 24.64606
230.7881, 25.62567
231.2702, 25.65308
231.7524, 25.70905
232.2345, 26.50146
232.7166, 29.05615
233.1987, 30.09064
233.6808, 29.00043
234.1629, 26.54236
234.6451, 24.73090
235.1272, 23.96490
235.6093, 23.29816
236.0914, 22.18115
236.5735, 20.30438
237.0556, 19.06818
237.5378, 18.72888
238.0199, 18.98181
238.5020, 19.05170
238.9841, 18.93317
239.4662, 18.78265
239.9483, 18.58057
240.4305, 18.23615
240.9126, 17.87775
241.3947, 17.60498
241.8768, 17.27325
242.3589, 16.28058
242.8410, 13.85144
243.3232, 11.91327
243.8053, 11.29242
244.2874, 12.30737
244.7695, 13.96814
245.2516, 16.93488
245.7337, 20.30237
246.2159, 22.03455
246.6980, 21.72528
247.1801, 20.47638
247.6622, 18.50482
248.1443, 15.43970
248.6264, 12.86481
249.1086, 10.76898
249.5907, 9.176392
250.0728, 8.103149
250.5549, 7.509705
251.0370, 7.403503
251.5191, 7.907532
252.0013, 9.331177
252.4834, 10.24390
252.9655, 10.43280
253.4476, 10.20874
253.9297, 10.18207
254.4118, 10.57471
254.8940, 10.70966
255.3761, 10.19659
255.8582, 8.692200
256.3403, 8.015564
256.8224, 8.683594
257.3046, 9.906433
257.7867, 9.963257
258.2688, 8.179321
258.7509, 6.494446
259.2330, 5.425293
259.7151, 4.944885
260.1973, 5.456787
260.6794, 7.633789
261.1615, 10.14734
261.6436, 10.86359
262.1257, 9.142578
262.6078, 7.185242
263.0900, 5.407410
263.5721, 3.738281
264.0542, 3.502930
264.5363, 5.318787
265.0184, 7.803223
265.5005, 9.332153
265.9827, 9.905518
266.4648, 9.366882
266.9469, 7.112610
267.4290, 3.065796
267.9111, 0.9700930
268.3932, 1.303284
268.8754, 2.863953
269.3575, 4.543091
269.8396, 6.599121
270.3217, 7.920837
270.8038, 8.267151
271.2859, 7.656372
271.7681, 5.879150
272.2502, 2.298462
272.7323, 1.120972
273.2144, 2.038879
273.6965, 2.0630000E-02
274.1786, 2.033081
274.6608, 3.674927
275.1429, 4.800415
275.6250, 3.868103
276.1071, 6.1462000E-02
276.5892, 3.459473
277.0714, 2.965332
277.5535, 2.182434
278.0356, 5.352051
278.5177, 4.701660
278.9998, 1.307800
279.4819, 0.2771610
279.9641, 0.2744140
280.4462, 1.257324
280.9283, 1.218872
281.4104, 0.1154170
281.8925, 0.5704350
282.3746, 0.4777830
282.8568, 7.5011998E-02
283.3389, 2.6550001E-02
283.8210, 0.7377320
284.3031, 1.259888
284.7852, 0.8172000
285.2673, 0.5342410
285.7495, 2.222290
286.2316, 4.383301
286.7137, 6.519226
287.1958, 7.382263
287.6779, 6.923889
288.1600, 6.400879
288.6422, 6.955444
289.1243, 8.322876
289.6064, 8.437622
290.0885, 6.911255
290.5706, 4.680542
291.0527, 3.054199
291.5349, 2.033813
292.0170, 1.556335
292.4991, 1.779480
292.9812, 2.563599
293.4633, 3.536926
293.9454, 4.824036
294.4276, 5.777161
294.9097, 5.338867
295.3918, 3.705872
295.8739, 1.882629
296.3560, 1.8310999E-02
296.8381, 1.729187
297.3203, 2.570435
297.8024, 2.517578
298.2845, 1.795898
298.7666, 0.1687620
299.2487, 2.014099
299.7308, 3.751587
300.2130, 4.568909
300.6951, 4.709045
301.1772, 4.510010
301.6593, 3.977966
302.1414, 3.239197
302.6235, 2.209656
303.1057, 1.070984
303.5878, 0.1734620
304.0699, 0.5576170
304.5520, 0.8271480
305.0341, 0.2271120
305.5162, 2.401611
305.9984, 3.997437
306.4805, 2.475220
306.9626, 6.2500000E-02
307.4447, 0.4320070
307.9268, 3.784058
308.4089, 8.327637
308.8911, 9.249084
309.3732, 7.172241
309.8553, 4.685547
310.3374, 2.770081
310.8195, 1.433167
311.3016, 0.7860720
311.7838, 1.080139
312.2659, 1.572876
312.7480, 2.122803
313.2301, 2.534912
313.7122, 2.344666
314.1943, 5.8899000E-02
314.6765, 2.230774
315.1586, 1.980347
315.6407, 1.866577
316.1228, 5.073181
316.6049, 4.976868
317.0870, 2.979614
317.5692, 1.387146
318.0513, 1.255066
318.5334, 1.509644
319.0155, 1.719604
319.4976, 1.865601
319.9797, 1.775635
320.4619, 0.3289790
320.9440, 1.033875
321.4261, 0.6975100
321.9082, 4.403320
322.3903, 8.659668
322.8724, 9.865540
323.3546, 7.901794
323.8367, 6.377014
324.3188, 6.252258
324.8009, 6.686707
325.2830, 7.035095
325.7651, 8.077942
326.2473, 8.124878
326.7294, 6.104370
327.2115, 2.426270
327.6936, 0.2465820
328.1757, 0.7089840
328.6578, 2.038879
329.1400, 3.390015
329.6221, 5.457214
330.1042, 6.556763
330.5863, 6.006714
331.0684, 4.406372
331.5505, 3.649414
332.0327, 4.237000
332.5148, 4.844177
332.9969, 4.891113
333.4790, 3.975769
333.9611, 3.589783
334.4432, 4.006653
334.9254, 4.725647
335.4075, 4.448914
335.8896, 1.940369
336.3717, 0.4910890
336.8538, 1.420227
337.3359, 4.999512
337.8180, 8.063721
338.3001, 10.72900
338.7823, 12.66760
339.2644, 13.30444
339.7465, 12.38611
340.2286, 11.20691
340.7107, 9.912781
341.1928, 8.560608
341.6750, 7.683594
342.1571, 7.204407
342.6392, 7.510925
343.1213, 9.586731
343.6034, 13.39966
344.0855, 15.43817
344.5677, 14.52533
345.0498, 12.08484
345.5319, 11.93750
346.0140, 14.17206
346.4961, 16.20044
346.9782, 15.83112
347.4604, 13.66425
347.9425, 12.76990
348.4246, 13.70502
348.9067, 15.17108
349.3888, 15.08368
349.8709, 13.73932
350.3531, 12.74084
350.8352, 12.88324
351.3173, 13.92664
351.7994, 15.80591
352.2815, 18.61371
352.7636, 21.01312
353.2458, 21.61481
353.7279, 20.84326
354.2100, 19.57074
354.6921, 17.03564
355.1742, 14.82678
355.6563, 15.27972
356.1385, 18.15247
356.6206, 20.69855
357.1027, 20.05585
357.5848, 18.25085
358.0669, 17.76666
358.5490, 19.90131
359.0312, 22.52643
359.5133, 25.16693
359.9954, 27.37750
360.4775, 27.85278
360.9596, 23.25671
361.4417, 18.46948
361.9239, 17.20636
362.4060, 21.39368
362.8881, 25.27356
363.3702, 26.56403
363.8523, 26.13696
364.3344, 25.33496
364.8166, 24.12756
365.2987, 22.94257
365.7808, 21.89832
366.2629, 20.87823
366.7450, 20.45471
367.2271, 22.00635
367.7093, 23.57617
368.1914, 23.44513
368.6735, 18.65021
369.1556, 15.28339
369.6377, 14.84497
370.1198, 16.95215
370.6020, 18.36371
371.0841, 18.84943
371.5662, 18.85767
372.0483, 18.61639
372.5304, 18.16278
373.0125, 17.17346
373.4947, 15.27936
373.9768, 12.99261
374.4589, 11.84424
374.9410, 12.32428
375.4231, 12.94659
375.9052, 13.29901
376.3874, 13.45044
376.8695, 12.47742
377.3516, 9.639709
377.8337, 6.921570
378.3158, 7.423401
378.7979, 11.69440
379.2801, 14.58563
379.7622, 14.11212
380.2443, 11.20081
380.7264, 10.44324
381.2085, 12.09290
381.6906, 14.10645
382.1728, 14.80341
382.6549, 14.33521
383.1370, 13.50641
383.6191, 12.24127
384.1012, 11.04358
384.5833, 10.74481
385.0655, 11.29999
385.5476, 12.31519
386.0297, 14.45654
386.5118, 16.70825
386.9939, 16.82727
387.4760, 14.34772
387.9582, 11.72302
388.4403, 11.18060
388.9224, 12.20105
389.4045, 13.67932
389.8866, 15.74213
390.3687, 17.67554
390.8509, 18.93024
391.3330, 19.49658
391.8151, 19.40991
392.2972, 17.69379
392.7793, 15.77771
393.2614, 15.13147
393.7436, 17.21619
394.2257, 19.07959
394.7078, 19.21381
395.1899, 18.14752
395.6720, 17.26733
396.1541, 17.24237
396.6363, 17.33319
397.1184, 17.29327
397.6005, 17.25952
398.0826, 16.60236
398.5647, 14.50757
399.0468, 11.98883
399.5290, 10.27228
400.0111, 10.36395
400.4932, 10.26624
400.9753, 9.331482
401.4574, 7.565002
401.9395, 6.934875
402.4217, 8.215027
402.9038, 9.796997
403.3859, 10.54718
403.8680, 9.928589
404.3501, 9.780029
404.8322, 10.45319
405.3144, 11.55347
405.7965, 11.91895
406.2786, 11.31268
406.7607, 10.78412
407.2428, 10.93738
407.7249, 11.82379
408.2071, 11.98322
408.6892, 11.26990
409.1713, 10.33374
409.6534, 9.949829
410.1355, 9.997864
410.6176, 9.732483
411.0998, 8.789734
411.5819, 7.643738
412.0640, 7.609619
412.5461, 8.640198
413.0282, 9.569275
413.5103, 9.367188
413.9925, 8.426758
414.4746, 7.429016
414.9567, 6.321533
415.4388, 5.669434
415.9209, 7.060913
416.4030, 9.514099
416.8852, 10.45612
417.3673, 6.722961
417.8494, 2.051270
418.3315, 0.3444820
418.8136, 0.2290040
419.2957, 0.3781130
419.7779, 0.1555180
420.2600, 0.1145020
420.7421, 0.2109380
421.2242, 3.325623
421.7063, 5.445679
422.1884, 4.346252
422.6706, 1.022766
423.1527, 0.7866820
423.6348, 1.579895
424.1169, 4.200317
424.5990, 5.193665
425.0811, 3.434265
425.5633, 2.344727
426.0454, 2.434631
426.5275, 3.092896
427.0096, 3.585693
427.4917, 4.021179
427.9738, 4.084473
428.4560, 3.398193
428.9381, 2.037842
429.4202, 2.014954
429.9023, 3.991699
430.3844, 6.057678
430.8665, 6.608337
431.3487, 5.296387
431.8308, 4.581055
432.3129, 4.833191
432.7950, 5.706543
433.2771, 6.629639
433.7592, 7.600647
434.2414, 8.178162
434.7235, 7.927368
435.2056, 7.036255
435.6877, 6.504456
436.1698, 6.376526
436.6519, 6.446899
437.1341, 6.666443
437.6162, 6.927368
438.0983, 6.888306
438.5804, 6.184509
439.0625, 5.569092
439.5446, 6.540955
440.0268, 8.539001
440.5089, 9.506592
440.9910, 6.756775
441.4731, 3.303833
441.9552, 2.169678
442.4373, 4.160339
442.9195, 5.993286
443.4016, 5.799988
443.8837, 4.579041
444.3658, 3.543579
444.8479, 2.906433
445.3300, 2.658875
445.8122, 3.032654
446.2943, 3.923950
446.7764, 4.502258
447.2585, 4.177124
447.7406, 3.864746
448.2227, 4.075134
448.7049, 5.351685
449.1870, 6.089600
449.6691, 6.044556
450.1512, 5.575623
450.6333, 5.221497
451.1154, 4.977661
451.5976, 4.846191
452.0797, 4.790222
452.5618, 4.821289
453.0439, 5.381592
453.5260, 6.907654
454.0081, 7.790161
454.4903, 6.445618
454.9724, 2.944885
455.4545, 1.206482
455.9366, 2.131104
456.4187, 4.135742
456.9008, 4.440674
457.3830, 3.247925
457.8651, 2.076782
458.3472, 1.620728
458.8293, 1.669739
459.3114, 1.843445
459.7935, 2.138916
460.2757, 2.678772
460.7578, 3.888794
461.2399, 5.305969
461.7220, 6.324890
462.2041, 6.949097
462.6862, 6.877563
463.1684, 4.936707
463.6505, 2.110291
464.1326, 0.7226560
464.6147, 3.975708
465.0968, 7.023132
465.5789, 6.809448
466.0611, 2.578247
466.5432, 0.5720830
467.0253, 1.704956
467.5074, 1.295166
467.9895, 0.2818600
468.4716, 5.300476
468.9538, 8.556885
469.4359, 9.233154
469.9180, 7.935913
470.4001, 6.421875
470.8822, 4.311401
471.3643, 2.723572
471.8465, 2.410645
472.3286, 3.612427
472.8107, 3.506165
473.2928, 1.726563
473.7749, 0.4193730
474.2570, 1.356995
474.7392, 1.091064
475.2213, 0.9603270
475.7034, 1.283875
476.1855, 1.872559
476.6676, 2.831360
477.1497, 4.006165
477.6319, 3.942444
478.1140, 0.1372070
478.5961, 4.952332
479.0782, 6.823608
479.5603, 4.994812
480.0424, 2.481079
480.5246, 1.222412
481.0067, 0.9328000
481.4888, 1.276794
481.9709, 2.728333
482.4530, 4.064087
482.9352, 4.562439
483.4173, 4.416809
483.8994, 4.241272
484.3815, 3.926453
484.8636, 3.885620
485.3457, 4.488586
485.8279, 6.096802
486.3100, 7.063538
486.7921, 6.978394
487.2742, 6.340088
487.7563, 5.581116
488.2384, 4.840881
488.7206, 3.678040
489.2027, 1.656738
489.6848, 0.7572630
490.1669, 1.704834
490.6490, 0.7352290
491.1311, 0.3643800
491.6133, 0.5436400
492.0954, 0.1638790
492.5775, 0.2614140
493.0596, 2.085449
493.5417, 3.925476
494.0238, 3.669800
494.5060, 1.912781
494.9881, 1.665283
495.4702, 4.460022
495.9523, 7.852661
496.4344, 8.016907
496.9165, 5.622131
497.3987, 3.193604
497.8808, 1.505005
498.3629, 0.8100590
498.8450, 1.744507
499.3271, 4.430359
499.8092, 6.904968
500.2914, 8.455261
500.7735, 9.133545
501.2556, 9.030579
501.7377, 7.504517
502.2198, 5.970947
502.7019, 4.462708
503.1841, 3.143250
503.6662, 2.451111
504.1483, 2.738281
504.6304, 3.335938
505.1125, 4.260254
505.5946, 5.622803
506.0768, 6.189758
506.5589, 5.434937
507.0410, 4.404724
507.5231, 4.041016
508.0052, 4.434570
508.4873, 5.237976
508.9695, 6.808411
509.4516, 8.136902
509.9337, 6.229919
510.4158, 1.348083
510.8979, 1.506226
511.3800, 1.371033
511.8622, 7.276245
512.3443, 10.14526
512.8264, 10.05139
513.3085, 8.964172
513.7906, 7.921997
514.2728, 6.940613
514.7549, 6.058533
515.2370, 5.312866
515.7191, 4.579468
516.2012, 3.361450
516.6833, 2.202271
517.1655, 1.917664
517.6476, 4.191895
518.1297, 5.986450
518.6118, 5.766968
519.0939, 3.755554
519.5760, 2.661011
520.0582, 3.744324
520.5403, 5.009338
521.0224, 5.596863
521.5045, 5.289673
521.9866, 4.992981
522.4688, 4.409180
522.9509, 4.023010
523.4330, 4.462280
523.9151, 5.852600
524.3972, 7.396790
524.8793, 9.288086
525.3615, 11.01599
525.8436, 10.41553
526.3257, 7.469360
526.8078, 5.300964
527.2899, 6.617371
527.7720, 9.887268
528.2542, 11.71320
528.7363, 11.93945
529.2184, 11.19867
529.7005, 9.162842
530.1826, 6.760437
530.6647, 5.271301
531.1469, 5.268311
531.6290, 5.834656
532.1111, 6.718933
532.5932, 7.903503
533.0753, 9.195190
533.5574, 11.49329
534.0396, 12.91138
534.5217, 12.23676
535.0038, 9.254761
535.4859, 7.594421
535.9680, 8.641052
536.4501, 10.00171
536.9323, 10.18225
537.4144, 8.288269
537.8965, 7.958313
538.3786, 10.03534
538.8607, 12.62555
539.3428, 12.22150
539.8250, 8.507202
540.3071, 6.500061
540.7892, 8.609314
541.2713, 12.70471
541.7534, 12.67340
542.2355, 8.914856
542.7177, 4.999695
543.1998, 2.705383
543.6819, 1.836975
544.1640, 2.510315
544.6461, 4.803162
545.1282, 6.955017
545.6104, 7.720947
546.0925, 7.640198
546.5746, 7.299438
547.0567, 6.715088
547.5388, 5.979797
548.0209, 4.822937
548.5031, 3.718140
548.9852, 3.451050
549.4673, 5.190186
549.9494, 6.517822
550.4315, 6.941895
550.9136, 6.479553
551.3958, 5.320923
551.8779, 2.743164
552.3600, 0.6794430
552.8421, 0.6317140
553.3242, 2.896484
553.8063, 4.671143
554.2885, 5.947571
554.7706, 6.479370
555.2527, 5.305359
555.7348, 2.787109
556.2169, 1.359375
556.6990, 2.353088
557.1812, 4.079041
557.6633, 3.842407
558.1454, 2.163330
558.6275, 1.000244
559.1096, 2.044983
559.5917, 3.682007
560.0739, 4.687134
560.5560, 4.979309
561.0381, 4.856628
561.5202, 4.430054
562.0023, 3.642029
562.4844, 2.385620
562.9666, 0.5208740
563.4487, 2.112061
563.9308, 1.901123
564.4129, 0.4856570
564.8950, 1.331482
565.3771, 3.726501
565.8593, 6.136536
566.3414, 8.835693
566.8235, 11.38300
567.3056, 11.39362
567.7877, 8.483582
568.2698, 5.757935
568.7520, 5.422119
569.2341, 6.991699
569.7162, 7.124695
570.1983, 5.604858
570.6804, 4.411438
571.1625, 6.248230
571.6447, 9.440979
572.1268, 11.27087
572.6089, 10.89966
573.0910, 9.516418
573.5731, 7.039551
574.0552, 4.225586
574.5374, 2.345398
575.0195, 2.933777
575.5016, 3.429199
575.9837, 2.637268
576.4658, 0.7219240
576.9479, 9.8632999E-02
577.4301, 1.423096
577.9122, 2.625977
578.3943, 2.037476
578.8764, 0.9807130
579.3585, 1.969482
579.8406, 0.3511960
580.3228, 2.003906
580.8049, 2.941650
581.2870, 2.566528
581.7691, 3.201355
582.2512, 5.643738
582.7333, 8.237427
583.2155, 7.862000
583.6975, 5.432678
584.1796, 3.854065
584.6617, 4.901489
585.1439, 7.069031
585.6260, 9.867249
586.1081, 12.90405
586.5902, 14.26440
587.0723, 11.11694
587.5544, 7.551575
588.0366, 6.080811
588.5187, 7.572510
589.0008, 8.567749
589.4829, 8.099548
589.9650, 7.377625
590.4471, 7.398499
590.9293, 8.913208
591.4114, 9.349854
591.8935, 8.098999
592.3756, 6.207703
592.8577, 5.740662
593.3398, 6.799988
593.8220, 7.593018
594.3041, 7.435303
594.7862, 6.718262
595.2683, 6.417969
595.7504, 6.459412
596.2325, 6.290222
596.7147, 5.726135
597.1968, 4.680603
597.6789, 2.488708
598.1610, 0.9245000
598.6431, 3.082153
599.1252, 1.154846
599.6074, 1.798035
600.0895, 3.169128
600.5716, 1.059509
601.0537, 0.1245120
601.5358, 0.9143680
602.0179, 2.982056
602.5001, 4.617188
602.9822, 5.857239
603.4643, 6.500671
603.9464, 6.290710
604.4285, 5.538818
604.9106, 5.411194
605.3928, 5.992371
605.8749, 6.298462
606.3570, 5.261597
606.8391, 3.604126
607.3212, 4.027100
607.8033, 6.444336
608.2855, 9.048706
608.7676, 11.50122
609.2497, 12.84723
609.7318, 10.84332
610.2139, 4.083557
610.6960, 0.6010130
611.1782, 3.233337
611.6603, 9.890381
612.1424, 13.36304
612.6245, 8.173706
613.1066, 4.670715
613.5887, 5.169067
614.0709, 8.013855
614.5530, 10.11005
615.0351, 11.57074
615.5172, 11.90271
615.9993, 10.59515
616.4814, 8.057251
616.9636, 6.491089
617.4457, 5.958191
617.9278, 5.789063
618.4099, 5.598999
618.8920, 5.457947
619.3741, 5.538696
619.8563, 5.851685
620.3384, 6.481934
620.8205, 7.784302
621.3026, 8.916748
621.7847, 9.083435
622.2668, 7.537781
622.7490, 6.782898
623.2311, 9.078064
623.7132, 12.38373
624.1953, 14.10449
624.6774, 12.34662
625.1595, 10.66925
625.6417, 9.019287
626.1238, 7.810791
626.6059, 8.555359
627.0880, 12.16241
627.5701, 14.97284
628.0522, 15.33173
628.5344, 13.85413
629.0165, 13.61987
629.4986, 14.65009
629.9807, 16.11371
630.4628, 18.06274
630.9449, 19.84814
631.4271, 19.68707
631.9092, 17.34442
632.3913, 15.80518
632.8734, 18.77240
633.3555, 22.92426
633.8376, 24.59570
634.3198, 21.31317
634.8019, 18.65637
635.2840, 18.82758
635.7661, 20.17932
636.2482, 20.30939
636.7303, 17.52643
637.2125, 16.28796
637.6946, 18.20300
638.1767, 21.72278
638.6588, 22.35004
639.1409, 19.54962
639.6230, 16.97559
640.1052, 16.38098
640.5873, 16.96375
641.0694, 16.26892
641.5515, 14.39154
642.0336, 12.26044
642.5157, 9.646851
642.9979, 7.607666
643.4800, 7.808838
643.9621, 10.48938
644.4442, 13.08539
644.9263, 14.45575
645.4084, 15.16052
645.8906, 15.78589
646.3727, 16.58862
646.8548, 16.85315
647.3369, 15.35272
647.8190, 13.69330
648.3011, 13.84412
648.7833, 16.64337
649.2654, 18.31689
649.7475, 18.06775
650.2296, 16.65686
650.7117, 15.35022
651.1938, 14.18402
651.6760, 13.79004
652.1581, 14.79730
652.6402, 16.43689
653.1223, 17.97876
653.6044, 19.25391
654.0865, 19.62134
654.5687, 18.20605
655.0508, 16.17511
655.5329, 13.72333
656.0150, 10.82153
656.4971, 9.573547
656.9792, 12.98547
657.4614, 16.39685
657.9435, 17.08557
658.4256, 13.91650
658.9077, 12.02502
659.3898, 11.84247
659.8719, 12.16132
660.3541, 11.34241
660.8362, 9.459778
661.3183, 9.579651
661.8004, 12.65863
662.2825, 15.97076
662.7646, 15.62823
663.2468, 12.67291
663.7289, 9.606873
664.2110, 6.987305
664.6931, 5.142395
665.1752, 4.130615
665.6573, 3.806519
666.1395, 3.880737
666.6216, 4.425110
667.1037, 5.183716
667.5858, 6.411499
668.0679, 7.945618
668.5500, 8.458313
669.0322, 7.552856
669.5143, 6.459534
669.9964, 5.668579
670.4785, 5.159851
670.9606, 4.837280
671.4427, 4.721008
671.9249, 4.474854
672.4070, 3.527039
672.8891, 2.299377
673.3712, 1.655090
673.8533, 1.672974
674.3354, 2.307068
674.8176, 4.550415
675.2997, 6.906006
675.7818, 7.731689
676.2639, 6.100708
676.7460, 4.036804
677.2281, 1.042175
677.7103, 1.676270
678.1924, 2.531433
678.6745, 0.5105590
679.1566, 1.237610
679.6387, 2.434265
680.1208, 3.027222
680.6030, 2.319336
681.0851, 0.3286130
681.5672, 5.3833000E-02
682.0493, 3.293762
682.5314, 7.817505
683.0135, 8.589478
683.4957, 6.443542
683.9778, 4.653931
684.4599, 5.760254
684.9420, 7.226929
685.4241, 7.044800
685.9063, 5.301758
686.3884, 4.181885
686.8705, 5.471497
687.3526, 6.404907
687.8347, 5.492554
688.3168, 2.305237
688.7990, 0.5631100
689.2811, 0.7282100
689.7632, 1.292419
690.2453, 0.8287960
690.7274, 0.5127560
691.2095, 0.6143800
691.6917, 0.7706910
692.1738, 2.529785
692.6559, 3.522095
693.1380, 4.034668
693.6201, 4.664185
694.1022, 5.852051
694.5844, 6.270142
695.0665, 3.963501
695.5486, 0.8352050
696.0307, 0.6789550
696.5128, 1.712524
696.9949, 3.499023
697.4771, 4.112671
697.9592, 3.939941
698.4413, 3.649170
698.9234, 3.190918
699.4055, 2.825928
699.8876, 2.574585
700.3698, 2.519165
700.8519, 3.299072
701.3340, 4.697998
701.8161, 5.203125
702.2982, 3.504272
702.7803, 0.8745120
703.2625, 2.294067
703.7446, 5.515808
704.2267, 6.407471
704.7088, 1.129395
705.1909, 4.302979
705.6730, 6.598511
706.1552, 5.309082
706.6373, 4.255859
707.1194, 3.272705
707.6015, 2.783691
708.0836, 3.308594
708.5657, 4.932617
709.0479, 5.048950
709.5300, 3.322144
710.0121, 2.019531
710.4942, 4.029053
710.9763, 7.891602
711.4584, 10.24023
711.9406, 10.52991
712.4227, 10.01172
712.9048, 9.161743
713.3869, 8.208740
713.8690, 7.439087
714.3511, 7.288330
714.8333, 6.686035
715.3154, 4.511841
715.7975, 2.332886
716.2796, 2.138794
716.7617, 5.253052
717.2438, 6.322144
717.7260, 4.024414
718.2081, 0.5327150
718.6902, 0.1589360
719.1723, 1.635132
719.6544, 3.603516
720.1365, 5.519775
720.6187, 6.496094
721.1008, 4.356567
721.5829, 0.4670410
722.0650, 2.002563
722.5471, 0.9072270
723.0292, 1.102539
723.5114, 3.390503
723.9935, 5.718384
724.4756, 7.274292
724.9577, 8.024170
725.4398, 7.887573
725.9219, 6.133057
726.4041, 3.410034
726.8862, 4.273071
727.3683, 9.129028
727.8504, 13.11108
728.3325, 12.66907
728.8146, 9.738159
729.2968, 8.406372
729.7789, 8.541504
730.2610, 8.633789
730.7431, 7.858887
731.2252, 6.584229
731.7073, 4.767456
732.1895, 2.287964
732.6716, 0.9803470
733.1537, 1.571777
733.6358, 3.064209
734.1179, 5.345581
734.6000, 8.823120
735.0822, 10.29773
735.5643, 9.202148
736.0464, 7.653442
736.5285, 7.904297
737.0106, 9.380005
737.4927, 10.18970
737.9749, 10.12830
738.4570, 9.693970
738.9391, 9.070801
739.4212, 8.457520
739.9033, 8.198486
740.3854, 8.692383
740.8676, 8.748169
741.3497, 7.148193
741.8318, 5.483032
742.3139, 5.499268
742.7960, 8.325439
743.2781, 9.924438
743.7603, 9.787476
744.2424, 8.807983
744.7245, 7.603149
745.2066, 6.137939
745.6887, 6.388184
746.1708, 9.305420
746.6530, 12.66174
747.1351, 14.04211
747.6172, 14.00537
748.0993, 13.52075
748.5814, 12.62793
749.0635, 11.65088
749.5457, 10.44519
750.0278, 9.287476
750.5099, 8.938843
750.9920, 10.25232
751.4741, 10.71362
751.9562, 9.491089
752.4384, 7.457275
752.9205, 7.106812
753.4026, 8.386230
753.8847, 9.143433
754.3668, 8.529785
754.8489, 7.172852
755.3311, 5.627319
755.8132, 4.072388
756.2953, 3.243652
756.7774, 3.977295
757.2595, 5.083252
757.7416, 6.079956
758.2238, 6.974243
758.7059, 7.616577
759.1880, 7.907593
759.6701, 8.062988
760.1522, 7.973022
760.6343, 7.798096
761.1165, 8.572998
761.5986, 10.31860
762.0807, 11.53113
762.5628, 11.62671
763.0449, 10.77148
763.5270, 8.710938
764.0092, 5.890259
764.4913, 4.632202
764.9734, 8.316162
765.4555, 12.19629
765.9376, 13.06335
766.4197, 10.78821
766.9019, 9.345337
767.3840, 9.611450
767.8661, 9.822388
768.3482, 9.159424
768.8303, 7.663452
769.3124, 6.432373
769.7946, 5.485718
770.2767, 4.733521
770.7588, 3.831299
771.2409, 3.208984
771.7230, 3.911255
772.2051, 5.870605
772.6873, 7.524048
773.1694, 8.148926
773.6515, 8.101807
774.1336, 7.163574
774.6157, 4.892212
775.0978, 4.744873
775.5800, 8.594482
776.0621, 12.12427
776.5442, 12.34753
777.0263, 9.098999
777.5084, 7.399536
777.9905, 7.304077
778.4727, 8.073364
778.9548, 10.15393
779.4369, 12.30896
779.9190, 11.54761
780.4011, 7.643311
780.8832, 4.840576
781.3654, 7.069702
781.8475, 10.20776
782.3296, 11.25024
782.8117, 8.823364
783.2938, 6.833496
783.7759, 5.245361
784.2581, 4.470215
784.7402, 5.037842
785.2223, 6.953613
785.7044, 8.608154
786.1865, 10.03064
786.6686, 10.20715
787.1508, 6.192383
787.6329, 0.9916990
788.1150, 0.3240970
788.5971, 3.542603
789.0792, 7.573364
789.5613, 9.572021
790.0435, 10.58655
790.5256, 11.42407
791.0077, 12.05859
791.4898, 12.66113
791.9719, 13.06348
792.4540, 13.69470
792.9362, 15.46289
793.4183, 18.16235
793.9004, 18.95154
794.3825, 17.55542
794.8646, 14.90454
795.3467, 10.11230
795.8289, 5.364990
796.3110, 4.371826
796.7931, 8.997803
797.2752, 11.93372
797.7573, 8.579712
798.2394, 3.776245
798.7216, 1.617188
799.2037, 3.275757
799.6858, 4.725098
800.1679, 6.301392
800.6500, 6.899780
801.1321, 4.088745
801.6143, 0.9964600
802.0964, 2.162476
802.5785, 1.738037
803.0606, 6.081787
803.5427, 6.841431
804.0248, 5.890747
804.5070, 5.198853
804.9891, 5.242676
805.4712, 5.182495
805.9533, 4.883179
806.4354, 4.389648
806.9175, 3.590332
807.3997, 2.207886
807.8818, 1.895264
808.3639, 2.878540
808.8460, 4.285645
809.3281, 5.576538
809.8102, 6.554321
810.2924, 6.605835
810.7745, 5.600586
811.2566, 4.183960
811.7387, 2.263062
812.2208, 0.4924320
812.7029, 0.4787600
813.1851, 0.2133790
813.6672, 0.1315920
814.1493, 0.8562010
814.6314, 1.145508
815.1135, 0.4841310
815.5956, 4.195435
816.0778, 5.719604
816.5599, 4.696655
817.0420, 3.072388
817.5241, 2.445068
818.0062, 2.544556
818.4883, 3.236694
818.9705, 4.650513
819.4526, 5.283569
819.9347, 2.701050
820.4168, 0.3189700
820.8989, 1.293335
821.3810, 7.213623
821.8632, 9.609497
822.3453, 7.210938
822.8274, 4.081787
823.3095, 4.001465
823.7916, 6.226807
824.2737, 6.397827
824.7559, 4.296875
825.2380, 2.137451
825.7201, 1.900024
826.2022, 2.395386
826.6843, 2.516479
827.1664, 2.120728
827.6486, 1.574829
828.1307, 0.5958250
828.6128, 0.1611330
829.0949, 0.5321040
829.5770, 0.5430910
830.0591, 0.9902340
830.5413, 4.350830
831.0234, 7.477783
831.5055, 8.828491
831.9876, 8.865479
832.4697, 8.235474
832.9518, 7.021118
833.4340, 5.855713
833.9161, 4.828979
834.3982, 4.196167
834.8803, 4.336914
835.3624, 5.336792
835.8445, 5.625122
836.3267, 4.635498
836.8088, 4.100586
837.2909, 5.467163
837.7730, 8.089233
838.2551, 7.726440
838.7372, 4.548462
839.2194, 1.116333
839.7015, 2.497314
840.1836, 4.412842
840.6657, 1.370117
841.1478, 5.734253
841.6299, 11.09448
842.1121, 12.94556
842.5942, 12.47827
843.0763, 8.953735
843.5584, 3.355957
844.0405, 1.759155
844.5226, 4.712769
845.0048, 7.599121
845.4869, 8.327271
845.9690, 7.730591
846.4511, 7.264038
846.9332, 6.902588
847.4153, 6.650024
847.8975, 6.778809
848.3796, 6.723511
848.8617, 5.764038
849.3438, 4.383179
849.8259, 4.248535
850.3080, 6.267578
850.7902, 7.568237
851.2723, 7.279541
851.7544, 6.216797
852.2365, 6.586792
852.7186, 8.014404
853.2007, 8.074829
853.6829, 4.916016
854.1650, 1.790405
854.6471, 1.738892
855.1292, 3.389282
855.6113, 4.897217
856.0934, 6.891357
856.5756, 7.635376
857.0577, 5.802734
857.5398, 3.172974
858.0219, 3.057373
858.5040, 5.691650
858.9861, 6.052612
859.4683, 2.649658
859.9504, 1.181030
860.4325, 0.6772460
860.9146, 2.237427
861.3967, 4.603760
861.8788, 5.594604
862.3610, 6.222412
862.8431, 6.896851
863.3252, 7.318848
863.8073, 7.176514
864.2894, 6.193970
864.7715, 5.528198
865.2537, 5.229004
865.7358, 5.177490
866.2179, 5.545776
866.7000, 6.053589
867.1821, 5.688110
867.6642, 4.311401
868.1464, 3.315308
868.6285, 4.171997
869.1106, 5.386353
869.5927, 5.691406
870.0748, 4.654419
870.5569, 4.398438
871.0391, 5.454712
871.5212, 6.427856
872.0033, 6.099121
872.4854, 4.795654
872.9675, 5.355103
873.4496, 7.561646
873.9318, 9.306152
874.4139, 8.788330
874.8960, 7.430054
875.3781, 5.864624
875.8602, 4.336914
876.3423, 4.385864
876.8245, 8.460571
877.3066, 11.71997
877.7887, 12.96228
878.2708, 12.38611
878.7529, 10.23413
879.2350, 6.515381
879.7172, 3.904053
880.1993, 3.965210
880.6814, 5.326782
881.1635, 6.802734
881.6456, 8.160767
882.1277, 8.835449
882.6099, 8.453003
883.0920, 7.566284
883.5741, 6.058594
884.0562, 4.266235
884.5383, 2.526611
885.0204, 0.7294920
885.5026, 0.2703860
885.9847, 0.2298580
886.4668, 0.3350830
886.9489, 0.8460690
887.4310, 1.376465
887.9131, 2.075439
888.3953, 2.893799
888.8774, 3.875732
889.3595, 5.584595
889.8416, 7.107788
890.3237, 7.473022
890.8058, 5.939819
891.2880, 5.472412
891.7701, 6.324585
892.2522, 7.442749
892.7343, 8.153442
893.2164, 8.348022
893.6985, 7.243164
894.1807, 4.814087
894.6628, 3.268677
895.1449, 5.395142
895.6270, 7.786133
896.1091, 7.740967
896.5912, 4.854736
897.0734, 3.737305
897.5555, 4.990723
898.0376, 6.034790
898.5197, 5.550171
899.0018, 4.232544
899.4839, 5.104736
899.9661, 7.773560
900.4482, 9.937256
900.9303, 10.13867
901.4124, 9.623047
901.8945, 9.248047
902.3766, 8.855713
902.8588, 7.738281
903.3409, 5.267700
903.8230, 3.182861
904.3051, 1.716919
904.7872, 0.8823240
905.2693, 0.5426030
905.7515, 0.7828370
906.2336, 2.463623
906.7157, 6.627197
907.1978, 10.05969
907.6799, 8.836914
908.1620, 5.727783
908.6442, 4.076416
909.1263, 5.612793
909.6084, 6.993164
910.0905, 8.909180
910.5726, 9.543091
911.0547, 6.015625
911.5369, 1.054932
912.0190, 4.023682
912.5011, 2.314697
912.9832, 3.4545999E-02
913.4653, 1.321777
913.9474, 3.147949
914.4296, 2.076050
914.9117, 2.373291
915.3938, 5.139771
915.8759, 4.309204
916.3580, 3.406982
916.8401, 3.969482
917.3223, 5.604980
917.8044, 5.796631
918.2865, 4.770386
918.7686, 4.118896
919.2507, 4.749390
919.7328, 5.915649
920.2150, 7.510864
920.6971, 9.050659
921.1792, 9.385376
921.6613, 6.836060
922.1434, 4.808350
922.6255, 3.455566
923.1077, 3.161621
923.5898, 5.437378
924.0719, 10.02820
924.5540, 12.38965
925.0361, 11.21997
925.5182, 9.283081
926.0004, 9.803833
926.4825, 10.93372
926.9646, 10.09143
927.4467, 5.388916
927.9288, 2.815308
928.4109, 4.004517
928.8931, 6.101563
929.3752, 7.143799
929.8573, 7.155884
930.3394, 7.972534
930.8215, 9.592041
931.3036, 10.67444
931.7858, 9.885498
932.2679, 8.367554
932.7500, 7.063477
933.2321, 6.058228
933.7142, 5.329224
934.1964, 5.069458
934.6785, 4.886719
935.1606, 4.757568
935.6427, 4.607422
936.1248, 4.072266
936.6069, 3.190674
937.0891, 2.606934
937.5712, 2.447144
938.0533, 2.589478
938.5354, 3.796387
939.0175, 5.411011
939.4996, 6.442871
939.9818, 6.404785
940.4639, 5.994629
940.9460, 4.761597
941.4281, 3.953247
941.9102, 5.116943
942.3923, 8.030029
942.8745, 11.22583
943.3566, 14.67224
943.8387, 16.12866
944.3208, 11.20398
944.8029, 5.371826
945.2850, 3.973755
945.7672, 7.646973
946.2493, 9.237549
946.7314, 6.881836
947.2135, 4.855347
947.6956, 4.799805
948.1777, 6.322388
948.6599, 8.345825
949.1420, 10.73633
949.6241, 12.72461
950.1062, 14.63269
950.5883, 15.20264
951.0704, 11.85742
951.5526, 6.930908
952.0347, 5.103394
952.5168, 8.741943
952.9989, 11.24121
953.4810, 11.96033
953.9631, 11.71838
954.4453, 11.27600
954.9274, 10.71912
955.4095, 10.27490
955.8916, 9.950928
956.3737, 10.06824
956.8558, 11.73547
957.3380, 13.22058
957.8201, 13.08545
958.3022, 11.17224
958.7843, 9.047852
959.2664, 6.269409
959.7485, 4.734741
960.2307, 6.271851
960.7128, 9.091187
961.1949, 8.371094
961.6770, 5.098877
962.1591, 2.756470
962.6412, 4.530762
963.1234, 5.811279
963.6055, 3.661499
964.0876, 0.2856450
964.5697, 0.4584960
965.0518, 2.169678
965.5339, 4.046997
966.0161, 4.643921
966.4982, 4.559814
966.9803, 4.230347
967.4624, 3.827271
967.9445, 3.571411
968.4266, 3.466431
968.9088, 3.676636
969.3909, 4.759888
969.8730, 5.387939
970.3551, 5.198364
970.8372, 4.254517
971.3193, 2.680786
971.8015, 0.3446040
972.2836, 0.8125000
972.7657, 1.301147
973.2478, 4.143677
973.7299, 4.960205
974.2120, 4.234619
974.6942, 3.207031
975.1763, 0.6234130
975.6584, 0.1600340
976.1405, 3.186890
976.6226, 7.502563
977.1047, 10.02930
977.5869, 10.91187
978.0690, 11.35022
978.5511, 11.47961
979.0332, 11.44678
979.5153, 11.78284
979.9974, 11.74792
980.4796, 10.38879
980.9617, 7.352417
981.4438, 5.206055
981.9259, 4.072021
982.4080, 3.980103
982.8901, 4.802856
983.3723, 6.023804
983.8544, 6.729736
984.3365, 7.066650
984.8186, 7.597290
985.3007, 8.844482
985.7828, 10.21924
986.2650, 11.75513
986.7471, 12.72839
987.2292, 11.56445
987.7113, 7.118530
988.1934, 4.763672
988.6755, 5.129028
989.1577, 6.685303
989.6398, 8.272583
990.1219, 9.659668
990.6040, 10.21924
991.0861, 9.955078
991.5682, 10.14038
992.0504, 12.92065
992.5325, 14.40662
993.0146, 12.49158
993.4967, 7.852295
993.9788, 3.371826
994.4609, 0.9296880
994.9431, 2.719604
995.4252, 0.4556880
995.9073, 4.342163
996.3894, 3.666504
996.8715, 0.7226560
997.3536, 0.7333980
997.8358, 1.856689
998.3179, 3.602661
998.8000, 4.060425
999.2821, 4.132080
999.7642, 4.321533
1000.246, 4.816772
1000.728, 7.314819
1001.211, 11.77905
1001.693, 14.94141
1002.175, 14.05652
1002.657, 11.69666
1003.139, 8.237549
1003.621, 4.408447
1004.103, 4.993042
1004.585, 11.84143
1005.068, 15.86157
1005.550, 13.91370
1006.032, 9.564209
1006.514, 7.788574
1006.996, 7.786743
1007.478, 7.597778
1007.960, 6.571655
1008.442, 5.619385
1008.924, 4.442627
1009.407, 3.980103
1009.889, 5.027832
1010.371, 7.637451
1010.853, 10.59448
1011.335, 14.09180
1011.817, 16.08167
1012.299, 13.86536
1012.781, 10.62439
1013.263, 8.703613
1013.746, 8.230591
1014.228, 9.566895
1014.710, 15.07092
1015.192, 17.87439
1015.674, 16.21362
1016.156, 12.69763
1016.638, 10.99927
1017.120, 10.73816
1017.603, 10.82031
1018.085, 11.11426
1018.567, 11.38489
1019.049, 12.03027
1019.531, 12.10022
1020.013, 10.49255
1020.495, 7.329102
1020.977, 6.148804
1021.459, 7.213867
1021.942, 7.917358
1022.424, 6.734009
1022.906, 4.935303
1023.388, 4.088379
1023.870, 3.873169
1024.352, 3.653687
1024.834, 2.298828
1025.316, 2.508789
1025.799, 5.545288
1026.281, 8.777588
1026.763, 9.416992
1027.245, 7.767212
1027.727, 5.315918
1028.209, 2.228271
1028.691, 0.3474120
1029.173, 1.368408
1029.656, 3.620239
1030.138, 6.875244
1030.620, 10.55151
1031.102, 11.80188
1031.584, 10.01416
1032.066, 7.920044
1032.548, 5.733643
1033.030, 4.611694
1033.512, 7.713745
1033.995, 12.65137
1034.477, 15.20605
1034.959, 14.06323
1035.441, 11.91113
1035.923, 7.800903
1036.405, 4.690186
1036.887, 4.666260
1037.369, 7.264893
1037.851, 8.668457
1038.334, 8.825806
1038.816, 7.392456
1039.298, 1.624146
1039.780, 3.213623
1040.262, 2.774780
1040.744, 0.9038090
1041.226, 3.848877
1041.708, 6.445923
1042.191, 6.182373
1042.673, 2.072632
1043.155, 1.711304
1043.637, 0.8489990
1044.119, 6.052856
1044.601, 6.888428
1045.083, 3.067749
1045.565, 0.3979490
1046.047, 2.229370
1046.530, 4.062378
1047.012, 4.652100
1047.494, 4.167725
1047.976, 2.191895
1048.458, 0.8543700
1048.940, 0.9786380
1049.422, 4.011841
1049.904, 8.561890
1050.386, 7.140625
1050.869, 4.022095
1051.351, 4.042236
1051.833, 8.357178
1052.315, 9.514038
1052.797, 6.764893
1053.279, 4.297363
1053.761, 4.443237
1054.243, 5.986816
1054.726, 7.312378
1055.208, 8.258057
1055.690, 8.609863
1056.172, 7.376709
1056.654, 6.629883
1057.136, 6.659912
1057.618, 7.269653
1058.100, 8.645020
1058.583, 10.53516
1059.065, 11.15125
1059.547, 10.38074
1060.029, 9.113037
1060.511, 7.388184
1060.993, 5.929932
1061.475, 5.858521
1061.957, 6.535767
1062.439, 4.592773
1062.922, 0.8333740
1063.404, 3.111694
1063.886, 0.1398930
1064.368, 4.977295
1064.850, 7.462524
1065.332, 8.068481
1065.814, 7.069214
1066.296, 3.933716
1066.778, 1.925781
1067.261, 2.032837
1067.743, 1.946289
1068.225, 3.5645001E-02
1068.707, 2.746460
1069.189, 2.860718
1069.671, 0.9520260
1070.153, 0.8004150
1070.635, 0.6716310
1071.118, 0.7451170
1071.600, 2.557617
1072.082, 4.684692
1072.564, 5.684448
1073.046, 5.492188
1073.528, 4.216553
1074.010, 1.784668
1074.492, 0.8002930
1074.974, 5.503906
1075.457, 10.66345
1075.939, 11.13989
1076.421, 7.890991
1076.903, 5.577881
1077.385, 4.859497
1077.867, 4.045044
1078.349, 2.718384
1078.831, 1.613525
1079.313, 1.667480
1079.796, 2.647339
1080.278, 4.665771
1080.760, 7.874390
1081.242, 9.443481
1081.724, 6.937500
1082.206, 4.261475
1082.688, 2.609497
1083.170, 1.870117
1083.652, 1.636108
1084.135, 1.977905
1084.617, 3.546631
1085.099, 7.405884
1085.581, 10.33484
1086.063, 9.545044
1086.545, 7.469727
1087.027, 6.545776
1087.509, 7.031982
1087.992, 6.100342
1088.474, 3.613281
1088.956, 2.070190
1089.438, 3.689819
1089.920, 6.441772
1090.402, 9.081055
1090.884, 11.00708
1091.366, 10.69714
1091.849, 5.559814
1092.331, 2.981323
1092.813, 3.742676
1093.295, 5.807739
1093.777, 7.767700
1094.259, 9.306519
1094.741, 9.326050
1095.223, 8.081421
1095.705, 7.710449
1096.188, 11.37732
1096.670, 12.90820
1097.152, 9.684448
1097.634, 4.468262
1098.116, 3.662231
1098.598, 6.465454
1099.080, 6.591553
1099.562, 2.745361
1100.044, 0.1831050
1100.527, 2.611694
1101.009, 5.849365
1101.491, 6.147705
1101.973, 3.919678
1102.455, 2.337524
1102.937, 1.383057
1103.419, 0.9700930
1103.901, 1.149902
1104.384, 1.780273
1104.866, 2.716431
1105.348, 3.993530
1105.830, 5.978882
1106.312, 9.270874
1106.794, 9.791016
1107.276, 6.628784
1107.758, 4.355591
1108.240, 6.794312
1108.723, 10.83582
1109.205, 10.85449
1109.687, 8.173828
1110.169, 5.869995
1110.651, 4.146240
1111.133, 4.401733
1111.615, 8.325928
1112.097, 11.53625
1112.579, 8.338501
1113.062, 1.180786
1113.544, 0.1988530
1114.026, 3.649536
1114.508, 7.306763
1114.990, 7.470947
1115.472, 7.582886
1115.954, 9.210083
1116.436, 11.22009
1116.919, 11.80505
1117.401, 11.04797
1117.883, 10.15295
1118.365, 9.230957
1118.847, 8.557861
1119.329, 8.372559
1119.811, 8.462524
1120.293, 8.807251
1120.776, 9.204102
1121.258, 9.207764
1121.740, 9.228149
1122.222, 9.261597
1122.704, 9.499390
1123.186, 9.511230
1123.668, 8.582153
1124.150, 7.334839
1124.632, 6.518555
1125.115, 6.314697
1125.597, 5.786499
1126.079, 4.984985
1126.561, 3.304932
1127.043, 0.1860350
1127.525, 2.712769
1128.007, 2.909912
1128.489, 1.226074
1128.971, 1.367798
1129.454, 5.599487
1129.936, 7.857422
1130.418, 7.129395
1130.900, 5.858398
1131.382, 5.445557
1131.864, 5.583008
1132.346, 5.208740
1132.828, 4.688843
1133.311, 4.752563
1133.793, 7.176636
1134.275, 8.287964
1134.757, 6.112305
1135.239, 3.713623
1135.721, 4.442993
1136.203, 7.639404
1136.685, 7.221069
1137.167, 3.662354
1137.650, 1.751587
1138.132, 6.313599
1138.614, 10.83850
1139.096, 12.62354
1139.578, 12.42065
1140.060, 10.68506
1140.542, 7.378174
1141.024, 4.824707
1141.506, 3.207153
1141.989, 2.936523
1142.471, 5.699219
1142.953, 8.634033
1143.435, 10.19397
1143.917, 10.18408
1144.399, 7.897461
1144.881, 2.753662
1145.363, 0.2281490
1145.846, 1.642578
1146.328, 3.583130
1146.810, 1.492676
1147.292, 0.9265140
1147.774, 0.6252440
1148.256, 6.311157
1148.738, 9.835205
1149.220, 10.93030
1149.703, 10.34155
1150.185, 7.790771
1150.667, 4.986328
1151.149, 3.367920
1151.631, 3.300781
1152.113, 6.250732
1152.595, 13.29382
1153.077, 15.84998
1153.559, 11.77039
1154.042, 7.661011
1154.524, 5.998657
1155.006, 6.034302
1155.488, 6.865479
1155.970, 8.245605
1156.452, 9.744995
1156.934, 11.48047
1157.416, 12.64929
1157.898, 13.27515
1158.381, 13.19421
1158.863, 12.10620
1159.345, 10.30737
1159.827, 8.213745
1160.309, 6.155273
1160.791, 5.063599
1161.273, 5.699829
1161.755, 6.721802
1162.238, 8.597168
1162.720, 9.836548
1163.202, 8.805542
1163.684, 6.130493
1164.166, 5.103027
1164.648, 5.551147
1165.130, 6.735474
1165.612, 10.55701
1166.094, 12.02771
1166.577, 7.544678
1167.059, 1.984619
1167.541, 2.8809000E-02
1168.023, 1.356079
1168.505, 4.108643
1168.987, 7.936157
1169.469, 10.58911
1169.951, 9.000488
1170.433, 7.933350
1170.916, 11.06604
1171.398, 14.94849
1171.880, 14.78650
1172.362, 10.80786
1172.844, 7.318970
1173.326, 4.692505
1173.808, 3.101318
1174.290, 3.229980
1174.773, 3.922363
1175.255, 4.851929
1175.737, 5.785522
1176.219, 6.342285
1176.701, 6.542358
1177.183, 6.041748
1177.665, 4.783325
1178.147, 3.098022
1178.630, 0.2115480
1179.112, 2.509155
1179.594, 0.8491210
1180.076, 3.310425
1180.558, 5.178345
1181.040, 4.638428
1181.522, 3.964478
1182.004, 3.415649
1182.486, 3.950928
1182.969, 8.759155
1183.451, 13.06360
1183.933, 11.62927
1184.415, 5.501831
1184.897, 3.023193
1185.379, 4.382324
1185.861, 5.562256
1186.343, 5.604980
1186.825, 5.441895
1187.308, 5.878174
1187.790, 6.549316
1188.272, 7.560669
1188.754, 8.802246
1189.236, 7.141968
1189.718, 1.405029
1190.200, 1.972168
1190.682, 0.3485110
1191.165, 2.738159
1191.647, 4.669067
1192.129, 5.312988
1192.611, 3.611328
1193.093, 0.7872310
1193.575, 0.7685550
1194.057, 4.423096
1194.539, 8.328979
1195.021, 7.872192
1195.504, 6.157715
1195.986, 6.889404
1196.468, 8.331177
1196.950, 8.005371
1197.432, 5.253784
1197.914, 3.584351
1198.396, 2.968018
1198.878, 3.678223
1199.360, 6.501465
1199.843, 9.683960
1200.325, 11.59875
1200.807, 12.33691
1201.289, 11.85400
1201.771, 10.02405
1202.253, 7.807007
1202.735, 4.724243
1203.217, 2.481445
1203.700, 1.982910
1204.182, 2.802612
1204.664, 5.753540
1205.146, 9.166016
1205.628, 10.24231
1206.110, 7.819702
1206.592, 6.041626
1207.074, 4.906860
1207.557, 4.209106
1208.039, 3.188721
1208.521, 3.098389
1209.003, 6.733521
1209.485, 11.88574
1209.967, 14.15515
1210.449, 11.46277
1210.931, 11.81177
1211.413, 15.95569
1211.896, 18.36621
1212.378, 12.46069
1212.860, 5.262329
1213.342, 5.022461
1213.824, 8.962646
1214.306, 11.43408
1214.788, 11.92383
1215.270, 11.10388
1215.752, 8.836060
1216.235, 6.620239
1216.717, 5.396118
1217.199, 4.906250
1217.681, 5.453491
1218.163, 6.406616
1218.645, 6.300781
1219.127, 4.855835
1219.609, 3.051514
1220.092, 0.7574460
1220.574, 0.2495120
1221.056, 2.962036
1221.538, 6.732910
1222.020, 7.568970
1222.502, 6.282715
1222.984, 4.987671
1223.466, 3.647217
1223.948, 2.758423
1224.431, 2.319092
1224.913, 2.703979
1225.395, 5.580444
1225.877, 8.127686
1226.359, 7.446777
1226.841, 4.743530
1227.323, 3.327393
1227.805, 3.477661
1228.287, 3.253418
1228.770, 2.519043
1229.252, 2.338989
1229.734, 3.411011
1230.216, 5.348999
1230.698, 9.025146
1231.180, 12.98303
1231.662, 13.49365
1232.144, 10.15979
1232.627, 10.31531
1233.109, 14.73889
1233.591, 18.26489
1234.073, 16.50146
1234.555, 13.12036
1235.037, 9.145752
1235.519, 5.786987
1236.001, 5.777466
1236.484, 9.131348
1236.966, 10.91589
1237.448, 10.89331
1237.930, 10.14294
1238.412, 9.047607
1238.894, 7.826538
1239.376, 6.296875
1239.858, 4.889771
1240.340, 4.236938
1240.823, 4.343018
1241.305, 6.087402
1241.787, 9.414795
1242.269, 10.93311
1242.751, 6.510376
1243.233, 2.080078
1243.715, 0.3919680
1244.197, 0.8269040
1244.679, 2.749268
1245.162, 8.896118
1245.644, 8.126953
1246.126, 0.2047120
1246.608, 5.246582
1247.090, 0.6785890
1247.572, 4.075073
1248.054, 5.468872
1248.536, 5.504761
1249.019, 7.320679
1249.501, 10.35229
1249.983, 13.59814
1250.465, 16.75134
1250.947, 17.95496
1251.429, 14.12976
1251.911, 11.35706
1252.393, 10.98560
1252.875, 11.95068
1253.358, 13.47144
1253.840, 15.02148
1254.322, 15.45984
1254.804, 14.73474
1255.286, 13.24573
1255.768, 10.30908
1256.250, 7.993164
1256.732, 6.571167
1257.214, 6.048584
1257.697, 7.813232
1258.179, 9.749268
1258.661, 7.151611
1259.143, 0.8314210
1259.625, 1.817749
1260.107, 1.652588
1260.589, 4.584106
1261.071, 6.151123
1261.554, 6.530396
1262.036, 4.673218
1262.518, 2.640259
1263.000, 3.433350
1263.482, 2.788208
1263.964, 2.741333
1264.446, 4.468994
1264.928, 3.820068
1265.411, 5.966919
1265.893, 7.866577
1266.375, 5.259766
1266.857, 2.581055
1267.339, 4.437866
1267.821, 9.334351
1268.303, 12.26099
1268.785, 13.15796
1269.267, 12.53357
1269.750, 10.36023
1270.232, 9.163086
1270.714, 12.76318
1271.196, 15.96204
1271.678, 14.92224
1272.160, 11.48059
1272.642, 7.557617
1273.124, 3.410278
1273.606, 3.216431
1274.089, 7.060913
1274.571, 10.23853
1275.053, 8.464355
1275.535, 6.464844
1276.017, 4.403320
1276.499, 2.946411
1276.981, 3.901611
1277.463, 6.327759
1277.946, 6.038208
1278.428, 3.247681
1278.910, 1.442139
1279.392, 3.300659
1279.874, 4.667358
1280.356, 4.572876
1280.838, 4.207520
1281.320, 5.182861
1281.802, 6.316895
1282.285, 6.660522
1282.767, 5.938721
1283.249, 5.103882
1283.731, 4.887085
1284.213, 3.190186
1284.695, 0.8568120
1285.177, 3.758423
1285.659, 1.297729
1286.141, 3.465820
1286.624, 7.553223
1287.106, 10.61499
1287.588, 12.05017
1288.070, 11.99622
1288.552, 9.416992
1289.034, 4.011353
1289.516, 0.1301270
1289.998, 3.057617
1290.481, 6.855713
1290.963, 6.321167
1291.445, 3.430908
1291.927, 1.836182
1292.409, 1.430908
1292.891, 2.815552
1293.373, 5.848633
1293.855, 8.472656
1294.338, 6.611572
1294.820, 5.883301
1295.302, 6.135986
1295.784, 6.583862
1296.266, 7.316284
1296.748, 7.801025
1297.230, 10.07703
1297.712, 12.76111
1298.194, 13.29431
1298.677, 7.830078
1299.159, 4.891846
1299.641, 6.394653
1300.123, 8.401733
1300.605, 7.840332
1301.087, 5.805298
1301.569, 3.780640
1302.051, 1.998291
1302.533, 0.9818120
1303.016, 0.0000000E+00
##END=



