##NAMES=Zalesiite
##RRUFFID=R060228
##IDEAL CHEMISTRY=Cu^2+^_6_Ca(As^5+^O_4_)_2_(As^5+^O_3_OH)(OH)_6_&#183;3H_2_O
##LOCALITY=Hilarion mine, near Kamareza, Laurium, Attica Penninsula, Greece
##OWNER=RRUFF
##SOURCE=Michael Scott
##DESCRIPTION=Radiating light blue acicular crystals
##STATUS=The identification of this mineral is confirmed by single-crystal X-ray diffraction and chemical analysis.
##URL=rruff.info/R060228
##MEASURED CHEMISTRY=(Ca_0.53_La_0.22_Nd_0.14_Y_0.11_)_Σ=1_(Cu^2+^_5.55_Fe_0.25_Zn_0.20_)_Σ=6_(As_1.00_O_4_)_2_(As_1.00_O_3.47_(OH)_0.53_)(OH)_6_·3H_2_O; OH estimated by charge balance; H_2_O by difference;
91.82715, 1389.133
92.30927, 1359.926
92.79138, 1365.523
93.27350, 1394.761
93.75562, 1422.804
94.23773, 1443.598
94.71985, 1459.905
95.20197, 1472.064
95.68408, 1480.245
96.16620, 1485.641
96.64832, 1490.408
97.13043, 1495.250
97.61255, 1499.739
98.09467, 1503.208
98.57678, 1505.705
99.05890, 1503.887
99.54102, 1501.134
100.0231, 1498.596
100.5052, 1496.572
100.9874, 1494.951
101.4695, 1493.615
101.9516, 1492.905
102.4337, 1492.808
102.9158, 1493.173
103.3979, 1494.133
103.8801, 1495.418
104.3622, 1496.551
104.8443, 1497.083
105.3264, 1496.853
105.8085, 1497.450
106.2906, 1499.304
106.7728, 1500.996
107.2549, 1501.551
107.7370, 1500.929
108.2191, 1499.972
108.7012, 1499.412
109.1833, 1499.197
109.6655, 1499.800
110.1476, 1502.116
110.6297, 1505.046
111.1118, 1506.725
111.5939, 1506.251
112.0760, 1505.507
112.5582, 1506.819
113.0403, 1509.979
113.5224, 1512.918
114.0045, 1514.065
114.4866, 1513.517
114.9688, 1513.316
115.4509, 1514.043
115.9330, 1515.138
116.4151, 1516.499
116.8972, 1518.070
117.3793, 1519.393
117.8615, 1519.567
118.3436, 1517.525
118.8257, 1517.004
119.3078, 1519.507
119.7899, 1522.813
120.2720, 1525.232
120.7542, 1526.083
121.2363, 1525.834
121.7184, 1525.839
122.2005, 1526.021
122.6826, 1526.583
123.1647, 1527.998
123.6468, 1529.718
124.1290, 1530.800
124.6111, 1530.592
125.0932, 1529.390
125.5753, 1529.754
126.0574, 1533.123
126.5395, 1536.232
127.0217, 1537.601
127.5038, 1537.434
127.9859, 1536.903
128.4680, 1536.713
128.9501, 1536.887
129.4323, 1537.259
129.9144, 1537.842
130.3965, 1538.626
130.8786, 1539.674
131.3607, 1541.052
131.8428, 1542.423
132.3250, 1543.471
132.8071, 1544.338
133.2892, 1545.239
133.7713, 1546.168
134.2534, 1547.185
134.7355, 1548.577
135.2177, 1550.742
135.6998, 1552.724
136.1819, 1553.880
136.6640, 1554.462
137.1461, 1555.103
137.6282, 1556.391
138.1104, 1558.408
138.5925, 1560.112
139.0746, 1561.613
139.5567, 1562.684
140.0388, 1562.733
140.5209, 1562.040
141.0031, 1561.645
141.4852, 1562.933
141.9673, 1567.049
142.4494, 1569.863
142.9315, 1570.687
143.4136, 1570.958
143.8958, 1571.683
144.3779, 1573.085
144.8600, 1574.627
145.3421, 1575.388
145.8242, 1574.546
146.3063, 1574.494
146.7885, 1575.730
147.2706, 1577.679
147.7527, 1579.798
148.2348, 1581.985
148.7169, 1583.959
149.1990, 1584.871
149.6812, 1584.288
150.1633, 1584.312
150.6454, 1586.006
151.1275, 1588.980
151.6096, 1592.125
152.0917, 1595.509
152.5739, 1598.302
153.0560, 1599.257
153.5381, 1597.760
154.0202, 1596.318
154.5023, 1597.342
154.9844, 1600.954
155.4665, 1604.073
155.9487, 1604.839
156.4308, 1604.940
156.9129, 1605.656
157.3950, 1607.309
157.8771, 1609.510
158.3592, 1611.829
158.8414, 1614.476
159.3235, 1616.648
159.8056, 1618.193
160.2877, 1619.244
160.7698, 1619.717
161.2519, 1619.523
161.7341, 1619.074
162.2162, 1619.615
162.6983, 1622.157
163.1804, 1624.412
163.6625, 1626.110
164.1446, 1627.346
164.6268, 1628.113
165.1089, 1628.369
165.5910, 1628.293
166.0731, 1629.063
166.5552, 1631.833
167.0373, 1634.196
167.5195, 1634.777
168.0016, 1634.599
168.4837, 1635.976
168.9658, 1640.759
169.4479, 1648.534
169.9300, 1652.680
170.4122, 1650.679
170.8943, 1648.294
171.3764, 1648.245
171.8585, 1650.218
172.3406, 1652.230
172.8227, 1652.714
173.3049, 1651.901
173.7870, 1652.126
174.2691, 1654.599
174.7512, 1657.270
175.2333, 1657.964
175.7154, 1656.534
176.1976, 1655.691
176.6797, 1658.292
177.1618, 1663.006
177.6439, 1666.570
178.1260, 1667.498
178.6081, 1667.197
179.0903, 1667.817
179.5724, 1669.671
180.0545, 1671.515
180.5366, 1672.185
181.0187, 1672.351
181.5008, 1673.143
181.9830, 1675.559
182.4651, 1678.912
182.9472, 1680.872
183.4293, 1680.063
183.9114, 1680.024
184.3935, 1682.787
184.8757, 1687.200
185.3578, 1691.295
185.8399, 1693.683
186.3220, 1694.553
186.8041, 1695.879
187.2862, 1698.423
187.7684, 1700.640
188.2505, 1701.680
188.7326, 1702.041
189.2147, 1702.783
189.6968, 1704.849
190.1789, 1708.324
190.6611, 1710.924
191.1432, 1711.655
191.6253, 1712.476
192.1074, 1714.045
192.5895, 1716.243
193.0716, 1718.627
193.5538, 1720.828
194.0359, 1722.855
194.5180, 1724.590
195.0001, 1725.810
195.4822, 1727.004
195.9643, 1728.094
196.4465, 1729.259
196.9286, 1731.145
197.4107, 1734.593
197.8928, 1739.952
198.3749, 1743.439
198.8570, 1744.222
199.3392, 1743.984
199.8213, 1743.123
200.3034, 1741.891
200.7855, 1741.681
201.2676, 1744.267
201.7497, 1749.824
202.2319, 1753.683
202.7140, 1754.293
203.1961, 1753.948
203.6782, 1754.854
204.1603, 1757.291
204.6424, 1760.007
205.1246, 1761.782
205.6067, 1762.858
206.0888, 1764.344
206.5709, 1766.807
207.0530, 1769.673
207.5351, 1772.300
208.0173, 1774.754
208.4994, 1776.612
208.9815, 1776.607
209.4636, 1775.696
209.9457, 1776.012
210.4278, 1779.203
210.9100, 1784.051
211.3921, 1787.755
211.8742, 1789.741
212.3563, 1791.680
212.8384, 1795.046
213.3205, 1799.045
213.8027, 1802.160
214.2848, 1803.006
214.7669, 1802.386
215.2490, 1803.291
215.7311, 1806.700
216.2132, 1810.189
216.6954, 1812.619
217.1775, 1814.409
217.6596, 1816.316
218.1417, 1818.873
218.6238, 1821.926
219.1059, 1824.476
219.5881, 1825.681
220.0702, 1827.443
220.5523, 1830.514
221.0344, 1834.459
221.5165, 1838.740
221.9986, 1843.203
222.4808, 1847.668
222.9629, 1850.344
223.4450, 1848.580
223.9271, 1847.730
224.4092, 1849.443
224.8913, 1852.790
225.3735, 1856.073
225.8556, 1858.148
226.3377, 1859.149
226.8198, 1860.801
227.3019, 1863.638
227.7840, 1866.569
228.2662, 1869.550
228.7483, 1872.443
229.2304, 1874.986
229.7125, 1876.985
230.1946, 1878.511
230.6767, 1880.341
231.1589, 1882.349
231.6410, 1884.745
232.1231, 1887.896
232.6052, 1891.473
233.0873, 1894.976
233.5694, 1898.171
234.0516, 1900.981
234.5337, 1902.726
235.0158, 1902.301
235.4979, 1902.271
235.9800, 1903.313
236.4621, 1905.322
236.9443, 1908.217
237.4264, 1912.171
237.9085, 1916.757
238.3906, 1919.962
238.8727, 1921.201
239.3548, 1922.050
239.8370, 1922.895
240.3191, 1923.735
240.8012, 1924.230
241.2833, 1923.681
241.7654, 1923.357
242.2475, 1927.127
242.7297, 1937.755
243.2118, 1947.286
243.6939, 1951.540
244.1760, 1951.821
244.6581, 1951.889
245.1402, 1953.014
245.6224, 1955.123
246.1045, 1958.160
246.5866, 1962.574
247.0687, 1966.557
247.5508, 1968.895
248.0329, 1969.972
248.5151, 1971.176
248.9972, 1972.928
249.4793, 1975.088
249.9614, 1977.440
250.4435, 1980.024
250.9256, 1982.573
251.4078, 1984.889
251.8899, 1987.030
252.3720, 1989.370
252.8541, 1992.162
253.3362, 1994.962
253.8183, 1997.252
254.3005, 1999.041
254.7826, 2000.776
255.2647, 2002.704
255.7468, 2004.799
256.2289, 2006.880
256.7110, 2008.661
257.1931, 2010.805
257.6753, 2013.966
258.1574, 2017.999
258.6395, 2021.989
259.1216, 2025.243
259.6037, 2027.909
260.0858, 2030.855
260.5680, 2034.310
261.0501, 2037.854
261.5322, 2041.298
262.0143, 2044.630
262.4964, 2047.824
262.9785, 2050.959
263.4607, 2053.971
263.9428, 2056.467
264.4249, 2057.919
264.9070, 2059.597
265.3891, 2062.251
265.8712, 2065.542
266.3534, 2068.766
266.8355, 2071.483
267.3176, 2073.804
267.7997, 2076.189
268.2818, 2078.394
268.7639, 2081.098
269.2461, 2085.030
269.7282, 2089.440
270.2103, 2093.192
270.6924, 2095.591
271.1745, 2097.046
271.6566, 2098.849
272.1388, 2101.140
272.6209, 2103.560
273.1030, 2105.457
273.5851, 2107.592
274.0672, 2111.096
274.5493, 2116.643
275.0315, 2123.105
275.5136, 2127.576
275.9957, 2129.001
276.4778, 2130.328
276.9599, 2131.734
277.4420, 2133.493
277.9242, 2135.851
278.4063, 2138.906
278.8884, 2142.563
279.3705, 2146.881
279.8526, 2152.716
280.3347, 2157.302
280.8169, 2159.567
281.2990, 2161.237
281.7811, 2163.526
282.2632, 2166.745
282.7453, 2170.443
283.2274, 2174.060
283.7096, 2177.841
284.1917, 2180.895
284.6738, 2181.959
285.1559, 2183.340
285.6380, 2186.928
286.1201, 2192.597
286.6023, 2198.409
287.0844, 2201.962
287.5665, 2202.344
288.0486, 2203.956
288.5307, 2207.308
289.0128, 2211.269
289.4950, 2215.738
289.9771, 2220.449
290.4592, 2224.887
290.9413, 2228.626
291.4234, 2231.656
291.9055, 2233.974
292.3877, 2234.017
292.8698, 2234.925
293.3519, 2238.323
293.8340, 2243.422
294.3161, 2248.421
294.7982, 2252.011
295.2804, 2254.343
295.7625, 2257.117
296.2446, 2261.145
296.7267, 2264.784
297.2088, 2267.342
297.6909, 2269.390
298.1731, 2271.894
298.6552, 2275.411
299.1373, 2279.493
299.6194, 2282.383
300.1015, 2282.161
300.5836, 2283.031
301.0658, 2286.197
301.5479, 2290.237
302.0300, 2293.408
302.5121, 2295.048
302.9942, 2296.160
303.4763, 2298.907
303.9585, 2304.504
304.4406, 2310.021
304.9227, 2316.033
305.4048, 2321.579
305.8869, 2325.540
306.3690, 2327.813
306.8512, 2329.701
307.3333, 2333.267
307.8154, 2340.305
308.2975, 2344.052
308.7796, 2341.642
309.2617, 2338.850
309.7439, 2339.439
310.2260, 2343.366
310.7081, 2348.099
311.1902, 2351.136
311.6723, 2352.267
312.1544, 2353.354
312.6366, 2353.476
313.1187, 2354.448
313.6008, 2357.382
314.0829, 2361.805
314.5650, 2366.555
315.0471, 2370.814
315.5293, 2374.603
316.0114, 2378.198
316.4935, 2381.625
316.9756, 2384.848
317.4577, 2387.810
317.9398, 2390.558
318.4220, 2393.186
318.9041, 2395.746
319.3862, 2398.153
319.8683, 2400.158
320.3504, 2401.071
320.8326, 2402.414
321.3147, 2404.591
321.7968, 2407.054
322.2789, 2409.276
322.7610, 2411.070
323.2431, 2412.666
323.7253, 2414.437
324.2074, 2416.516
324.6895, 2418.533
325.1716, 2420.203
325.6537, 2422.040
326.1358, 2424.652
326.6180, 2427.956
327.1001, 2431.172
327.5822, 2433.402
328.0643, 2434.371
328.5464, 2435.775
329.0285, 2438.005
329.5107, 2440.241
329.9928, 2442.123
330.4749, 2443.719
330.9570, 2445.233
331.4391, 2446.780
331.9212, 2448.387
332.4034, 2450.429
332.8855, 2454.276
333.3676, 2457.086
333.8497, 2457.402
334.3318, 2456.575
334.8139, 2456.495
335.2961, 2458.108
335.7782, 2460.953
336.2603, 2463.684
336.7424, 2466.688
337.2245, 2468.952
337.7066, 2469.710
338.1888, 2470.169
338.6709, 2471.348
339.1530, 2473.538
339.6351, 2476.370
340.1172, 2479.499
340.5993, 2483.579
341.0815, 2486.185
341.5636, 2485.672
342.0457, 2485.234
342.5278, 2487.094
343.0099, 2490.934
343.4920, 2494.649
343.9742, 2496.188
344.4563, 2495.414
344.9384, 2494.977
345.4205, 2494.773
345.9026, 2495.062
346.3847, 2495.694
346.8669, 2496.904
347.3490, 2499.458
347.8311, 2504.157
348.3132, 2509.895
348.7953, 2511.913
349.2774, 2507.010
349.7596, 2503.277
350.2417, 2502.142
350.7238, 2502.769
351.2059, 2504.636
351.6880, 2507.534
352.1701, 2510.844
352.6523, 2513.664
353.1344, 2516.144
353.6165, 2517.632
354.0986, 2517.013
354.5807, 2516.219
355.0628, 2516.219
355.5450, 2517.146
356.0271, 2518.706
356.5092, 2520.882
356.9913, 2523.705
357.4734, 2525.989
357.9555, 2527.705
358.4377, 2528.837
358.9198, 2528.988
359.4019, 2528.604
359.8840, 2528.575
360.3661, 2529.539
360.8482, 2531.137
361.3304, 2532.201
361.8125, 2532.341
362.2946, 2532.825
362.7767, 2534.420
363.2588, 2536.413
363.7409, 2538.093
364.2231, 2539.244
364.7052, 2540.108
365.1873, 2540.935
365.6694, 2541.715
366.1515, 2542.550
366.6336, 2543.293
367.1158, 2544.241
367.5979, 2545.554
368.0800, 2547.245
368.5621, 2549.317
369.0442, 2552.219
369.5263, 2555.627
370.0085, 2557.864
370.4906, 2558.367
370.9727, 2558.439
371.4548, 2559.235
371.9369, 2560.307
372.4190, 2560.558
372.9012, 2558.808
373.3833, 2556.511
373.8654, 2555.934
374.3475, 2557.241
374.8296, 2558.963
375.3117, 2560.803
375.7939, 2562.436
376.2760, 2563.406
376.7581, 2563.604
377.2402, 2563.327
377.7223, 2562.219
378.2044, 2560.648
378.6866, 2560.302
379.1687, 2561.864
379.6508, 2564.458
380.1329, 2567.455
380.6150, 2570.862
381.0971, 2573.132
381.5793, 2572.949
382.0614, 2571.674
382.5435, 2571.306
383.0256, 2572.106
383.5077, 2572.935
383.9898, 2572.799
384.4720, 2571.849
384.9541, 2571.355
385.4362, 2571.228
385.9183, 2571.688
386.4004, 2573.345
386.8825, 2575.811
387.3647, 2577.845
387.8468, 2578.922
388.3289, 2579.112
388.8110, 2578.302
389.2931, 2575.511
389.7752, 2573.983
390.2574, 2575.143
390.7395, 2577.586
391.2216, 2580.025
391.7037, 2582.105
392.1858, 2583.243
392.6679, 2582.488
393.1501, 2579.183
393.6322, 2577.489
394.1143, 2578.148
394.5964, 2579.574
395.0785, 2581.153
395.5606, 2582.771
396.0428, 2584.491
396.5249, 2586.465
397.0070, 2588.428
397.4891, 2588.973
397.9712, 2586.029
398.4533, 2584.141
398.9355, 2584.463
399.4176, 2585.769
399.8997, 2586.753
400.3818, 2587.000
400.8639, 2586.930
401.3460, 2587.167
401.8282, 2587.782
402.3103, 2588.514
402.7924, 2589.617
403.2745, 2590.588
403.7566, 2591.142
404.2387, 2591.325
404.7209, 2591.334
405.2030, 2591.282
405.6851, 2591.193
406.1672, 2591.341
406.6493, 2592.487
407.1314, 2592.712
407.6136, 2590.703
408.0957, 2588.034
408.5778, 2586.607
409.0599, 2587.118
409.5420, 2588.282
410.0241, 2587.956
410.5063, 2585.676
410.9884, 2584.472
411.4705, 2586.343
411.9526, 2588.108
412.4347, 2587.563
412.9168, 2585.076
413.3990, 2582.795
413.8811, 2582.260
414.3632, 2583.126
414.8453, 2584.260
415.3274, 2585.934
415.8095, 2587.198
416.2917, 2587.198
416.7738, 2586.579
417.2559, 2586.119
417.7380, 2585.964
418.2201, 2586.113
418.7022, 2586.510
419.1844, 2587.176
419.6665, 2588.471
420.1486, 2591.032
420.6307, 2593.536
421.1128, 2594.047
421.5949, 2592.593
422.0771, 2591.452
422.5592, 2591.939
423.0413, 2592.983
423.5234, 2592.965
424.0055, 2591.708
424.4876, 2590.390
424.9698, 2589.810
425.4519, 2589.947
425.9340, 2590.333
426.4161, 2591.412
426.8982, 2592.259
427.3803, 2592.473
427.8625, 2592.152
428.3446, 2591.351
428.8267, 2590.031
429.3088, 2588.689
429.7909, 2588.213
430.2730, 2589.161
430.7552, 2589.798
431.2373, 2590.293
431.7194, 2590.353
432.2015, 2589.714
432.6836, 2588.414
433.1657, 2586.572
433.6479, 2584.146
434.1300, 2581.266
434.6121, 2579.644
435.0942, 2581.133
435.5763, 2581.739
436.0584, 2579.752
436.5406, 2577.006
437.0227, 2575.771
437.5048, 2576.785
437.9869, 2578.794
438.4690, 2579.799
438.9511, 2579.358
439.4333, 2579.345
439.9154, 2580.948
440.3975, 2581.947
440.8796, 2580.795
441.3617, 2578.135
441.8438, 2575.757
442.3260, 2574.778
442.8081, 2574.995
443.2902, 2576.156
443.7723, 2579.271
444.2544, 2580.777
444.7365, 2577.599
445.2187, 2573.240
445.7008, 2570.951
446.1829, 2571.435
446.6650, 2572.726
447.1471, 2573.223
447.6292, 2573.054
448.1114, 2572.956
448.5935, 2573.005
449.0756, 2573.162
449.5577, 2573.911
450.0398, 2574.837
450.5219, 2574.489
451.0041, 2570.770
451.4862, 2566.841
451.9683, 2566.613
452.4504, 2569.449
452.9325, 2570.744
453.4146, 2567.888
453.8968, 2562.991
454.3789, 2560.980
454.8610, 2562.980
455.3431, 2563.719
455.8252, 2561.046
456.3073, 2557.065
456.7895, 2553.724
457.2716, 2551.406
457.7537, 2550.136
458.2358, 2550.141
458.7179, 2551.429
459.2000, 2551.657
459.6822, 2549.735
460.1643, 2548.206
460.6464, 2548.223
461.1285, 2548.913
461.6106, 2548.933
462.0927, 2547.797
462.5748, 2546.220
463.0569, 2545.485
463.5391, 2546.185
464.0212, 2546.096
464.5033, 2544.651
464.9854, 2542.986
465.4675, 2541.982
465.9496, 2541.211
466.4318, 2539.276
466.9139, 2534.726
467.3960, 2529.068
467.8781, 2527.530
468.3602, 2532.104
468.8423, 2535.601
469.3245, 2535.695
469.8066, 2534.065
470.2887, 2531.236
470.7708, 2527.382
471.2529, 2524.449
471.7350, 2524.548
472.2172, 2526.892
472.6993, 2528.704
473.1814, 2529.983
473.6635, 2530.012
474.1456, 2526.990
474.6277, 2522.391
475.1099, 2519.624
475.5920, 2520.141
476.0741, 2521.407
476.5562, 2521.913
477.0383, 2521.763
477.5204, 2521.304
478.0026, 2520.669
478.4847, 2519.668
478.9668, 2517.969
479.4489, 2515.416
479.9310, 2512.881
480.4131, 2509.595
480.8953, 2507.052
481.3774, 2507.173
481.8595, 2509.092
482.3416, 2509.866
482.8237, 2507.618
483.3058, 2503.443
483.7880, 2501.091
484.2701, 2502.178
484.7522, 2502.882
485.2343, 2503.429
485.7164, 2503.315
486.1985, 2501.827
486.6807, 2499.119
487.1628, 2496.216
487.6449, 2493.872
488.1270, 2492.108
488.6091, 2491.388
489.0912, 2492.877
489.5734, 2493.520
490.0555, 2491.665
490.5376, 2488.928
491.0197, 2487.164
491.5018, 2486.907
491.9839, 2487.175
492.4661, 2487.138
492.9482, 2486.790
493.4303, 2486.074
493.9124, 2484.911
494.3945, 2483.504
494.8766, 2481.820
495.3588, 2479.999
495.8409, 2478.489
496.3230, 2477.706
496.8051, 2476.969
497.2872, 2475.723
497.7693, 2474.050
498.2515, 2472.249
498.7336, 2470.449
499.2157, 2468.538
499.6978, 2466.314
500.1799, 2463.740
500.6620, 2461.021
501.1442, 2457.418
501.6263, 2454.323
502.1084, 2452.851
502.5905, 2452.790
503.0726, 2453.373
503.5547, 2454.239
504.0369, 2455.090
504.5190, 2454.853
505.0011, 2452.832
505.4832, 2450.763
505.9653, 2447.851
506.4474, 2445.567
506.9296, 2445.410
507.4117, 2447.122
507.8938, 2448.974
508.3759, 2449.582
508.8580, 2449.093
509.3401, 2448.359
509.8223, 2447.239
510.3044, 2446.138
510.7865, 2445.522
511.2686, 2444.811
511.7507, 2443.224
512.2328, 2440.548
512.7150, 2438.037
513.1971, 2437.013
513.6792, 2436.890
514.1613, 2435.685
514.6434, 2432.902
515.1255, 2430.419
515.6077, 2430.125
516.0898, 2431.354
516.5719, 2431.107
517.0540, 2428.356
517.5361, 2425.269
518.0182, 2422.158
518.5004, 2419.535
518.9825, 2418.715
519.4646, 2420.011
519.9467, 2421.530
520.4288, 2420.876
520.9109, 2417.549
521.3931, 2415.385
521.8752, 2414.552
522.3573, 2414.453
522.8394, 2415.864
523.3215, 2417.569
523.8036, 2417.539
524.2858, 2415.000
524.7679, 2411.538
525.2500, 2409.801
525.7321, 2410.148
526.2142, 2410.415
526.6964, 2410.898
527.1785, 2410.802
527.6606, 2409.481
528.1427, 2407.334
528.6248, 2405.189
529.1069, 2403.238
529.5891, 2401.701
530.0712, 2401.275
530.5533, 2401.853
531.0354, 2401.632
531.5175, 2399.951
531.9996, 2397.546
532.4818, 2394.480
532.9639, 2390.855
533.4460, 2389.630
533.9281, 2394.194
534.4102, 2399.060
534.8923, 2399.438
535.3745, 2396.337
535.8566, 2393.657
536.3387, 2393.259
536.8208, 2394.116
537.3029, 2394.173
537.7850, 2393.351
538.2672, 2391.800
538.7493, 2388.822
539.2314, 2385.835
539.7135, 2383.676
540.1956, 2382.196
540.6777, 2380.756
541.1599, 2378.957
541.6420, 2377.032
542.1241, 2375.548
542.6062, 2374.496
543.0883, 2373.883
543.5704, 2373.854
544.0526, 2374.171
544.5347, 2375.172
545.0168, 2376.547
545.4989, 2376.966
545.9810, 2375.149
546.4631, 2372.283
546.9453, 2369.853
547.4274, 2367.871
547.9095, 2367.417
548.3916, 2369.777
548.8737, 2372.856
549.3558, 2372.350
549.8380, 2367.607
550.3201, 2364.427
550.8022, 2365.246
551.2843, 2366.993
551.7664, 2367.032
552.2485, 2365.652
552.7307, 2364.566
553.2128, 2364.743
553.6949, 2365.867
554.1770, 2367.204
554.6591, 2370.146
555.1412, 2370.677
555.6234, 2366.187
556.1055, 2361.790
556.5876, 2361.370
557.0697, 2363.883
557.5518, 2365.292
558.0339, 2362.681
558.5161, 2358.098
558.9982, 2356.509
559.4803, 2358.458
559.9624, 2360.293
560.4445, 2361.875
560.9266, 2362.111
561.4088, 2359.234
561.8909, 2353.616
562.3730, 2349.451
562.8551, 2349.556
563.3372, 2350.974
563.8193, 2350.353
564.3015, 2348.066
564.7836, 2346.519
565.2657, 2346.865
565.7478, 2348.189
566.2299, 2348.768
566.7120, 2347.949
567.1942, 2347.986
567.6763, 2349.953
568.1584, 2351.740
568.6405, 2351.988
569.1226, 2351.067
569.6047, 2349.974
570.0869, 2349.216
570.5690, 2348.709
571.0511, 2348.395
571.5332, 2348.444
572.0153, 2347.985
572.4974, 2346.258
572.9796, 2344.695
573.4617, 2344.169
573.9438, 2344.417
574.4259, 2344.750
574.9080, 2345.164
575.3901, 2345.169
575.8723, 2343.700
576.3544, 2341.133
576.8365, 2339.680
577.3186, 2340.176
577.8007, 2341.294
578.2828, 2341.631
578.7650, 2341.130
579.2471, 2340.387
579.7292, 2338.970
580.2113, 2337.757
580.6934, 2337.448
581.1755, 2337.523
581.6577, 2337.215
582.1398, 2336.246
582.6219, 2334.554
583.1040, 2331.705
583.5861, 2327.254
584.0682, 2325.229
584.5504, 2327.555
585.0325, 2330.108
585.5146, 2332.267
585.9967, 2333.693
586.4788, 2333.828
586.9609, 2332.480
587.4431, 2330.676
587.9252, 2329.250
588.4073, 2328.166
588.8894, 2327.266
589.3715, 2326.526
589.8536, 2325.983
590.3358, 2325.581
590.8179, 2325.416
591.3000, 2325.771
591.7821, 2327.007
592.2642, 2328.079
592.7463, 2328.865
593.2285, 2329.182
593.7106, 2328.505
594.1927, 2326.988
594.6748, 2325.646
595.1569, 2325.328
595.6390, 2325.814
596.1212, 2325.915
596.6033, 2325.243
597.0854, 2324.871
597.5675, 2325.934
598.0496, 2326.528
598.5317, 2324.398
599.0139, 2320.211
599.4960, 2317.395
599.9781, 2319.108
600.4602, 2322.812
600.9423, 2323.291
601.4244, 2320.503
601.9066, 2318.385
602.3887, 2318.311
602.8708, 2319.360
603.3529, 2320.806
603.8350, 2322.730
604.3171, 2323.164
604.7993, 2320.296
605.2814, 2317.319
605.7635, 2316.428
606.2456, 2316.944
606.7277, 2317.219
607.2098, 2316.628
607.6920, 2315.772
608.1741, 2315.645
608.6562, 2316.504
609.1383, 2316.667
609.6204, 2314.994
610.1025, 2313.958
610.5847, 2315.091
611.0668, 2317.009
611.5489, 2317.807
612.0310, 2316.940
612.5131, 2315.461
612.9952, 2313.932
613.4774, 2312.568
613.9595, 2312.134
614.4416, 2312.781
614.9237, 2313.809
615.4058, 2314.998
615.8879, 2316.169
616.3701, 2316.788
616.8522, 2316.874
617.3343, 2316.442
617.8164, 2314.849
618.2985, 2313.180
618.7806, 2312.412
619.2628, 2312.503
619.7449, 2312.915
620.2270, 2313.326
620.7091, 2313.699
621.1912, 2314.051
621.6733, 2314.679
622.1555, 2314.340
622.6376, 2311.032
623.1197, 2308.475
623.6018, 2309.588
624.0839, 2313.152
624.5660, 2315.690
625.0482, 2315.673
625.5303, 2314.490
626.0124, 2312.986
626.4945, 2311.427
626.9766, 2310.789
627.4587, 2311.346
627.9409, 2312.561
628.4230, 2314.146
628.9051, 2316.077
629.3872, 2317.053
629.8693, 2317.227
630.3514, 2316.413
630.8336, 2313.476
631.3157, 2310.170
631.7978, 2308.366
632.2799, 2308.208
632.7620, 2308.475
633.2441, 2308.171
633.7263, 2307.444
634.2084, 2306.992
634.6905, 2307.010
635.1726, 2306.367
635.6547, 2303.039
636.1368, 2300.514
636.6190, 2303.762
637.1011, 2312.164
637.5832, 2317.016
638.0653, 2312.416
638.5474, 2306.037
639.0295, 2304.260
639.5117, 2305.808
639.9938, 2307.213
640.4759, 2307.297
640.9580, 2306.597
641.4401, 2305.694
641.9222, 2304.504
642.4044, 2303.890
642.8865, 2304.741
643.3686, 2305.108
643.8507, 2303.416
644.3328, 2301.667
644.8149, 2302.794
645.2971, 2307.010
645.7792, 2310.389
646.2613, 2308.508
646.7434, 2303.670
647.2255, 2301.899
647.7076, 2303.406
648.1898, 2304.876
648.6719, 2304.880
649.1540, 2304.121
649.6361, 2303.841
650.1182, 2304.246
650.6003, 2304.056
651.0825, 2301.435
651.5646, 2299.913
652.0467, 2302.948
652.5288, 2308.163
653.0109, 2311.420
653.4930, 2311.189
653.9752, 2308.509
654.4573, 2303.561
654.9394, 2296.184
655.4215, 2293.752
655.9036, 2298.868
656.3857, 2303.797
656.8679, 2304.720
657.3500, 2303.723
657.8321, 2302.633
658.3142, 2301.484
658.7963, 2301.552
659.2784, 2305.257
659.7606, 2309.237
660.2427, 2309.540
660.7248, 2306.534
661.2069, 2302.314
661.6890, 2297.688
662.1711, 2293.733
662.6533, 2292.579
663.1354, 2295.239
663.6175, 2297.090
664.0996, 2298.143
664.5817, 2298.347
665.0638, 2296.369
665.5460, 2294.056
666.0281, 2294.284
666.5102, 2297.851
666.9923, 2301.645
667.4744, 2302.944
667.9565, 2302.517
668.4387, 2302.375
668.9208, 2302.647
669.4029, 2301.942
669.8850, 2299.132
670.3671, 2295.525
670.8492, 2293.922
671.3314, 2295.282
671.8135, 2296.142
672.2956, 2295.959
672.7777, 2295.748
673.2598, 2296.031
673.7419, 2296.658
674.2241, 2297.369
674.7062, 2298.056
675.1883, 2298.662
675.6704, 2299.595
676.1525, 2300.641
676.6346, 2299.075
677.1168, 2293.729
677.5989, 2289.578
678.0810, 2289.579
678.5631, 2291.958
679.0452, 2293.742
679.5273, 2295.093
680.0095, 2295.178
680.4916, 2292.673
680.9737, 2289.823
681.4558, 2287.961
681.9379, 2287.174
682.4200, 2287.498
682.9022, 2288.926
683.3843, 2290.943
683.8664, 2293.247
684.3485, 2296.016
684.8306, 2296.016
685.3127, 2291.135
685.7949, 2287.245
686.2770, 2287.874
686.7591, 2290.140
687.2412, 2291.117
687.7233, 2290.478
688.2054, 2289.204
688.6876, 2286.809
689.1697, 2284.667
689.6518, 2284.531
690.1339, 2285.968
690.6160, 2287.485
691.0981, 2288.498
691.5803, 2289.101
692.0624, 2289.294
692.5445, 2288.901
693.0266, 2289.640
693.5087, 2293.223
693.9908, 2295.560
694.4730, 2295.386
694.9551, 2293.646
695.4372, 2290.637
695.9193, 2286.612
696.4014, 2283.707
696.8835, 2283.642
697.3657, 2285.089
697.8478, 2286.714
698.3299, 2288.350
698.8120, 2289.410
699.2941, 2289.700
699.7762, 2289.244
700.2584, 2287.870
700.7405, 2285.422
701.2226, 2284.132
701.7047, 2285.256
702.1868, 2286.031
702.6689, 2286.086
703.1511, 2285.512
703.6332, 2283.965
704.1153, 2281.709
704.5974, 2280.076
705.0795, 2279.970
705.5616, 2280.954
706.0438, 2283.057
706.5259, 2285.904
707.0080, 2286.628
707.4901, 2283.985
707.9722, 2281.332
708.4543, 2282.270
708.9365, 2286.714
709.4186, 2290.550
709.9007, 2295.565
710.3828, 2297.644
710.8649, 2294.125
711.3470, 2288.944
711.8292, 2284.349
712.3113, 2281.148
712.7934, 2280.745
713.2755, 2285.067
713.7576, 2290.408
714.2397, 2290.276
714.7219, 2285.566
715.2040, 2282.859
715.6861, 2283.824
716.1682, 2284.886
716.6503, 2282.847
717.1324, 2278.493
717.6146, 2276.199
718.0967, 2277.959
718.5788, 2278.829
719.0609, 2277.813
719.5430, 2276.309
720.0251, 2275.167
720.5073, 2274.389
720.9894, 2273.544
721.4715, 2272.345
721.9536, 2271.573
722.4357, 2272.625
722.9178, 2275.144
723.4000, 2276.969
723.8821, 2277.801
724.3642, 2278.471
724.8463, 2279.562
725.3284, 2280.735
725.8105, 2281.152
726.2927, 2280.811
726.7748, 2279.714
727.2569, 2276.209
727.7390, 2273.593
728.2211, 2274.416
728.7032, 2277.156
729.1854, 2279.122
729.6675, 2279.451
730.1496, 2279.400
730.6317, 2280.310
731.1138, 2281.929
731.5959, 2283.447
732.0781, 2284.882
732.5602, 2285.820
733.0423, 2286.254
733.5244, 2285.819
734.0065, 2283.746
734.4886, 2279.620
734.9708, 2276.324
735.4529, 2273.617
735.9350, 2272.006
736.4171, 2272.322
736.8992, 2273.444
737.3813, 2274.207
737.8635, 2274.412
738.3456, 2274.516
738.8277, 2274.973
739.3098, 2275.437
739.7919, 2275.207
740.2740, 2274.309
740.7562, 2272.737
741.2383, 2270.116
741.7204, 2268.361
742.2025, 2269.833
742.6846, 2274.039
743.1667, 2275.560
743.6489, 2272.073
744.1310, 2269.391
744.6131, 2268.634
745.0952, 2268.489
745.5773, 2268.372
746.0594, 2267.996
746.5416, 2266.670
747.0237, 2263.775
747.5058, 2261.314
747.9879, 2262.185
748.4700, 2265.578
748.9521, 2268.673
749.4343, 2271.187
749.9164, 2273.188
750.3985, 2274.870
750.8806, 2275.791
751.3627, 2274.737
751.8448, 2270.056
752.3270, 2267.690
752.8091, 2270.331
753.2912, 2272.056
753.7733, 2269.536
754.2554, 2265.175
754.7375, 2262.230
755.2197, 2261.423
755.7018, 2261.255
756.1839, 2260.823
756.6660, 2260.235
757.1481, 2259.687
757.6302, 2259.170
758.1124, 2258.505
758.5945, 2257.621
759.0766, 2256.824
759.5587, 2256.438
760.0408, 2256.476
760.5229, 2256.828
761.0051, 2258.047
761.4872, 2258.768
761.9693, 2258.715
762.4514, 2258.224
762.9335, 2257.177
763.4156, 2255.871
763.8978, 2255.186
764.3799, 2255.680
764.8620, 2256.429
765.3441, 2256.504
765.8262, 2256.361
766.3083, 2256.747
766.7905, 2257.773
767.2726, 2259.710
767.7547, 2262.931
768.2368, 2266.147
768.7189, 2265.892
769.2010, 2260.608
769.6832, 2257.662
770.1653, 2258.405
770.6474, 2259.638
771.1295, 2259.938
771.6116, 2259.962
772.0938, 2260.765
772.5759, 2262.556
773.0580, 2263.578
773.5401, 2262.849
774.0222, 2261.386
774.5043, 2259.624
774.9865, 2257.860
775.4686, 2256.559
775.9507, 2255.856
776.4328, 2255.594
776.9149, 2255.673
777.3970, 2256.044
777.8792, 2256.346
778.3613, 2256.467
778.8434, 2257.278
779.3255, 2259.490
779.8076, 2261.624
780.2897, 2262.324
780.7719, 2261.845
781.2540, 2261.297
781.7361, 2260.693
782.2182, 2260.034
782.7003, 2259.486
783.1824, 2258.720
783.6646, 2256.729
784.1467, 2254.367
784.6288, 2253.849
785.1109, 2256.160
785.5930, 2259.326
786.0751, 2261.103
786.5573, 2261.719
787.0394, 2261.891
787.5215, 2261.626
788.0036, 2261.879
788.4857, 2263.304
788.9678, 2264.865
789.4500, 2264.869
789.9321, 2262.960
790.4142, 2262.387
790.8963, 2264.460
791.3784, 2266.108
791.8605, 2265.881
792.3427, 2265.569
792.8248, 2267.199
793.3069, 2270.399
793.7890, 2272.832
794.2711, 2273.190
794.7532, 2272.698
795.2354, 2272.631
795.7175, 2272.559
796.1996, 2271.618
796.6817, 2269.681
797.1638, 2266.700
797.6459, 2262.474
798.1281, 2257.970
798.6102, 2255.569
799.0923, 2255.859
799.5744, 2255.856
800.0565, 2255.629
800.5386, 2255.028
801.0208, 2253.751
801.5029, 2252.215
801.9850, 2250.551
802.4671, 2248.724
802.9492, 2248.320
803.4313, 2250.691
803.9135, 2253.656
804.3956, 2255.662
804.8777, 2257.514
805.3598, 2261.374
805.8419, 2266.875
806.3240, 2270.224
806.8062, 2268.039
807.2883, 2263.027
807.7704, 2261.118
808.2525, 2262.158
808.7346, 2263.052
809.2167, 2263.300
809.6989, 2263.625
810.1810, 2264.699
810.6631, 2266.037
811.1452, 2266.242
811.6273, 2264.655
812.1094, 2263.419
812.5916, 2262.708
813.0737, 2262.147
813.5558, 2262.060
814.0379, 2261.794
814.5200, 2260.006
815.0021, 2256.704
815.4843, 2254.445
815.9664, 2255.139
816.4485, 2257.427
816.9306, 2260.550
817.4127, 2263.911
817.8948, 2266.042
818.3770, 2266.628
818.8591, 2265.915
819.3412, 2263.892
819.8233, 2261.204
820.3054, 2259.962
820.7875, 2260.339
821.2697, 2261.472
821.7518, 2264.231
822.2339, 2266.127
822.7160, 2265.172
823.1981, 2262.647
823.6802, 2260.812
824.1624, 2259.838
824.6445, 2259.031
825.1266, 2258.704
825.6087, 2258.062
826.0908, 2255.634
826.5729, 2253.148
827.0551, 2253.863
827.5372, 2257.696
828.0193, 2260.348
828.5014, 2258.005
828.9835, 2253.545
829.4656, 2251.866
829.9478, 2252.430
830.4299, 2252.578
830.9120, 2251.815
831.3941, 2251.440
831.8762, 2252.543
832.3583, 2254.253
832.8404, 2254.018
833.3225, 2250.415
833.8046, 2248.932
834.2867, 2251.270
834.7689, 2253.516
835.2510, 2254.032
835.7331, 2253.844
836.2152, 2254.285
836.6973, 2255.446
837.1794, 2255.981
837.6616, 2254.661
838.1437, 2253.472
838.6258, 2253.759
839.1079, 2254.856
839.5900, 2256.444
840.0721, 2258.012
840.5543, 2257.929
841.0364, 2254.914
841.5185, 2250.859
842.0006, 2249.048
842.4827, 2249.146
842.9648, 2248.721
843.4470, 2247.442
843.9291, 2247.395
844.4112, 2250.054
844.8933, 2253.546
845.3754, 2254.674
845.8575, 2253.065
846.3397, 2251.423
846.8218, 2248.687
847.3039, 2247.400
847.7860, 2249.311
848.2681, 2251.800
848.7502, 2252.467
849.2324, 2251.677
849.7145, 2251.591
850.1966, 2253.292
850.6787, 2255.029
851.1608, 2256.375
851.6429, 2256.830
852.1251, 2255.113
852.6072, 2251.994
853.0893, 2249.795
853.5714, 2249.512
854.0535, 2250.066
854.5356, 2250.073
855.0178, 2249.769
855.4999, 2250.613
855.9820, 2252.666
856.4641, 2253.407
856.9462, 2251.886
857.4283, 2249.620
857.9105, 2247.929
858.3926, 2246.844
858.8747, 2246.581
859.3568, 2247.946
859.8389, 2248.742
860.3210, 2247.970
860.8032, 2247.563
861.2853, 2249.018
861.7674, 2251.267
862.2495, 2252.364
862.7316, 2251.848
863.2137, 2251.503
863.6959, 2252.410
864.1780, 2253.421
864.6601, 2253.385
865.1422, 2252.928
865.6243, 2253.358
866.1064, 2254.717
866.5886, 2255.643
867.0707, 2255.017
867.5528, 2253.688
868.0349, 2253.214
868.5170, 2253.467
868.9991, 2253.709
869.4813, 2253.864
869.9634, 2253.845
870.4455, 2253.613
870.9276, 2253.200
871.4097, 2252.661
871.8918, 2252.014
872.3740, 2251.244
872.8561, 2249.982
873.3382, 2249.257
873.8203, 2249.631
874.3024, 2250.453
874.7845, 2251.706
875.2667, 2253.074
875.7488, 2253.159
876.2309, 2250.827
876.7130, 2248.665
877.1951, 2247.511
877.6772, 2246.931
878.1594, 2246.173
878.6415, 2245.786
879.1236, 2247.370
879.6057, 2251.299
880.0878, 2255.197
880.5699, 2256.673
881.0521, 2256.756
881.5342, 2256.853
882.0163, 2257.180
882.4984, 2259.094
882.9805, 2262.821
883.4626, 2265.761
883.9448, 2265.655
884.4269, 2263.830
884.9090, 2264.629
885.3911, 2268.988
885.8732, 2270.378
886.3553, 2267.109
886.8375, 2264.074
887.3196, 2263.676
887.8017, 2264.578
888.2838, 2264.863
888.7659, 2264.476
889.2480, 2264.168
889.7302, 2264.586
890.2123, 2264.255
890.6944, 2261.275
891.1765, 2258.713
891.6586, 2259.879
892.1407, 2263.541
892.6229, 2265.771
893.1050, 2264.956
893.5871, 2264.128
894.0692, 2266.012
894.5513, 2268.427
895.0334, 2268.660
895.5156, 2267.336
895.9977, 2266.136
896.4798, 2265.598
896.9619, 2265.503
897.4440, 2265.643
897.9261, 2266.112
898.4083, 2267.255
898.8904, 2269.008
899.3725, 2271.093
899.8546, 2273.624
900.3367, 2274.458
900.8188, 2271.834
901.3010, 2267.932
901.7831, 2267.163
902.2652, 2270.203
902.7473, 2271.975
903.2294, 2271.663
903.7115, 2271.520
904.1937, 2272.696
904.6758, 2273.786
905.1579, 2273.214
905.6400, 2271.486
906.1221, 2270.705
906.6042, 2271.261
907.0864, 2272.540
907.5685, 2275.176
908.0506, 2277.724
908.5327, 2279.451
909.0148, 2280.304
909.4969, 2280.270
909.9791, 2279.375
910.4612, 2277.894
910.9433, 2275.125
911.4254, 2272.718
911.9075, 2272.955
912.3896, 2274.670
912.8718, 2275.341
913.3539, 2274.875
913.8360, 2275.220
914.3181, 2277.535
914.8002, 2280.250
915.2823, 2280.555
915.7645, 2278.865
916.2466, 2278.386
916.7287, 2279.222
917.2108, 2280.098
917.6929, 2280.637
918.1750, 2281.006
918.6572, 2281.334
919.1393, 2281.648
919.6214, 2282.070
920.1035, 2282.287
920.5856, 2283.469
921.0677, 2287.345
921.5499, 2289.899
922.0320, 2287.808
922.5141, 2283.994
922.9962, 2282.340
923.4783, 2283.047
923.9604, 2283.852
924.4426, 2284.308
924.9247, 2284.989
925.4068, 2286.229
925.8889, 2287.666
926.3710, 2288.988
926.8531, 2290.237
927.3353, 2291.753
927.8174, 2293.800
928.2995, 2295.059
928.7816, 2293.544
929.2637, 2291.694
929.7458, 2292.235
930.2280, 2294.506
930.7101, 2297.088
931.1922, 2299.577
931.6743, 2301.911
932.1564, 2304.043
932.6385, 2306.014
933.1207, 2308.382
933.6028, 2310.696
934.0849, 2310.586
934.5670, 2307.969
935.0491, 2305.265
935.5313, 2303.427
936.0134, 2302.786
936.4955, 2304.091
936.9776, 2307.003
937.4597, 2307.821
937.9418, 2305.850
938.4240, 2304.816
938.9061, 2305.539
939.3882, 2306.771
939.8703, 2307.621
940.3524, 2308.533
940.8345, 2310.603
941.3167, 2314.333
941.7988, 2317.321
942.2809, 2319.536
942.7630, 2321.042
943.2451, 2321.557
943.7272, 2321.590
944.2094, 2321.325
944.6915, 2320.914
945.1736, 2320.680
945.6557, 2320.377
946.1378, 2321.073
946.6199, 2324.338
947.1021, 2327.531
947.5842, 2328.911
948.0663, 2328.921
948.5484, 2328.173
949.0305, 2326.914
949.5126, 2325.380
949.9948, 2323.160
950.4769, 2321.789
950.9590, 2323.792
951.4411, 2327.121
951.9232, 2328.239
952.4053, 2327.437
952.8875, 2326.907
953.3696, 2327.499
953.8517, 2328.525
954.3338, 2329.331
954.8159, 2329.970
955.2980, 2330.690
955.7802, 2331.414
956.2623, 2331.433
956.7444, 2330.620
957.2265, 2329.955
957.7086, 2329.915
958.1907, 2330.826
958.6729, 2333.458
959.1550, 2337.852
959.6371, 2342.271
960.1192, 2347.171
960.6013, 2350.073
961.0834, 2349.849
961.5656, 2348.533
962.0477, 2347.547
962.5298, 2346.885
963.0119, 2346.540
963.4940, 2346.491
963.9761, 2346.838
964.4583, 2348.860
964.9404, 2349.586
965.4225, 2346.201
965.9046, 2342.630
966.3867, 2343.501
966.8688, 2347.925
967.3510, 2349.896
967.8331, 2346.362
968.3152, 2344.313
968.7973, 2346.663
969.2794, 2349.460
969.7615, 2350.372
970.2437, 2350.199
970.7258, 2350.146
971.2079, 2350.430
971.6900, 2350.820
972.1721, 2350.994
972.6542, 2351.540
973.1364, 2353.122
973.6185, 2355.049
974.1006, 2356.937
974.5827, 2358.427
975.0648, 2358.615
975.5469, 2357.320
976.0291, 2356.226
976.5112, 2356.953
976.9933, 2358.440
977.4754, 2359.755
977.9575, 2360.560
978.4396, 2359.164
978.9218, 2356.160
979.4039, 2355.658
979.8860, 2359.748
980.3681, 2365.192
980.8502, 2367.829
981.3323, 2368.289
981.8145, 2368.364
982.2966, 2368.188
982.7787, 2369.113
983.2608, 2371.439
983.7429, 2373.559
984.2250, 2374.362
984.7072, 2374.363
985.1893, 2374.655
985.6714, 2375.262
986.1535, 2374.744
986.6356, 2372.500
987.1177, 2372.968
987.5999, 2378.188
988.0820, 2383.965
988.5641, 2386.779
989.0462, 2387.240
989.5283, 2387.372
990.0104, 2387.068
990.4926, 2386.609
990.9747, 2385.123
991.4568, 2385.243
991.9389, 2389.341
992.4210, 2393.767
992.9031, 2393.960
993.3853, 2390.887
993.8674, 2391.219
994.3495, 2398.340
994.8316, 2403.146
995.3137, 2403.829
995.7958, 2404.165
996.2780, 2405.750
996.7601, 2407.696
997.2422, 2408.887
997.7243, 2409.382
998.2064, 2410.196
998.6885, 2411.324
999.1707, 2413.067
999.6528, 2416.226
1000.135, 2419.245
1000.617, 2420.771
1001.099, 2421.673
1001.581, 2423.516
1002.063, 2426.346
1002.545, 2428.293
1003.028, 2427.757
1003.510, 2427.344
1003.992, 2429.047
1004.474, 2431.042
1004.956, 2431.344
1005.438, 2430.663
1005.920, 2430.714
1006.402, 2431.883
1006.885, 2433.160
1007.367, 2433.753
1007.849, 2434.394
1008.331, 2436.053
1008.813, 2438.025
1009.295, 2439.709
1009.777, 2440.739
1010.259, 2439.816
1010.741, 2436.746
1011.224, 2434.830
1011.706, 2437.536
1012.188, 2442.444
1012.670, 2446.575
1013.152, 2449.836
1013.634, 2451.675
1014.116, 2452.344
1014.598, 2452.940
1015.081, 2453.969
1015.563, 2455.956
1016.045, 2460.125
1016.527, 2465.157
1017.009, 2467.615
1017.491, 2467.937
1017.973, 2468.161
1018.455, 2468.588
1018.937, 2468.612
1019.420, 2467.855
1019.902, 2467.884
1020.384, 2471.570
1020.866, 2477.614
1021.348, 2479.156
1021.830, 2476.403
1022.312, 2475.342
1022.794, 2477.032
1023.276, 2479.293
1023.759, 2480.967
1024.241, 2482.251
1024.723, 2483.509
1025.205, 2484.702
1025.687, 2484.840
1026.169, 2483.582
1026.651, 2484.794
1027.133, 2490.246
1027.616, 2492.775
1028.098, 2486.964
1028.580, 2478.062
1029.062, 2475.760
1029.544, 2480.249
1030.026, 2484.014
1030.508, 2487.058
1030.990, 2489.334
1031.473, 2490.488
1031.955, 2491.822
1032.437, 2494.642
1032.919, 2497.607
1033.401, 2497.949
1033.883, 2495.307
1034.365, 2493.668
1034.847, 2492.500
1035.329, 2493.692
1035.812, 2499.129
1036.294, 2504.667
1036.776, 2507.807
1037.258, 2509.244
1037.740, 2510.218
1038.222, 2510.662
1038.704, 2510.998
1039.186, 2510.842
1039.668, 2511.178
1040.151, 2512.944
1040.633, 2514.322
1041.115, 2512.820
1041.597, 2510.668
1042.079, 2512.762
1042.561, 2520.090
1043.043, 2525.023
1043.525, 2526.298
1044.008, 2526.712
1044.490, 2525.871
1044.972, 2525.181
1045.454, 2525.246
1045.936, 2526.145
1046.418, 2528.384
1046.900, 2532.255
1047.382, 2534.698
1047.865, 2534.247
1048.347, 2533.966
1048.829, 2533.856
1049.311, 2534.821
1049.793, 2538.536
1050.275, 2543.254
1050.757, 2546.064
1051.239, 2546.609
1051.721, 2546.306
1052.203, 2543.952
1052.686, 2542.828
1053.168, 2544.842
1053.650, 2547.393
1054.132, 2549.073
1054.614, 2549.893
1055.096, 2549.554
1055.578, 2548.078
1056.060, 2548.202
1056.543, 2551.503
1057.025, 2555.309
1057.507, 2560.184
1057.989, 2563.878
1058.471, 2563.632
1058.953, 2561.717
1059.435, 2562.222
1059.917, 2565.483
1060.400, 2567.288
1060.882, 2563.898
1061.364, 2562.156
1061.846, 2565.802
1062.328, 2570.624
1062.810, 2574.146
1063.292, 2576.519
1063.774, 2577.909
1064.256, 2578.556
1064.739, 2579.872
1065.221, 2583.052
1065.703, 2585.759
1066.185, 2586.915
1066.667, 2587.372
1067.149, 2587.104
1067.631, 2586.890
1068.113, 2587.917
1068.595, 2590.129
1069.078, 2592.261
1069.560, 2594.093
1070.042, 2595.321
1070.524, 2595.141
1071.006, 2595.035
1071.488, 2596.279
1071.970, 2598.106
1072.452, 2599.562
1072.935, 2600.513
1073.417, 2601.084
1073.899, 2601.074
1074.381, 2601.436
1074.863, 2602.369
1075.345, 2604.099
1075.827, 2608.263
1076.309, 2612.307
1076.792, 2612.316
1077.274, 2609.189
1077.756, 2607.444
1078.238, 2608.654
1078.720, 2610.513
1079.202, 2612.513
1079.684, 2614.183
1080.166, 2613.977
1080.648, 2614.231
1081.130, 2618.474
1081.613, 2625.334
1082.095, 2630.326
1082.577, 2632.030
1083.059, 2633.394
1083.541, 2635.748
1084.023, 2638.119
1084.505, 2640.492
1084.987, 2642.173
1085.469, 2641.821
1085.952, 2640.426
1086.434, 2640.164
1086.916, 2641.548
1087.398, 2643.657
1087.880, 2647.480
1088.362, 2650.175
1088.844, 2648.955
1089.326, 2647.341
1089.809, 2648.688
1090.291, 2651.742
1090.773, 2653.693
1091.255, 2654.159
1091.737, 2655.505
1092.219, 2659.574
1092.701, 2663.294
1093.183, 2665.417
1093.666, 2666.845
1094.148, 2668.851
1094.630, 2670.228
1095.112, 2667.983
1095.594, 2662.720
1096.076, 2660.724
1096.558, 2665.751
1097.040, 2670.377
1097.522, 2672.265
1098.005, 2673.028
1098.487, 2672.285
1098.969, 2671.873
1099.451, 2674.792
1099.933, 2680.072
1100.415, 2682.732
1100.897, 2680.129
1101.379, 2679.576
1101.861, 2685.065
1102.344, 2690.276
1102.826, 2692.497
1103.308, 2693.237
1103.790, 2693.787
1104.272, 2694.122
1104.754, 2693.720
1105.236, 2692.222
1105.718, 2691.482
1106.201, 2690.551
1106.683, 2692.169
1107.165, 2698.888
1107.647, 2706.670
1108.129, 2713.742
1108.611, 2719.480
1109.093, 2722.636
1109.575, 2722.987
1110.057, 2723.386
1110.540, 2724.699
1111.022, 2725.163
1111.504, 2723.066
1111.986, 2721.726
1112.468, 2723.927
1112.950, 2727.108
1113.432, 2727.600
1113.914, 2725.572
1114.396, 2724.420
1114.879, 2723.303
1115.361, 2724.544
1115.843, 2729.808
1116.325, 2735.089
1116.807, 2739.370
1117.289, 2742.780
1117.771, 2745.348
1118.253, 2747.192
1118.736, 2748.681
1119.218, 2749.470
1119.700, 2751.084
1120.182, 2753.782
1120.664, 2756.835
1121.146, 2760.354
1121.628, 2763.647
1122.110, 2765.812
1122.593, 2767.874
1123.075, 2772.420
1123.557, 2774.150
1124.039, 2776.095
1124.521, 2780.111
1125.003, 2779.805
1125.485, 2784.277
1125.967, 2788.326
1126.449, 2788.945
1126.932, 2788.603
1127.414, 2790.638
1127.896, 2794.744
1128.378, 2799.401
1128.860, 2804.974
1129.342, 2806.791
1129.824, 2803.856
1130.306, 2802.865
1130.788, 2806.563
1131.271, 2810.683
1131.753, 2811.133
1132.235, 2809.416
1132.717, 2809.181
1133.199, 2810.381
1133.681, 2812.462
1134.163, 2815.391
1134.645, 2818.682
1135.128, 2822.202
1135.610, 2825.144
1136.092, 2826.981
1136.574, 2828.257
1137.056, 2829.260
1137.538, 2830.613
1138.020, 2835.471
1138.502, 2842.641
1138.984, 2846.147
1139.467, 2845.941
1139.949, 2847.198
1140.431, 2851.928
1140.913, 2856.572
1141.395, 2857.423
1141.877, 2856.896
1142.359, 2859.176
1142.841, 2862.865
1143.323, 2865.036
1143.806, 2865.953
1144.288, 2866.823
1144.770, 2868.080
1145.252, 2869.982
1145.734, 2872.623
1146.216, 2876.226
1146.698, 2882.760
1147.180, 2888.782
1147.663, 2889.333
1148.145, 2887.159
1148.627, 2886.485
1149.109, 2887.614
1149.591, 2889.181
1150.073, 2890.735
1150.555, 2892.563
1151.037, 2895.089
1151.520, 2897.672
1152.002, 2899.589
1152.484, 2901.688
1152.966, 2904.747
1153.448, 2908.576
1153.930, 2913.456
1154.412, 2918.999
1154.894, 2922.116
1155.376, 2920.031
1155.859, 2919.033
1156.341, 2922.124
1156.823, 2925.451
1157.305, 2926.591
1157.787, 2927.396
1158.269, 2930.334
1158.751, 2934.617
1159.233, 2937.035
1159.715, 2936.301
1160.198, 2937.729
1160.680, 2943.126
1161.162, 2948.485
1161.644, 2953.035
1162.126, 2957.530
1162.608, 2963.178
1163.090, 2968.279
1163.572, 2969.765
1164.055, 2967.894
1164.537, 2968.554
1165.019, 2972.866
1165.501, 2976.032
1165.983, 2977.202
1166.465, 2979.208
1166.947, 2983.470
1167.429, 2987.502
1167.911, 2988.745
1168.394, 2988.876
1168.876, 2993.063
1169.358, 3001.336
1169.840, 3003.571
1170.322, 2999.672
1170.804, 2997.451
1171.286, 2998.382
1171.768, 3002.102
1172.250, 3008.553
1172.733, 3015.775
1173.215, 3021.882
1173.697, 3026.303
1174.179, 3025.983
1174.661, 3022.906
1175.143, 3024.577
1175.625, 3030.257
1176.107, 3034.114
1176.590, 3034.755
1177.072, 3035.279
1177.554, 3037.612
1178.036, 3041.110
1178.518, 3045.544
1179.000, 3050.277
1179.482, 3055.143
1179.964, 3059.331
1180.447, 3061.309
1180.929, 3061.471
1181.411, 3060.948
1181.893, 3060.200
1182.375, 3061.048
1182.857, 3066.297
1183.339, 3071.084
1183.821, 3071.958
1184.303, 3071.989
1184.786, 3072.809
1185.268, 3074.835
1185.750, 3079.157
1186.232, 3085.119
1186.714, 3089.337
1187.196, 3090.450
1187.678, 3091.892
1188.160, 3093.466
1188.642, 3096.421
1189.125, 3101.533
1189.607, 3107.723
1190.089, 3115.694
1190.571, 3123.371
1191.053, 3126.922
1191.535, 3126.403
1192.017, 3125.885
1192.499, 3125.104
1192.982, 3125.364
1193.464, 3127.121
1193.946, 3128.762
1194.428, 3129.478
1194.910, 3130.923
1195.392, 3134.797
1195.874, 3139.827
1196.356, 3142.881
1196.839, 3144.110
1197.321, 3145.509
1197.803, 3147.085
1198.285, 3149.568
1198.767, 3152.930
1199.249, 3155.194
1199.731, 3155.504
1200.213, 3157.091
1200.695, 3163.901
1201.177, 3172.272
1201.660, 3175.756
1202.142, 3176.639
1202.624, 3179.567
1203.106, 3183.806
1203.588, 3186.557
1204.070, 3187.776
1204.552, 3190.173
1205.034, 3195.224
1205.517, 3198.696
1205.999, 3196.410
1206.481, 3192.995
1206.963, 3190.097
1207.445, 3189.218
1207.927, 3192.560
1208.409, 3198.505
1208.891, 3204.919
1209.374, 3211.154
1209.856, 3215.192
1210.338, 3214.572
1210.820, 3215.808
1211.302, 3220.988
1211.784, 3226.679
1212.266, 3232.914
1212.748, 3237.894
1213.230, 3239.947
1213.713, 3240.113
1214.195, 3240.183
1214.677, 3240.137
1215.159, 3241.575
1215.641, 3244.803
1216.123, 3248.393
1216.605, 3252.425
1217.087, 3255.821
1217.569, 3258.191
1218.052, 3259.598
1218.534, 3259.821
1219.016, 3260.163
1219.498, 3264.237
1219.980, 3264.957
1220.462, 3272.318
1220.944, 3270.716
1221.426, 3272.684
1221.909, 3278.498
1222.391, 3284.282
1222.873, 3288.523
1223.355, 3292.117
1223.837, 3295.374
1224.319, 3299.148
1224.801, 3304.603
1225.283, 3310.803
1225.766, 3317.541
1226.248, 3323.711
1226.730, 3327.587
1227.212, 3329.461
1227.694, 3330.546
1228.176, 3330.999
1228.658, 3332.572
1229.140, 3337.369
1229.622, 3341.099
1230.104, 3340.719
1230.587, 3340.944
1231.069, 3345.331
1231.551, 3350.987
1232.033, 3354.663
1232.515, 3356.867
1232.997, 3359.655
1233.479, 3363.500
1233.961, 3364.976
1234.444, 3362.505
1234.926, 3364.562
1235.408, 3373.605
1235.890, 3382.537
1236.372, 3388.083
1236.854, 3390.622
1237.336, 3389.934
1237.818, 3388.051
1238.301, 3390.816
1238.783, 3396.786
1239.265, 3400.601
1239.747, 3402.456
1240.229, 3403.813
1240.711, 3405.191
1241.193, 3407.415
1241.675, 3410.836
1242.157, 3414.196
1242.640, 3415.880
1243.122, 3417.917
1243.604, 3422.148
1244.086, 3427.536
1244.568, 3433.366
1245.050, 3439.489
1245.532, 3447.074
1246.014, 3454.910
1246.496, 3457.918
1246.979, 3453.789
1247.461, 3451.123
1247.943, 3451.809
1248.425, 3453.391
1248.907, 3455.776
1249.389, 3458.474
1249.871, 3461.446
1250.353, 3464.358
1250.836, 3466.665
1251.318, 3468.770
1251.800, 3472.556
1252.282, 3474.308
1252.764, 3480.824
1253.246, 3480.076
1253.728, 3481.970
1254.210, 3487.475
1254.693, 3494.312
1255.175, 3501.403
1255.657, 3506.885
1256.139, 3508.604
1256.621, 3508.672
1257.103, 3509.280
1257.585, 3511.076
1258.067, 3515.679
1258.549, 3521.953
1259.031, 3528.138
1259.514, 3533.892
1259.996, 3539.429
1260.478, 3544.819
1260.960, 3549.089
1261.442, 3551.534
1261.924, 3553.226
1262.406, 3552.594
1262.888, 3553.612
1263.371, 3559.739
1263.853, 3567.382
1264.335, 3573.634
1264.817, 3578.310
1265.299, 3580.590
1265.781, 3580.211
1266.263, 3581.906
1266.745, 3586.046
1267.228, 3590.375
1267.710, 3594.671
1268.192, 3599.533
1268.674, 3605.281
1269.156, 3609.268
1269.638, 3609.181
1270.120, 3607.502
1270.602, 3607.566
1271.084, 3609.370
1271.567, 3613.137
1272.049, 3618.558
1272.531, 3626.581
1273.013, 3635.232
1273.495, 3639.023
1273.977, 3637.483
1274.459, 3636.359
1274.941, 3638.030
1275.423, 3641.214
1275.906, 3646.389
1276.388, 3651.571
1276.870, 3655.820
1277.352, 3659.796
1277.834, 3664.778
1278.316, 3669.406
1278.798, 3671.063
1279.280, 3670.419
1279.763, 3671.460
1280.245, 3673.944
1280.727, 3678.136
1281.209, 3684.594
1281.691, 3692.349
1282.173, 3701.291
1282.655, 3709.503
1283.137, 3716.091
1283.620, 3721.424
1284.102, 3725.600
1284.584, 3728.081
1285.066, 3728.372
##END=



