##NAMES=Zektzerite
##RRUFFID=R070485
##IDEAL CHEMISTRY=NaLiZr^4+^Si_6_O_15_
##LOCALITY=Washington Pass, Golden Horn Batholith, Okanogan County, Washington, USA
##OWNER=RRUFF
##SOURCE=Michael Scott
##DESCRIPTION=Pale pink to colorless hexagonal prismatic crystal fragments
##STATUS=The identification of this mineral has been confirmed by X-ray diffraction and chemical analysis
##URL=rruff.info/R070485
##MEASURED CHEMISTRY=Na_1.00_Li_1.00_(Zr_0.97_Ti_0.02_Hf_0.01_)_Î£=1_Si_6.00_O_15_; trace amounts of Al and Fe; Li_2_O estimated by difference
172.5040, 0.0000000E+00
172.9861, 73.65625
173.4682, 120.9844
173.9503, 52.80078
174.4325, 0.4218750
174.9146, 19.62891
175.3967, 90.03906
175.8788, 172.8516
176.3609, 248.4648
176.8430, 317.6367
177.3252, 383.2891
177.8073, 418.0000
178.2894, 467.2188
178.7715, 568.6445
179.2536, 689.7109
179.7357, 777.7539
180.2179, 785.9414
180.7000, 725.7695
181.1821, 716.8398
181.6642, 840.6055
182.1463, 936.9766
182.6284, 965.1953
183.1106, 942.1992
183.5927, 913.5117
184.0748, 911.5117
184.5569, 928.7305
185.0390, 937.6836
185.5211, 924.5234
186.0033, 901.2188
186.4854, 876.4609
186.9675, 853.3203
187.4496, 821.6289
187.9317, 778.6211
188.4138, 742.3398
188.8960, 768.8984
189.3781, 934.0820
189.8602, 1071.836
190.3423, 1136.410
190.8244, 1182.984
191.3065, 1202.910
191.7887, 1165.254
192.2708, 1088.238
192.7529, 1031.461
193.2350, 1052.613
193.7171, 1043.312
194.1992, 973.7891
194.6814, 871.1172
195.1635, 772.9141
195.6456, 697.5547
196.1277, 637.4141
196.6098, 567.1562
197.0919, 460.3086
197.5741, 375.8555
198.0562, 336.3125
198.5383, 315.7734
199.0204, 282.1367
199.5025, 221.9180
199.9846, 147.0430
200.4668, 88.23828
200.9489, 51.78125
201.4310, 27.20703
201.9131, 23.80078
202.3952, 29.29688
202.8773, 31.39844
203.3595, 25.52344
203.8416, 13.51953
204.3237, 0.7304690
204.8058, 19.53906
205.2879, 38.78125
205.7701, 72.60156
206.2522, 101.2734
206.7343, 98.92578
207.2164, 59.27344
207.6985, 7.292969
208.1806, 14.71094
208.6628, 24.58594
209.1449, 43.39453
209.6270, 47.48438
210.1091, 30.32031
210.5912, 21.10156
211.0733, 107.0547
211.5554, 205.7383
212.0376, 289.3281
212.5197, 356.8047
213.0018, 405.3008
213.4839, 416.4648
213.9660, 422.6133
214.4481, 446.1914
214.9303, 490.9609
215.4124, 546.9453
215.8945, 601.4727
216.3766, 648.5156
216.8587, 719.9844
217.3408, 836.4414
217.8230, 958.8164
218.3051, 1060.227
218.7872, 1141.457
219.2693, 1224.320
219.7514, 1332.234
220.2335, 1474.305
220.7157, 1589.297
221.1978, 1667.883
221.6799, 1735.066
222.1620, 1799.129
222.6441, 1862.152
223.1262, 1929.523
223.6084, 2009.781
224.0905, 2105.266
224.5726, 2148.816
225.0547, 2080.988
225.5368, 2031.250
226.0189, 2066.453
226.5011, 2160.160
226.9832, 2241.332
227.4653, 2258.789
227.9474, 2221.012
228.4295, 2225.352
228.9116, 2331.570
229.3938, 2411.152
229.8759, 2411.039
230.3580, 2387.344
230.8401, 2378.023
231.3222, 2416.152
231.8043, 2491.379
232.2865, 2558.672
232.7686, 2603.863
233.2507, 2656.789
233.7328, 2726.520
234.2149, 2802.766
234.6970, 2873.234
235.1792, 2932.055
235.6613, 2981.859
236.1434, 3029.434
236.6255, 3073.348
237.1076, 3117.609
237.5897, 3160.742
238.0719, 3203.672
238.5540, 3249.465
239.0361, 3299.195
239.5182, 3345.965
240.0003, 3376.875
240.4824, 3391.500
240.9646, 3391.344
241.4467, 3371.012
241.9288, 3340.922
242.4109, 3297.598
242.8930, 3248.617
243.3751, 3218.219
243.8573, 3246.883
244.3394, 3366.586
244.8215, 3429.410
245.3036, 3403.297
245.7857, 3358.059
246.2678, 3328.441
246.7500, 3314.543
247.2321, 3297.988
247.7142, 3261.207
248.1963, 3202.980
248.6784, 3136.938
249.1605, 3060.043
249.6427, 2977.742
250.1248, 2874.172
250.6069, 2766.672
251.0890, 2691.223
251.5711, 2678.238
252.0532, 2719.316
252.5354, 2738.992
253.0175, 2725.793
253.4996, 2701.914
253.9817, 2663.684
254.4638, 2618.875
254.9459, 2576.844
255.4281, 2543.219
255.9102, 2514.879
256.3923, 2483.988
256.8744, 2444.680
257.3565, 2411.930
257.8386, 2409.164
258.3207, 2402.379
258.8029, 2354.102
259.2850, 2251.305
259.7671, 2122.645
260.2492, 2008.344
260.7313, 1897.887
261.2134, 1832.297
261.6956, 1889.340
262.1777, 1940.469
262.6598, 1882.285
263.1419, 1704.934
263.6240, 1504.914
264.1061, 1387.535
264.5883, 1362.922
265.0704, 1364.891
265.5525, 1448.539
266.0346, 1503.645
266.5167, 1451.578
266.9988, 1310.168
267.4810, 1163.984
267.9631, 1083.445
268.4452, 1063.551
268.9273, 1034.285
269.4094, 993.0430
269.8915, 941.3203
270.3737, 868.9336
270.8558, 788.1914
271.3379, 724.8555
271.8200, 697.5781
272.3021, 694.1836
272.7842, 686.0039
273.2664, 669.2148
273.7485, 656.2031
274.2306, 656.9609
274.7127, 662.7930
275.1948, 661.4258
275.6769, 644.9258
276.1591, 627.2422
276.6412, 633.7695
277.1233, 667.1406
277.6054, 676.1406
278.0875, 610.1953
278.5696, 530.9570
279.0518, 519.4180
279.5339, 596.5742
280.0160, 676.7773
280.4981, 694.9414
280.9802, 662.6367
281.4623, 630.4688
281.9445, 607.7539
282.4266, 595.2539
282.9087, 596.8164
283.3908, 612.5469
283.8729, 625.5430
284.3550, 638.2812
284.8372, 641.9414
285.3193, 611.1211
285.8014, 535.0781
286.2835, 463.9375
286.7656, 459.0742
287.2477, 510.5195
287.7299, 527.8438
288.2120, 476.6953
288.6941, 401.6875
289.1762, 337.2930
289.6583, 285.2070
290.1404, 237.6992
290.6226, 189.5703
291.1047, 142.3555
291.5868, 102.9492
292.0689, 75.19922
292.5510, 50.47656
293.0331, 26.60547
293.5153, 3.179688
293.9974, 23.35938
294.4795, 56.99219
294.9616, 88.31641
295.4437, 91.55078
295.9258, 45.43359
296.4080, 8.718750
296.8901, 13.71484
297.3722, 21.69531
297.8543, 3.046875
298.3364, 42.93750
298.8185, 80.57422
299.3007, 54.23047
299.7828, 84.83984
300.2649, 138.5977
300.7470, 28.07422
301.2291, 93.53906
301.7112, 134.9844
302.1934, 96.91016
302.6755, 25.85938
303.1576, 43.29297
303.6397, 111.3555
304.1218, 151.5742
304.6039, 145.4766
305.0861, 132.5078
305.5682, 118.1953
306.0503, 104.6641
306.5324, 90.67578
307.0145, 74.40234
307.4966, 63.96484
307.9788, 90.91406
308.4609, 213.6367
308.9430, 270.8789
309.4251, 204.8711
309.9072, 96.14844
310.3893, 7.101563
310.8715, 44.61328
311.3536, 68.96875
311.8357, 77.68359
312.3178, 70.27344
312.7999, 49.26562
313.2820, 5.605469
313.7642, 57.00000
314.2463, 83.04297
314.7284, 87.00391
315.2105, 88.93750
315.6926, 110.2383
316.1747, 143.9961
316.6569, 142.7188
317.1390, 66.93750
317.6211, 31.44531
318.1032, 145.3164
318.5853, 328.7617
319.0674, 444.6250
319.5496, 416.9336
320.0317, 334.5977
320.5138, 308.2031
320.9959, 338.9336
321.4780, 405.9453
321.9601, 524.0547
322.4423, 659.8203
322.9244, 765.1367
323.4065, 836.0625
323.8886, 882.5000
324.3707, 880.4023
324.8528, 856.3789
325.3350, 894.7969
325.8171, 1030.090
326.2992, 1192.629
326.7813, 1290.641
327.2634, 1324.602
327.7455, 1370.070
328.2277, 1460.887
328.7098, 1557.195
329.1919, 1612.500
329.6740, 1627.168
330.1561, 1644.656
330.6382, 1703.582
331.1204, 1798.867
331.6025, 1853.574
332.0846, 1834.469
332.5667, 1817.594
333.0488, 1829.809
333.5309, 1865.031
334.0131, 1911.480
334.4951, 1964.301
334.9773, 2022.477
335.4594, 2082.961
335.9415, 2142.145
336.4236, 2210.148
336.9057, 2295.668
337.3878, 2384.336
337.8700, 2463.406
338.3521, 2531.605
338.8342, 2597.918
339.3163, 2670.895
339.7984, 2748.906
340.2805, 2840.121
340.7627, 2993.059
341.2448, 3109.969
341.7269, 3125.750
342.2090, 3082.176
342.6911, 3062.336
343.1732, 3116.527
343.6554, 3224.906
344.1375, 3333.414
344.6196, 3455.379
345.1017, 3543.980
345.5838, 3551.262
346.0659, 3540.754
346.5481, 3575.734
347.0302, 3673.184
347.5123, 3776.414
347.9944, 3814.121
348.4765, 3791.578
348.9586, 3809.410
349.4408, 3909.641
349.9229, 4023.094
350.4050, 4091.281
350.8871, 4121.711
351.3692, 4151.680
351.8513, 4203.254
352.3335, 4260.684
352.8156, 4295.504
353.2977, 4306.262
353.7798, 4325.469
354.2619, 4380.281
354.7440, 4456.695
355.2262, 4505.785
355.7083, 4511.492
356.1904, 4508.312
356.6725, 4517.820
357.1546, 4533.375
357.6367, 4532.145
358.1189, 4501.469
358.6010, 4460.633
359.0831, 4438.867
359.5652, 4446.395
360.0473, 4455.184
360.5294, 4493.555
361.0116, 4511.195
361.4937, 4441.168
361.9758, 4299.234
362.4579, 4180.520
362.9400, 4173.934
363.4221, 4276.453
363.9043, 4316.141
364.3864, 4248.020
364.8685, 4167.625
365.3506, 4069.309
365.8327, 3975.074
366.3148, 3922.301
366.7970, 3929.523
367.2791, 3960.219
367.7612, 3942.789
368.2433, 3857.941
368.7254, 3782.566
369.2076, 3736.691
369.6897, 3692.523
370.1718, 3637.812
370.6539, 3572.363
371.1360, 3500.699
371.6181, 3421.898
372.1003, 3337.578
372.5824, 3254.711
373.0645, 3181.371
373.5466, 3092.750
374.0287, 2948.277
374.5108, 2786.762
374.9930, 2669.562
375.4751, 2633.609
375.9572, 2612.105
376.4393, 2539.441
376.9214, 2424.598
377.4035, 2323.961
377.8857, 2259.883
378.3678, 2208.668
378.8499, 2128.652
379.3320, 2014.816
379.8141, 1917.867
380.2962, 1862.977
380.7784, 1820.867
381.2605, 1755.949
381.7426, 1667.266
382.2247, 1587.652
382.7068, 1548.594
383.1889, 1545.871
383.6711, 1495.527
384.1532, 1338.242
384.6353, 1209.953
385.1174, 1154.422
385.5995, 1146.203
386.0816, 1161.379
386.5638, 1189.074
387.0459, 1206.996
387.5280, 1170.957
388.0101, 1047.055
388.4922, 952.7227
388.9743, 909.2969
389.4565, 875.4102
389.9386, 823.3711
390.4207, 761.1680
390.9028, 717.1523
391.3849, 715.2148
391.8670, 746.2852
392.3492, 785.0312
392.8313, 852.0586
393.3134, 875.9141
393.7955, 773.0820
394.2776, 639.2930
394.7597, 581.1289
395.2419, 632.9023
395.7240, 696.4219
396.2061, 674.8242
396.6882, 593.0312
397.1703, 568.4219
397.6524, 648.3672
398.1346, 729.1914
398.6167, 677.4219
399.0988, 511.8477
399.5809, 399.7891
400.0630, 403.7539
400.5451, 441.9648
401.0273, 457.1758
401.5094, 451.3945
401.9915, 447.6953
402.4736, 462.8945
402.9557, 479.8516
403.4378, 446.9102
403.9200, 293.6992
404.4021, 185.9688
404.8842, 153.8086
405.3663, 156.3047
405.8484, 163.3789
406.3305, 167.5156
406.8127, 171.3281
407.2948, 177.5039
407.7769, 185.8789
408.2590, 193.2578
408.7411, 221.3438
409.2232, 220.1211
409.7054, 136.4336
410.1875, 29.35938
410.6696, 13.19922
411.1517, 49.07812
411.6338, 148.4492
412.1159, 188.2188
412.5981, 164.2656
413.0802, 145.2891
413.5623, 149.1641
414.0444, 156.7266
414.5265, 149.4727
415.0086, 129.8555
415.4908, 113.3672
415.9729, 113.9062
416.4550, 117.3945
416.9371, 97.12500
417.4192, 53.80859
417.9013, 29.08594
418.3835, 53.62891
418.8656, 108.1797
419.3477, 130.1523
419.8298, 105.7656
420.3119, 78.33594
420.7940, 64.80859
421.2762, 50.36719
421.7583, 3.195313
422.2404, 75.86719
422.7225, 133.8516
423.2046, 106.2383
423.6867, 18.55078
424.1689, 91.86719
424.6510, 88.26953
425.1331, 61.96484
425.6152, 1.851563
426.0973, 64.52734
426.5794, 98.94141
427.0616, 84.49219
427.5437, 45.40625
428.0258, 21.53516
428.5079, 17.32031
428.9900, 1.714844
429.4721, 33.00781
429.9543, 76.52344
430.4364, 126.4531
430.9185, 179.6562
431.4006, 225.3008
431.8827, 253.1094
432.3648, 272.1562
432.8469, 292.1719
433.3290, 313.0430
433.8112, 345.1641
434.2933, 396.0195
434.7754, 458.8945
435.2575, 515.7734
435.7396, 556.2188
436.2217, 618.9414
436.7039, 731.5430
437.1860, 861.8594
437.6681, 985.4688
438.1502, 1094.875
438.6323, 1175.738
439.1144, 1215.070
439.5966, 1214.371
440.0787, 1194.016
440.5608, 1090.672
441.0429, 1040.875
441.5250, 1117.539
442.0071, 1235.363
442.4893, 1291.414
442.9714, 1257.613
443.4535, 1196.992
443.9356, 1190.688
444.4177, 1243.426
444.8998, 1281.336
445.3820, 1291.758
445.8641, 1297.500
446.3462, 1307.379
446.8283, 1322.312
447.3104, 1345.773
447.7925, 1375.168
448.2747, 1410.348
448.7568, 1461.719
449.2389, 1525.309
449.7210, 1574.031
450.2031, 1601.953
450.6852, 1607.688
451.1674, 1583.863
451.6495, 1522.824
452.1316, 1458.273
452.6137, 1402.016
453.0958, 1348.707
453.5779, 1282.152
454.0601, 1213.184
454.5422, 1177.762
455.0243, 1200.125
455.5064, 1256.863
455.9885, 1274.230
456.4706, 1227.078
456.9528, 1182.359
457.4349, 1155.070
457.9170, 1124.293
458.3991, 1058.207
458.8812, 968.0430
459.3633, 908.0977
459.8455, 947.1055
460.3276, 1051.879
460.8097, 1088.789
461.2918, 1034.668
461.7739, 988.9570
462.2560, 1004.703
462.7382, 1046.840
463.2203, 1070.402
463.7024, 1070.230
464.1845, 1064.527
464.6666, 1062.043
465.1487, 1059.496
465.6309, 1049.828
466.1130, 1033.461
466.5951, 1026.703
467.0772, 1047.207
467.5593, 1091.797
468.0414, 1109.094
468.5236, 1071.422
469.0057, 1043.141
469.4878, 1047.457
469.9699, 1060.824
470.4520, 1062.750
470.9341, 1047.293
471.4163, 1012.418
471.8984, 941.7148
472.3805, 828.8359
472.8626, 787.4727
473.3447, 863.5781
473.8268, 949.9727
474.3090, 1004.332
474.7911, 1038.574
475.2732, 1072.340
475.7553, 1112.387
476.2374, 1153.363
476.7195, 1195.250
477.2017, 1232.586
477.6838, 1245.219
478.1659, 1223.656
478.6480, 1199.305
479.1301, 1210.590
479.6122, 1254.742
480.0944, 1253.211
480.5765, 1172.832
481.0586, 1081.977
481.5407, 1011.414
482.0228, 950.4102
482.5049, 882.9805
482.9871, 803.9922
483.4692, 723.1250
483.9513, 650.2773
484.4334, 580.7969
484.9155, 542.1875
485.3976, 581.8789
485.8798, 605.8281
486.3619, 561.6094
486.8440, 484.6875
487.3261, 441.4023
487.8082, 467.4766
488.2903, 509.9297
488.7725, 491.5703
489.2546, 416.4102
489.7367, 355.0898
490.2188, 323.0195
490.7009, 307.9219
491.1830, 305.0781
491.6652, 311.2305
492.1473, 304.8984
492.6294, 278.3203
493.1115, 242.9180
493.5936, 195.7891
494.0757, 145.7344
494.5579, 115.4180
495.0400, 113.9883
495.5221, 125.0586
496.0042, 123.7500
496.4863, 109.9727
496.9684, 83.37500
497.4506, 11.89453
497.9327, 39.30469
498.4148, 28.96094
498.8969, 18.29297
499.3790, 55.77344
499.8611, 62.03516
500.3433, 50.38672
500.8254, 39.57422
501.3075, 29.55469
501.7896, 11.79297
502.2717, 19.83203
502.7538, 52.54297
503.2360, 72.46094
503.7181, 82.98438
504.2002, 98.75391
504.6823, 145.9023
505.1644, 177.6562
505.6465, 146.1953
506.1287, 77.58984
506.6108, 33.58203
507.0929, 36.12500
507.5750, 61.93359
508.0571, 82.24609
508.5392, 107.3789
509.0214, 84.03516
509.5035, 53.72656
509.9856, 167.5078
510.4677, 198.1680
510.9498, 174.8281
511.4319, 143.9336
511.9141, 122.5938
512.3962, 109.6016
512.8783, 104.9727
513.3604, 108.5078
513.8425, 116.1016
514.3246, 136.3945
514.8068, 142.8477
515.2889, 92.20312
515.7710, 7.503906
516.2531, 36.58594
516.7352, 13.94531
517.2173, 61.27734
517.6995, 41.16406
518.1816, 13.95703
518.6637, 48.14453
519.1458, 46.63281
519.6279, 27.05078
520.1100, 8.218750
520.5922, 10.02734
521.0743, 25.02344
521.5564, 29.05469
522.0385, 38.32812
522.5206, 69.68750
523.0027, 101.8828
523.4849, 107.0039
523.9670, 77.39062
524.4491, 36.92969
524.9312, 2.855469
525.4133, 23.57422
525.8954, 36.64062
526.3776, 36.69922
526.8597, 19.83984
527.3418, 25.95703
527.8239, 89.30859
528.3060, 133.2109
528.7881, 150.8398
529.2703, 161.0898
529.7524, 170.1992
530.2345, 175.1602
530.7166, 153.7812
531.1987, 115.4648
531.6808, 126.3242
532.1630, 257.3555
532.6451, 474.4180
533.1272, 543.7461
533.6093, 351.3086
534.0914, 218.3242
534.5735, 244.8320
535.0557, 319.4648
535.5378, 357.6758
536.0199, 353.7773
536.5020, 352.5156
536.9841, 400.6484
537.4662, 460.6367
537.9484, 453.9258
538.4305, 383.2578
538.9126, 340.4883
539.3947, 378.0312
539.8768, 444.7695
540.3589, 440.0391
540.8411, 329.7812
541.3232, 247.7969
541.8053, 201.0469
542.2874, 183.8477
542.7695, 213.1562
543.2516, 267.5664
543.7338, 301.9688
544.2159, 293.0938
544.6980, 261.4375
545.1801, 240.5430
545.6622, 228.8828
546.1443, 242.2227
546.6265, 311.2656
547.1086, 367.6016
547.5907, 349.5469
548.0728, 285.5977
548.5549, 249.6328
549.0370, 271.3867
549.5192, 310.4023
550.0013, 338.0352
550.4834, 362.0547
550.9655, 404.7852
551.4476, 470.4531
551.9297, 532.0625
552.4119, 561.2227
552.8940, 557.5039
553.3761, 555.4258
553.8582, 537.1523
554.3403, 542.2617
554.8224, 611.3984
555.3046, 683.2695
555.7867, 690.2461
556.2688, 629.7031
556.7509, 564.9062
557.2330, 547.8047
557.7151, 562.8672
558.1973, 567.9141
558.6794, 562.0977
559.1615, 554.1875
559.6436, 548.0039
560.1257, 540.9961
560.6078, 530.0977
561.0900, 516.3164
561.5721, 501.5078
562.0542, 476.0078
562.5363, 455.9727
563.0184, 469.0703
563.5005, 503.8906
563.9827, 518.4609
564.4648, 487.6406
564.9469, 436.5000
565.4290, 415.6797
565.9111, 426.5469
566.3932, 466.1680
566.8754, 588.0039
567.3575, 682.3242
567.8396, 643.5703
568.3217, 527.4688
568.8038, 465.4727
569.2859, 516.2812
569.7681, 580.1211
570.2502, 582.0000
570.7323, 549.6055
571.2144, 535.3242
571.6965, 548.7773
572.1786, 572.4453
572.6608, 592.3984
573.1429, 606.9180
573.6250, 610.6328
574.1071, 583.3750
574.5892, 580.5000
575.0714, 628.8789
575.5535, 682.4727
576.0356, 700.5469
576.5177, 684.6602
576.9998, 667.7070
577.4819, 674.3516
577.9641, 691.4375
578.4462, 697.0469
578.9283, 690.8828
579.4104, 669.6797
579.8925, 626.5352
580.3746, 582.7383
580.8567, 566.1836
581.3388, 581.3711
581.8209, 601.3398
582.3030, 634.5039
582.7852, 662.6406
583.2673, 676.2109
583.7494, 680.7461
584.2315, 682.9922
584.7136, 686.3203
585.1957, 693.5195
585.6779, 718.4258
586.1600, 755.8281
586.6421, 729.0469
587.1242, 608.6445
587.6063, 508.9062
588.0884, 503.4062
588.5706, 540.7031
589.0527, 527.2031
589.5348, 442.1211
590.0169, 390.3320
590.4990, 418.6523
590.9811, 480.5664
591.4633, 551.4258
591.9454, 617.8828
592.4275, 654.9141
592.9096, 648.0664
593.3917, 615.1914
593.8738, 590.6484
594.3560, 573.6562
594.8381, 568.4805
595.3202, 585.1992
595.8023, 600.8555
596.2844, 601.4102
596.7665, 592.9922
597.2487, 590.3594
597.7308, 603.8555
598.2129, 603.8086
598.6950, 530.5234
599.1771, 444.8047
599.6592, 480.2852
600.1414, 639.5430
600.6235, 762.3086
601.1056, 724.7773
601.5877, 576.0625
602.0698, 522.4805
602.5519, 649.6875
603.0341, 714.6016
603.5162, 654.5781
603.9983, 575.8008
604.4804, 529.0938
604.9625, 517.1875
605.4446, 536.0312
605.9268, 602.5156
606.4089, 665.5664
606.8910, 661.9531
607.3731, 607.2070
607.8552, 548.6953
608.3373, 494.7188
608.8195, 456.8750
609.3016, 449.2578
609.7837, 468.9180
610.2658, 478.3359
610.7479, 480.6602
611.2300, 468.0977
611.7122, 418.3242
612.1943, 369.2852
612.6764, 356.0508
613.1585, 376.2266
613.6406, 401.6484
614.1227, 414.9102
614.6049, 422.5547
615.0870, 437.2227
615.5691, 458.0039
616.0512, 476.7305
616.5333, 494.3281
617.0154, 496.4570
617.4976, 457.3789
617.9797, 374.6797
618.4618, 342.5898
618.9439, 389.8516
619.4260, 446.5898
619.9081, 516.3320
620.3903, 573.5039
620.8724, 576.4102
621.3545, 529.3711
621.8366, 495.9336
622.3187, 540.3672
622.8008, 623.7109
623.2830, 637.6797
623.7651, 580.3086
624.2472, 529.9258
624.7293, 508.3203
625.2114, 506.2109
625.6935, 516.6016
626.1757, 540.9336
626.6578, 562.8555
627.1399, 604.4648
627.6220, 619.2539
628.1041, 558.0430
628.5862, 477.1523
629.0684, 453.7188
629.5505, 497.5117
630.0326, 547.0938
630.5147, 542.5156
630.9968, 502.9805
631.4789, 497.3242
631.9611, 529.3359
632.4432, 566.1289
632.9253, 607.2148
633.4074, 634.6523
633.8895, 615.9609
634.3716, 548.8359
634.8538, 503.9453
635.3359, 493.3867
635.8180, 497.9062
636.3001, 528.0156
636.7822, 559.2539
637.2643, 548.5781
637.7465, 492.9336
638.2286, 444.1328
638.7107, 456.4609
639.1928, 515.4609
639.6749, 564.1445
640.1570, 601.2891
640.6392, 614.0742
641.1213, 590.8789
641.6034, 558.8125
642.0855, 552.7891
642.5676, 573.2578
643.0497, 585.3125
643.5319, 567.9062
644.0140, 561.8008
644.4961, 597.2031
644.9782, 650.6211
645.4603, 696.5625
645.9424, 725.4258
646.4246, 726.5898
646.9067, 677.6016
647.3888, 600.7891
647.8709, 590.1367
648.3530, 657.9492
648.8351, 698.3477
649.3173, 662.8320
649.7994, 609.1875
650.2815, 618.5742
650.7636, 692.1016
651.2457, 707.9219
651.7278, 599.3867
652.2100, 506.1797
652.6921, 485.8516
653.1742, 510.2812
653.6563, 560.2461
654.1384, 621.6445
654.6205, 656.9414
655.1027, 622.2773
655.5848, 548.0234
656.0669, 523.9180
656.5490, 549.3008
657.0311, 578.3281
657.5132, 608.8281
657.9954, 629.3086
658.4775, 624.3047
658.9596, 592.5859
659.4417, 552.9648
659.9238, 503.1250
660.4059, 452.1406
660.8881, 373.8555
661.3702, 308.5938
661.8523, 319.6328
662.3344, 400.5117
662.8165, 475.9062
663.2986, 493.1602
663.7808, 471.8555
664.2629, 442.5469
664.7450, 406.0977
665.2271, 377.6289
665.7092, 361.1172
666.1913, 351.1406
666.6735, 344.6055
667.1556, 340.7773
667.6377, 330.6094
668.1198, 305.5430
668.6019, 286.0156
669.0840, 278.2305
669.5662, 279.2188
670.0483, 290.8047
670.5304, 308.5938
671.0125, 320.0117
671.4946, 316.3672
671.9767, 308.5703
672.4589, 316.6797
672.9410, 334.1914
673.4231, 330.5703
673.9052, 299.8164
674.3873, 267.3398
674.8694, 254.1797
675.3516, 254.9766
675.8337, 244.9297
676.3158, 236.6211
676.7979, 196.8594
677.2800, 75.65625
677.7621, 27.77344
678.2443, 37.30859
678.7264, 12.67969
679.2085, 37.65234
679.6906, 1.406250
680.1727, 38.69922
680.6548, 5.859375
681.1370, 62.47266
681.6191, 99.44531
682.1012, 100.3555
682.5833, 94.21875
683.0654, 96.76953
683.5475, 105.8477
684.0297, 118.7969
684.5118, 141.0156
684.9939, 149.0508
685.4760, 137.9922
685.9581, 116.9297
686.4402, 69.26953
686.9224, 21.89844
687.4045, 20.03906
687.8866, 77.76562
688.3687, 132.3906
688.8508, 158.3281
689.3329, 164.3164
689.8151, 153.7969
690.2972, 131.5586
690.7793, 107.3984
691.2614, 85.61328
691.7435, 64.92578
692.2256, 41.88672
692.7078, 17.12109
693.1899, 7.175781
693.6720, 18.04297
694.1541, 29.17578
694.6362, 39.49219
695.1183, 41.60938
695.6005, 23.27734
696.0826, 15.71094
696.5647, 50.54688
697.0468, 103.9688
697.5289, 122.6328
698.0110, 48.94141
698.4932, 59.52344
698.9753, 132.5430
699.4574, 154.4727
699.9395, 143.5898
700.4216, 106.7383
700.9037, 55.20312
701.3859, 14.03516
701.8680, 16.80078
702.3501, 36.19531
702.8322, 45.00000
703.3143, 36.27734
703.7964, 6.968750
704.2786, 78.52734
704.7607, 101.6797
705.2428, 28.08984
705.7249, 24.94141
706.2070, 32.70312
706.6891, 28.15234
707.1713, 40.17578
707.6534, 59.85156
708.1355, 53.38672
708.6176, 3.203125
709.0997, 59.29688
709.5818, 58.73828
710.0640, 24.12500
710.5461, 2.488281
711.0282, 1.335938
711.5103, 3.351563
711.9924, 13.46484
712.4745, 19.39844
712.9567, 8.460938
713.4388, 95.85156
713.9209, 122.8984
714.4030, 44.62500
714.8851, 32.39453
715.3672, 70.65234
715.8494, 78.80469
716.3315, 61.85938
716.8136, 16.78906
717.2957, 22.73047
717.7778, 61.25781
718.2599, 74.96094
718.7421, 24.86328
719.2242, 58.25391
719.7063, 110.8594
720.1884, 117.2109
720.6705, 121.0703
721.1526, 180.4570
721.6348, 269.6758
722.1169, 264.5195
722.5990, 153.5820
723.0811, 87.30859
723.5632, 127.8125
724.0453, 180.3984
724.5275, 135.7109
725.0096, 1.074219
725.4917, 68.88672
725.9738, 11.06641
726.4559, 32.54297
726.9380, 28.42578
727.4202, 12.58594
727.9023, 10.74219
728.3844, 22.54297
728.8665, 39.00781
729.3486, 59.85547
729.8307, 73.61719
730.3129, 58.21875
730.7950, 31.06641
731.2771, 32.54297
731.7592, 63.46875
732.2413, 92.26172
732.7234, 100.6289
733.2056, 98.73828
733.6877, 110.4883
734.1698, 143.6289
734.6519, 147.8359
735.1340, 94.55078
735.6161, 60.22266
736.0983, 107.0742
736.5804, 175.4141
737.0625, 180.1836
737.5446, 110.4492
738.0267, 61.33594
738.5089, 68.55078
738.9910, 89.76562
739.4731, 96.49609
739.9552, 104.2617
740.4373, 149.6250
740.9194, 230.1641
741.4016, 291.3008
741.8837, 288.3789
742.3658, 240.0000
742.8479, 159.7617
743.3300, 57.88281
743.8121, 34.87891
744.2943, 122.1055
744.7764, 212.8867
745.2585, 218.7227
745.7406, 157.9336
746.2227, 113.1719
746.7048, 86.74609
747.1870, 72.65625
747.6691, 70.67969
748.1512, 81.02734
748.6333, 119.7422
749.1154, 166.4375
749.5975, 183.8086
750.0797, 160.9922
750.5618, 125.5039
751.0439, 68.51172
751.5260, 22.85156
752.0081, 19.89453
752.4902, 55.45312
752.9724, 128.7070
753.4545, 234.8906
753.9366, 326.2305
754.4187, 346.3867
754.9008, 305.8945
755.3829, 248.6836
755.8651, 176.0625
756.3472, 137.8828
756.8293, 151.8750
757.3114, 189.3789
757.7935, 226.0938
758.2756, 261.1445
758.7578, 284.5352
759.2399, 294.4844
759.7220, 293.1445
760.2041, 261.5039
760.6862, 235.4102
761.1683, 246.8516
761.6505, 282.8789
762.1326, 305.0703
762.6147, 299.4023
763.0968, 287.6758
763.5789, 278.0156
764.0610, 273.3477
764.5432, 284.5156
765.0253, 303.6914
765.5074, 305.1445
765.9895, 280.4062
766.4716, 251.1094
766.9537, 237.5938
767.4359, 240.0547
767.9180, 263.6445
768.4001, 314.0117
768.8822, 346.3203
769.3643, 340.5977
769.8464, 325.0977
770.3286, 335.2500
770.8107, 369.9062
771.2928, 367.4961
771.7749, 268.8906
772.2570, 228.1328
772.7391, 316.1992
773.2213, 413.8086
773.7034, 434.0586
774.1855, 394.5039
774.6676, 358.3008
775.1497, 345.0625
775.6318, 335.0820
776.1140, 312.9570
776.5961, 293.4414
777.0782, 284.7773
777.5603, 289.4844
778.0424, 323.7344
778.5245, 392.7812
779.0066, 460.0977
779.4887, 476.0469
779.9708, 447.4727
780.4529, 414.5078
780.9351, 374.9258
781.4172, 360.6680
781.8993, 390.2734
782.3814, 428.9531
782.8635, 442.6602
783.3456, 429.0664
783.8278, 397.1328
784.3099, 307.5000
784.7920, 251.9805
785.2741, 261.1406
785.7562, 283.4727
786.2383, 279.7617
786.7205, 265.0352
787.2026, 282.8789
787.6847, 355.1523
788.1668, 419.2891
788.6489, 459.8203
789.1310, 462.5273
789.6132, 378.8516
790.0953, 253.2969
790.5774, 192.9258
791.0595, 229.8711
791.5416, 294.3203
792.0237, 311.8359
792.5059, 301.3203
792.9880, 326.4141
793.4701, 384.4531
793.9522, 422.8477
794.4343, 427.1289
794.9164, 417.0586
795.3986, 410.6367
795.8807, 404.6992
796.3628, 378.4141
796.8449, 306.9609
797.3270, 272.9414
797.8091, 317.3164
798.2913, 358.0938
798.7734, 346.3203
799.2555, 309.0781
799.7376, 284.2969
800.2197, 269.1562
800.7018, 281.0781
801.1840, 376.4141
801.6661, 451.5430
802.1482, 418.1992
802.6303, 336.1094
803.1124, 289.1367
803.5945, 293.8867
804.0767, 319.7852
804.5588, 356.0312
805.0409, 388.7109
805.5230, 398.2930
806.0051, 388.4062
806.4872, 355.2578
806.9694, 306.7539
807.4515, 302.2422
807.9336, 382.1055
808.4157, 497.5781
808.8978, 535.6367
809.3799, 488.5664
809.8621, 437.3594
810.3442, 376.8984
810.8263, 338.3008
811.3084, 353.9844
811.7905, 380.2969
812.2726, 332.6055
812.7548, 195.8555
813.2369, 145.5312
813.7190, 264.9648
814.2011, 359.1367
814.6832, 371.5234
815.1653, 356.1211
815.6475, 351.3984
816.1296, 358.2852
816.6117, 366.4492
817.0938, 376.8398
817.5759, 376.5977
818.0580, 335.3906
818.5402, 295.9141
819.0223, 323.0898
819.5044, 391.1211
819.9865, 427.6133
820.4686, 406.2383
820.9507, 355.6953
821.4329, 290.1797
821.9150, 224.7500
822.3971, 212.6328
822.8792, 246.6680
823.3613, 263.3750
823.8434, 246.3359
824.3256, 217.0938
824.8077, 191.6250
825.2898, 171.8242
825.7719, 169.1289
826.2540, 197.1484
826.7361, 187.8867
827.2183, 96.50781
827.7004, 38.65625
828.1825, 106.2969
828.6646, 228.9727
829.1467, 272.7070
829.6288, 219.0391
830.1110, 190.8008
830.5931, 218.9766
831.0752, 245.4883
831.5573, 241.4922
832.0394, 232.3398
832.5215, 247.5156
833.0037, 282.8359
833.4858, 304.9648
833.9679, 300.7578
834.4500, 279.2148
834.9321, 228.7930
835.4142, 177.3672
835.8964, 166.0742
836.3785, 185.8633
836.8606, 201.8203
837.3427, 199.7383
837.8248, 186.4336
838.3069, 171.4219
838.7891, 151.6641
839.2712, 106.3086
839.7533, 43.38281
840.2354, 18.36328
840.7175, 51.63281
841.1996, 92.50391
841.6818, 95.32031
842.1639, 70.35938
842.6460, 57.03906
843.1281, 56.64453
843.6102, 63.60547
844.0923, 86.51562
844.5745, 95.20703
845.0566, 60.93359
845.5387, 10.68750
846.0208, 8.371094
846.5029, 6.488281
846.9850, 39.92188
847.4672, 119.8281
847.9493, 181.7227
848.4314, 207.8750
848.9135, 210.9414
849.3956, 187.7383
849.8777, 150.1719
850.3599, 141.5234
850.8420, 198.1914
851.3241, 235.6172
851.8062, 197.3320
852.2883, 133.3086
852.7704, 82.54297
853.2526, 46.91016
853.7347, 21.91406
854.2168, 5.785156
854.6989, 4.949219
855.1810, 6.582031
855.6631, 8.820313
856.1453, 39.74219
856.6274, 83.66797
857.1095, 87.38281
857.5916, 44.14844
858.0737, 4.382813
858.5558, 28.39844
859.0380, 42.00781
859.5201, 85.94141
860.0022, 158.3711
860.4843, 173.6445
860.9664, 117.8906
861.4485, 82.75781
861.9307, 116.2578
862.4128, 163.5859
862.8949, 156.4609
863.3770, 94.94141
863.8591, 37.62500
864.3412, 32.58203
864.8234, 60.93750
865.3055, 11.54297
865.7876, 50.41797
866.2697, 83.62109
866.7518, 97.71875
867.2339, 116.9531
867.7161, 154.0742
868.1982, 154.3789
868.6803, 52.74219
869.1624, 17.51172
869.6445, 32.12109
870.1266, 124.9961
870.6088, 181.8906
871.0909, 193.0469
871.5730, 176.1289
872.0551, 108.2148
872.5372, 59.95703
873.0193, 99.82031
873.5015, 163.4961
873.9836, 178.9961
874.4657, 155.4922
874.9478, 132.5391
875.4299, 125.0352
875.9120, 130.3906
876.3942, 150.9531
876.8763, 179.6016
877.3584, 216.2695
877.8405, 249.8711
878.3226, 231.6367
878.8047, 160.4570
879.2869, 121.4531
879.7690, 181.6562
880.2511, 282.5273
880.7332, 296.8516
881.2153, 234.1250
881.6974, 206.6094
882.1796, 224.2305
882.6617, 216.7617
883.1438, 148.5312
883.6259, 77.09375
884.1080, 77.19531
884.5901, 141.7734
885.0723, 171.0352
885.5544, 147.6133
886.0365, 146.7266
886.5186, 196.8789
887.0007, 240.2852
887.4828, 241.9531
887.9650, 210.3008
888.4471, 158.6016
888.9292, 65.62109
889.4113, 21.13281
889.8934, 75.73047
890.3755, 111.6602
890.8577, 67.84766
891.3398, 16.46094
891.8219, 29.82812
892.3040, 96.78516
892.7861, 150.6953
893.2682, 187.3008
893.7504, 194.9883
894.2325, 142.6562
894.7146, 88.37109
895.1967, 81.88672
895.6788, 96.35547
896.1609, 75.82031
896.6431, 13.46094
897.1252, 23.45703
897.6073, 23.96875
898.0894, 87.10547
898.5715, 121.9648
899.0536, 135.1797
899.5358, 125.7305
900.0179, 103.2578
900.5000, 93.83984
900.9821, 109.2383
901.4642, 131.1797
901.9464, 135.9023
902.4285, 137.1094
902.9106, 179.3516
903.3927, 238.3750
903.8748, 216.0234
904.3569, 103.3516
904.8391, 20.33984
905.3212, 64.16016
905.8033, 166.7930
906.2854, 194.9922
906.7675, 161.0195
907.2496, 147.5859
907.7318, 159.5273
908.2139, 150.4492
908.6960, 97.64844
909.1781, 55.07031
909.6602, 90.75000
910.1423, 190.4062
910.6245, 272.7070
911.1066, 342.4688
911.5887, 350.8047
912.0708, 270.5586
912.5529, 199.1797
913.0350, 202.1250
913.5172, 236.3672
913.9993, 215.8516
914.4814, 129.4766
914.9635, 65.19141
915.4456, 25.28906
915.9277, 11.48438
916.4099, 32.83594
916.8920, 64.33984
917.3741, 100.3047
917.8562, 130.4727
918.3383, 112.1289
918.8204, 2.406250
919.3026, 60.94922
919.7847, 57.44531
920.2668, 29.49609
920.7489, 38.81250
921.2310, 103.6562
921.7131, 114.0664
922.1953, 71.88281
922.6774, 30.69531
923.1595, 1.929688
923.6416, 16.25781
924.1237, 29.41797
924.6058, 29.90234
925.0880, 3.1250000E-02
925.5701, 40.24219
926.0522, 59.63281
926.5343, 52.63672
927.0164, 34.75391
927.4985, 7.402344
927.9807, 13.96875
928.4628, 25.03125
928.9449, 21.59375
929.4270, 1.214844
929.9091, 42.09375
930.3912, 108.3008
930.8734, 204.4883
931.3555, 266.3945
931.8376, 214.5391
932.3197, 135.9531
932.8018, 130.8125
933.2839, 158.3555
933.7661, 134.0820
934.2482, 61.14453
934.7303, 16.52734
935.2124, 46.74219
935.6945, 88.89062
936.1766, 57.78906
936.6588, 0.8085940
937.1409, 13.81250
937.6230, 74.96094
938.1051, 102.4648
938.5872, 78.84766
939.0693, 45.37891
939.5515, 29.19922
940.0336, 34.51953
940.5157, 95.01562
940.9978, 181.0820
941.4799, 162.0312
941.9620, 50.34375
942.4442, 15.34375
942.9263, 117.9727
943.4084, 235.6797
943.8905, 238.3555
944.3726, 162.7305
944.8547, 107.2227
945.3369, 73.87500
945.8190, 109.9922
946.3011, 222.2695
946.7832, 278.0820
947.2653, 203.2266
947.7474, 104.9062
948.2296, 146.1953
948.7117, 299.2109
949.1938, 315.7305
949.6759, 180.2773
950.1580, 101.9102
950.6401, 122.7852
951.1223, 169.1094
951.6044, 200.7695
952.0865, 219.1328
952.5686, 223.5312
953.0507, 212.4297
953.5328, 223.2773
954.0150, 267.6836
954.4971, 286.2734
954.9792, 251.7812
955.4613, 225.2969
955.9434, 256.6094
956.4255, 315.5977
956.9077, 316.0273
957.3898, 232.1406
957.8719, 201.3555
958.3540, 258.7148
958.8361, 288.6484
959.3182, 236.0820
959.8004, 176.5742
960.2825, 180.9141
960.7646, 234.2344
961.2467, 273.4570
961.7288, 300.1445
962.2109, 308.7773
962.6931, 289.2695
963.1752, 266.3164
963.6573, 236.4648
964.1394, 215.4688
964.6215, 222.5938
965.1036, 255.1914
965.5858, 288.9883
966.0679, 352.0586
966.5500, 372.3594
967.0321, 315.0898
967.5142, 254.7891
967.9963, 208.0000
968.4785, 181.5469
968.9606, 191.7695
969.4427, 236.5547
969.9248, 269.3047
970.4069, 290.6406
970.8890, 294.2227
971.3712, 270.8008
971.8533, 238.8789
972.3354, 179.6484
972.8175, 133.0195
973.2996, 171.8281
973.7817, 299.6992
974.2639, 384.2109
974.7460, 364.5664
975.2281, 354.8320
975.7102, 402.3477
976.1923, 447.8438
976.6744, 415.3203
977.1565, 360.5039
977.6386, 413.4648
978.1207, 595.6836
978.6028, 718.8750
979.0850, 699.9609
979.5671, 663.3008
980.0492, 611.8125
980.5313, 587.2070
981.0134, 647.9414
981.4955, 747.1680
981.9777, 788.0195
982.4598, 750.6289
982.9419, 732.0977
983.4240, 774.2812
983.9061, 823.6289
984.3882, 876.8516
984.8704, 904.4727
985.3525, 850.3516
985.8346, 760.0391
986.3167, 750.0117
986.7988, 856.1328
987.2809, 925.3984
987.7631, 870.7031
988.2452, 800.4648
988.7273, 757.6172
989.2094, 732.0586
989.6915, 731.1484
990.1736, 735.5977
990.6558, 690.8164
991.1379, 570.2422
991.6200, 475.7344
992.1021, 472.3086
992.5842, 477.7500
993.0663, 444.6797
993.5485, 399.6875
994.0306, 366.8750
994.5127, 348.2695
994.9948, 349.3867
995.4769, 379.1406
995.9590, 376.1562
996.4412, 278.8438
996.9233, 180.6445
997.4054, 139.3633
997.8875, 124.7578
998.3696, 96.33594
998.8517, 62.84375
999.3339, 63.90234
999.8160, 115.7500
1000.298, 175.5469
1000.780, 251.0430
1001.262, 297.2461
1001.744, 265.4062
1002.227, 204.8359
1002.709, 165.3711
1003.191, 149.1914
1003.673, 136.6016
1004.155, 116.4727
1004.637, 126.8359
1005.119, 225.0078
1005.601, 313.2578
1006.083, 332.7070
1006.566, 307.8047
1007.048, 242.7617
1007.530, 162.3633
1008.012, 132.0938
1008.494, 182.1953
1008.976, 225.3633
1009.458, 222.4258
1009.940, 201.0625
1010.423, 162.0195
1010.905, 124.2500
1011.387, 108.2734
1011.869, 111.5078
1012.351, 123.5625
1012.833, 148.1680
1013.315, 148.8359
1013.797, 75.62500
1014.279, 15.37891
1014.762, 26.71094
1015.244, 69.54688
1015.726, 111.1133
1016.208, 143.0938
1016.690, 153.5977
1017.172, 132.6758
1017.654, 125.3555
1018.136, 168.1289
1018.619, 204.1641
1019.101, 208.6445
1019.583, 188.3672
1020.065, 128.7070
1020.547, 54.02344
1021.029, 32.20312
1021.511, 90.13281
1021.993, 137.3242
1022.475, 141.7148
1022.958, 134.5234
1023.440, 119.3945
1023.922, 107.8555
1024.404, 111.8750
1024.886, 128.5117
1025.368, 147.3867
1025.850, 165.3984
1026.332, 193.4492
1026.815, 274.2344
1027.297, 313.1602
1027.779, 237.6836
1028.261, 141.5000
1028.743, 99.72656
1029.225, 98.64453
1029.707, 91.53125
1030.189, 65.46484
1030.672, 79.57422
1031.154, 218.1836
1031.636, 291.1875
1032.118, 196.3945
1032.600, 68.26562
1033.082, 15.16016
1033.564, 55.41797
1034.046, 57.16797
1034.528, 14.38281
1035.010, 21.12109
1035.493, 57.56250
1035.975, 68.41016
1036.457, 9.261719
1036.939, 35.67188
1037.421, 9.957031
1037.903, 92.53516
1038.385, 107.1406
1038.867, 43.02344
1039.350, 17.42188
1039.832, 77.42969
1040.314, 97.32031
1040.796, 21.07031
1041.278, 41.82812
1041.760, 32.39453
1042.242, 21.76172
1042.724, 95.24219
1043.207, 188.1055
1043.689, 200.1406
1044.171, 65.58594
1044.653, 3.093750
1045.135, 71.98047
1045.617, 139.6172
1046.099, 152.0625
1046.581, 122.9141
1047.063, 60.96484
1047.546, 26.11328
1048.028, 54.40625
1048.510, 5.437500
1048.992, 36.96875
1049.474, 71.57812
1049.956, 83.63281
1050.438, 58.77734
1050.920, 33.20703
1051.402, 50.60547
1051.885, 95.25781
1052.367, 88.94141
1052.849, 20.73047
1053.331, 7.363281
1053.813, 63.27344
1054.295, 114.9062
1054.777, 136.2422
1055.259, 127.4180
1055.742, 77.91797
1056.224, 20.82031
1056.706, 68.16016
1057.188, 211.2695
1057.670, 230.1797
1058.152, 122.3164
1058.634, 38.03516
1059.116, 16.73047
1059.599, 24.31250
1060.081, 38.85547
1060.563, 54.34375
1061.045, 52.94531
1061.527, 43.54297
1062.009, 76.46875
1062.491, 140.5781
1062.973, 168.5703
1063.455, 151.4258
1063.938, 128.8398
1064.420, 122.8711
1064.902, 126.2891
1065.384, 143.4727
1065.866, 155.9922
1066.348, 107.8711
1066.830, 28.11719
1067.312, 7.066406
1067.794, 3.250000
1068.277, 12.42969
1068.759, 1.894531
1069.241, 6.007813
1069.723, 73.80469
1070.205, 151.6055
1070.687, 166.9570
1071.169, 154.3477
1071.651, 163.7031
1072.134, 191.8398
1072.616, 219.7305
1073.098, 240.7422
1073.580, 250.4492
1074.062, 240.4102
1074.544, 228.2070
1075.026, 231.2617
1075.508, 233.4375
1075.990, 220.0781
1076.473, 194.4805
1076.955, 156.7812
1077.437, 112.0195
1077.919, 85.92188
1078.401, 97.03516
1078.883, 105.9102
1079.365, 101.6797
1079.847, 86.02344
1080.329, 37.62500
1080.812, 4.394531
1081.294, 15.71875
1081.776, 81.60156
1082.258, 121.1719
1082.740, 117.5664
1083.222, 108.3633
1083.704, 89.88281
1084.186, 78.59766
1084.668, 93.07422
1085.151, 102.9766
1085.633, 76.44141
1086.115, 32.54688
1086.597, 13.64453
1087.079, 24.58984
1087.561, 20.78906
1088.043, 26.52344
1088.525, 21.33594
1089.008, 82.83203
1089.490, 171.2461
1089.972, 178.1914
1090.454, 144.3008
1090.936, 121.2188
1091.418, 108.1172
1091.900, 120.3438
1092.382, 168.5742
1092.865, 174.2266
1093.347, 123.1914
1093.829, 85.99219
1094.311, 90.04688
1094.793, 113.0352
1095.275, 140.8945
1095.757, 169.5742
1096.239, 197.2773
1096.721, 223.0195
1097.203, 221.2500
1097.686, 195.0156
1098.168, 151.4766
1098.650, 95.92578
1099.132, 64.85156
1099.614, 87.50391
1100.096, 129.0117
1100.578, 141.2266
1101.060, 135.8047
1101.543, 142.8984
1102.025, 147.8945
1102.507, 96.12500
1102.989, 5.921875
1103.471, 24.65234
1103.953, 40.84766
1104.435, 103.1602
1104.917, 71.58984
1105.400, 18.28125
1105.882, 4.308594
1106.364, 9.183594
1106.846, 6.019531
1107.328, 3.050781
1107.810, 11.70703
1108.292, 16.97266
1108.774, 9.136719
1109.256, 28.75391
1109.739, 55.40234
1110.221, 54.62891
1110.703, 39.76172
1111.185, 11.12891
1111.667, 49.93750
1112.149, 10.08594
1112.631, 90.12500
1113.113, 166.7578
1113.595, 212.2031
1114.078, 234.1328
1114.560, 214.9766
1115.042, 200.2930
1115.524, 196.7812
1116.006, 202.7227
1116.488, 217.0664
1116.970, 240.1367
1117.452, 277.3164
1117.935, 327.9883
1118.417, 343.4883
1118.899, 313.6523
1119.381, 307.3906
1119.863, 335.9336
1120.345, 366.8594
1120.827, 388.3281
1121.309, 392.9219
1121.792, 367.2617
1122.274, 332.2305
1122.756, 352.6602
1123.238, 415.2539
1123.720, 448.8750
1124.202, 454.9023
1124.684, 463.7266
1125.166, 480.5898
1125.648, 489.1680
1126.130, 479.1641
1126.613, 452.9531
1127.095, 407.7969
1127.577, 353.2344
1128.059, 286.9297
1128.541, 230.2227
1129.023, 225.4609
1129.505, 262.8320
1129.987, 310.9844
1130.470, 357.0977
1130.952, 384.7852
1131.434, 390.7031
1131.916, 381.4414
1132.398, 362.1680
1132.880, 326.7031
1133.362, 242.3008
1133.844, 155.6680
1134.327, 127.2695
1134.809, 157.6641
1135.291, 215.6016
1135.773, 316.9805
1136.255, 398.0117
1136.737, 469.1641
1137.219, 494.9805
1137.701, 455.1289
1138.183, 381.3320
1138.666, 273.9141
1139.148, 168.7305
1139.630, 139.0273
1140.112, 184.8086
1140.594, 221.4766
1141.076, 250.9180
1141.558, 260.3320
1142.040, 247.8984
1142.522, 216.6094
1143.005, 165.1953
1143.487, 119.3828
1143.969, 104.7188
1144.451, 111.4023
1144.933, 124.6328
1145.415, 139.2070
1145.897, 128.1523
1146.379, 102.9805
1146.862, 107.2500
1147.344, 142.6992
1147.826, 176.0000
1148.308, 190.7812
1148.790, 195.5859
1149.272, 210.7070
1149.754, 207.3438
1150.236, 132.6094
1150.719, 44.80469
1151.201, 8.667969
1151.683, 17.03906
1152.165, 60.40234
1152.647, 128.8477
1153.129, 144.9570
1153.611, 22.76562
1154.093, 45.00000
1154.575, 45.70703
1155.057, 125.8633
1155.540, 93.86328
1156.022, 40.89453
1156.504, 60.27344
1156.986, 120.6914
1157.468, 133.0586
1157.950, 86.68750
1158.432, 74.53125
1158.914, 108.1094
1159.397, 126.4570
1159.879, 115.3242
1160.361, 113.4453
1160.843, 141.1289
1161.325, 176.3750
1161.807, 199.1836
1162.289, 209.2148
1162.771, 198.5195
1163.254, 177.9648
1163.736, 211.4492
1164.218, 278.2305
1164.700, 264.0430
1165.182, 160.8125
1165.664, 76.61719
1166.146, 69.05469
1166.628, 108.0469
1167.110, 219.4453
1167.593, 306.4961
1168.075, 232.5156
1168.557, 120.6445
1169.039, 124.6484
1169.521, 200.1055
1170.003, 239.4492
1170.485, 225.3047
1170.967, 217.6562
1171.449, 249.0234
1171.932, 258.3008
1172.414, 203.7695
1172.896, 166.7539
1173.378, 199.7266
1173.860, 234.7188
1174.342, 211.3906
1174.824, 157.8711
1175.306, 139.7656
1175.789, 158.8984
1176.271, 155.2930
1176.753, 123.8359
1177.235, 129.4922
1177.717, 184.4805
1178.199, 194.8828
1178.681, 120.5312
1179.163, 51.75000
1179.646, 75.49609
1180.128, 142.3203
1180.610, 168.2031
1181.092, 169.8320
1181.574, 188.7383
1182.056, 210.9180
1182.538, 193.8672
1183.020, 142.6211
1183.502, 96.67969
1183.984, 70.02734
1184.467, 64.66016
1184.949, 92.33984
1185.431, 127.3867
1185.913, 197.6680
1186.395, 226.5820
1186.877, 98.71484
1187.359, 63.60156
1187.841, 86.62891
1188.324, 15.96094
1188.806, 106.7344
1189.288, 196.1719
1189.770, 230.4492
1190.252, 187.3008
1190.734, 148.1367
1191.216, 123.8203
1191.698, 125.7500
1192.181, 165.0078
1192.663, 213.4844
1193.145, 237.2773
1193.627, 238.0156
1194.109, 208.5391
1194.591, 166.4219
1195.073, 213.3086
1195.555, 316.9766
1196.037, 315.5781
1196.520, 195.9609
1197.002, 103.1875
1197.484, 111.3906
1197.966, 148.1992
1198.448, 164.4375
1198.930, 176.8242
1199.412, 199.6680
1199.894, 224.6602
1200.376, 241.3047
1200.859, 255.7734
1201.341, 285.3398
1201.823, 327.4922
1202.305, 345.7617
1202.787, 331.7109
1203.269, 302.3516
1203.751, 256.4648
1204.233, 192.3242
1204.716, 96.19922
1205.198, 18.73047
1205.680, 10.30078
1206.162, 4.289063
1206.644, 65.40625
1207.126, 153.7539
1207.608, 186.3281
1208.090, 174.7539
1208.573, 184.8594
1209.055, 214.3164
1209.537, 224.0977
1210.019, 209.4180
1210.501, 207.3906
1210.983, 238.8281
1211.465, 260.0430
1211.947, 210.9609
1212.429, 156.5234
1212.911, 138.4570
1213.394, 148.5312
1213.876, 205.7109
1214.358, 269.9258
1214.840, 271.5234
1215.322, 211.4219
1215.804, 161.4844
1216.286, 117.8828
1216.768, 113.2852
1217.251, 185.5195
1217.733, 202.6250
1218.215, 114.4023
1218.697, 37.46875
1219.179, 42.89844
1219.661, 73.27344
1220.143, 46.09375
1220.625, 7.199219
1221.108, 24.96484
1221.590, 111.7461
1222.072, 136.8359
1222.554, 110.3750
1223.036, 76.03516
1223.518, 54.19922
1224.000, 95.94922
1224.482, 229.4727
1224.964, 320.5156
1225.447, 230.7266
1225.929, 137.3086
1226.411, 153.6602
1226.893, 194.3477
1227.375, 211.0820
1227.857, 191.8047
1228.339, 137.4141
1228.821, 56.88672
1229.303, 34.17578
1229.786, 86.82031
1230.268, 109.2188
1230.750, 93.94922
1231.232, 83.25000
1231.714, 84.63672
1232.196, 86.27734
1232.678, 83.01172
1233.160, 74.72656
1233.643, 56.84375
1234.125, 48.26562
1234.607, 100.8398
1235.089, 172.4961
1235.571, 178.9141
1236.053, 148.4062
1236.535, 135.4219
1237.017, 142.2031
1237.500, 153.0508
1237.982, 162.6211
1238.464, 166.7148
1238.946, 166.0859
1239.428, 155.9336
1239.910, 128.8164
1240.392, 99.94922
1240.874, 71.83594
1241.356, 48.05469
1241.839, 29.10547
1242.321, 19.52344
1242.803, 31.94922
1243.285, 61.81250
1243.767, 63.55078
1244.249, 39.49219
1244.731, 25.77734
1245.213, 23.99219
1245.695, 20.22266
1246.178, 13.92188
1246.660, 34.04297
1247.142, 101.0156
1247.624, 164.0781
1248.106, 185.3906
1248.588, 178.6836
1249.070, 143.1797
1249.552, 96.39844
1250.035, 34.72656
1250.517, 16.12109
1250.999, 5.042969
1251.481, 56.80078
1251.963, 70.33594
1252.445, 8.367188
1252.927, 9.296875
1253.409, 99.31641
1253.891, 147.3789
1254.374, 128.7422
1254.856, 83.75000
1255.338, 27.85547
1255.820, 1.386719
1256.302, 39.75781
1256.784, 101.5625
1257.266, 90.89844
1257.748, 55.20703
1258.230, 88.22656
1258.713, 145.2500
1259.195, 137.2695
1259.677, 85.92578
1260.159, 36.26953
1260.641, 0.7695310
1261.123, 7.167969
1261.605, 53.37109
1262.087, 85.43750
1262.570, 65.92578
1263.052, 48.98438
1263.534, 50.53906
1264.016, 54.70703
1264.498, 20.92188
1264.980, 13.14453
1265.462, 30.78906
1265.944, 58.68359
1266.427, 59.69531
1266.909, 38.12109
1267.391, 0.0000000E+00
##END=



