##NAMES=Zinc
##RRUFFID=R070497
##IDEAL CHEMISTRY=Zn
##LOCALITY=Round Mountain area, Shasta County, California, USA
##OWNER=RRUFF
##SOURCE=James Shigley
##DESCRIPTION=Grey, metallic crystal with irregular, platy structure 
##STATUS=The identification of this mineral has been confirmed by X-ray diffraction.
##URL=rruff.info/R070497
152.0724, 0.0000000E+00
152.5545, 3.329132
153.0366, 6.847534
153.5188, 9.786102
154.0009, 11.29126
154.4830, 9.148865
154.9651, 7.033142
155.4472, 6.468018
155.9293, 8.601624
156.4115, 10.90186
156.8936, 13.77463
157.3757, 16.92792
157.8578, 18.11346
158.3399, 15.87939
158.8221, 12.41522
159.3042, 9.099945
159.7863, 5.647003
160.2684, 2.833496
160.7505, 1.061035
161.2326, 0.2366940
161.7148, 0.2326350
162.1969, 0.5332340
162.6790, 0.6211550
163.1611, 0.4550480
163.6432, 0.3328860
164.1253, 1.096008
164.6075, 1.250458
165.0896, 0.7662960
165.5717, 0.7604680
166.0538, 3.785919
166.5359, 6.631622
167.0180, 8.061432
167.5002, 4.744263
167.9823, 1.345245
168.4644, 1.625031
168.9465, 6.156677
169.4286, 12.28964
169.9107, 20.50449
170.3929, 28.97073
170.8750, 34.04404
171.3571, 31.45078
171.8392, 25.52280
172.3213, 20.82648
172.8034, 18.07666
173.2856, 16.24127
173.7677, 14.87146
174.2498, 13.77054
174.7319, 12.29163
175.2140, 9.341492
175.6961, 5.924561
176.1783, 3.394135
176.6604, 1.657257
177.1425, 1.533966
177.6246, 6.392212
178.1067, 15.14722
178.5888, 21.06161
179.0710, 15.33154
179.5531, 3.106659
180.0352, 3.706390
180.5173, 9.1582999E-02
180.9994, 8.070374
181.4815, 10.74896
181.9637, 8.138824
182.4458, 5.269470
182.9279, 7.219788
183.4100, 12.71756
183.8921, 16.94617
184.3742, 18.02948
184.8564, 17.18973
185.3385, 17.19434
185.8206, 18.09567
186.3027, 19.21783
186.7848, 20.65631
187.2669, 22.13239
187.7491, 21.52487
188.2312, 16.39606
188.7133, 8.550751
189.1954, 4.694153
189.6775, 5.170563
190.1596, 11.31122
190.6418, 16.84113
191.1239, 24.50931
191.6060, 29.37607
192.0881, 28.01358
192.5702, 21.25281
193.0523, 16.24567
193.5345, 13.13501
194.0166, 11.53268
194.4987, 11.57480
194.9808, 13.34781
195.4629, 15.46402
195.9451, 17.96732
196.4272, 20.84509
196.9093, 20.62686
197.3914, 16.03378
197.8735, 10.18423
198.3556, 9.789429
198.8378, 15.72931
199.3199, 21.50748
199.8020, 23.02475
200.2841, 19.88672
200.7662, 18.34161
201.2483, 19.29590
201.7305, 21.53311
202.2126, 21.45728
202.6947, 18.15921
203.1768, 15.94266
203.6589, 18.64709
204.1410, 27.44427
204.6232, 32.52151
205.1053, 32.39517
205.5874, 28.26624
206.0695, 23.50897
206.5516, 17.40906
207.0337, 12.72183
207.5159, 11.81580
207.9980, 15.14468
208.4801, 17.54868
208.9622, 18.31186
209.4443, 17.63971
209.9264, 16.50043
210.4086, 14.85648
210.8907, 12.80438
211.3728, 10.19818
211.8549, 5.773956
212.3370, 3.832153
212.8191, 6.686462
213.3013, 13.48874
213.7834, 17.22861
214.2655, 17.23413
214.7476, 15.24603
215.2297, 11.95392
215.7118, 5.561462
216.1940, 3.106537
216.6761, 7.614410
217.1582, 18.57489
217.6403, 23.24225
218.1224, 18.05997
218.6045, 11.26700
219.0867, 11.81262
219.5688, 24.40286
220.0509, 33.06009
220.5330, 33.44260
221.0151, 25.36948
221.4972, 18.40399
221.9794, 11.70831
222.4615, 6.952118
222.9436, 6.333252
223.4257, 12.08295
223.9078, 17.42352
224.3899, 20.69293
224.8721, 21.77374
225.3542, 23.42828
225.8363, 28.07031
226.3184, 31.02768
226.8005, 25.12415
227.2826, 2.310181
227.7648, 13.71823
228.2469, 15.01398
228.7290, 0.9552920
229.2111, 11.74188
229.6932, 15.16986
230.1754, 15.05542
230.6575, 16.45764
231.1396, 20.57690
231.6217, 24.12183
232.1038, 26.67975
232.5859, 28.74036
233.0681, 26.67380
233.5502, 17.52664
234.0323, 6.391296
234.5144, 0.8532100
234.9965, 3.901398
235.4786, 7.582123
235.9608, 9.339020
236.4429, 8.381195
236.9250, 9.229523
237.4071, 13.23132
237.8892, 17.93805
238.3713, 20.68021
238.8535, 20.72211
239.3356, 19.44919
239.8177, 16.65982
240.2998, 11.12466
240.7819, 8.876587
241.2640, 10.66061
241.7462, 15.26083
242.2283, 21.26831
242.7104, 31.74747
243.1925, 38.53250
243.6746, 37.87125
244.1567, 26.48718
244.6389, 19.01874
245.1210, 17.36459
245.6031, 18.49481
246.0852, 16.68372
246.5673, 9.177429
247.0494, 3.436707
247.5316, 2.462036
248.0137, 7.827698
248.4958, 12.89484
248.9779, 18.75818
249.4600, 23.66898
249.9421, 23.52774
250.4243, 14.68030
250.9064, 7.350159
251.3885, 6.046722
251.8706, 13.62360
252.3527, 17.49026
252.8348, 16.06696
253.3170, 11.92258
253.7991, 10.13358
254.2812, 12.20596
254.7633, 13.76056
255.2454, 12.60641
255.7275, 7.226868
256.2097, 4.916290
256.6918, 6.516510
257.1739, 10.62637
257.6560, 15.02182
258.1381, 20.39716
258.6202, 24.64709
259.1024, 27.23160
259.5845, 28.36261
260.0666, 26.56870
260.5487, 20.59210
261.0308, 12.64667
261.5129, 5.756439
261.9951, 1.485687
262.4772, 4.110504
262.9593, 1.423553
263.4414, 17.88733
263.9235, 29.53326
264.4056, 35.87817
264.8878, 37.95932
265.3699, 37.23938
265.8520, 32.85403
266.3341, 28.13934
266.8162, 24.81967
267.2983, 23.57312
267.7805, 18.66806
268.2626, 7.618408
268.7447, 4.266327
269.2268, 6.322510
269.7089, 4.550934
270.1910, 14.09891
270.6732, 15.95554
271.1553, 9.052643
271.6374, 4.778412
272.1195, 3.530365
272.6016, 4.329163
273.0837, 5.748138
273.5659, 7.802124
274.0480, 10.41794
274.5301, 13.87256
275.0122, 18.20279
275.4943, 22.15274
275.9764, 26.21249
276.4586, 28.96951
276.9407, 27.26584
277.4228, 20.48618
277.9049, 14.77365
278.3870, 13.03961
278.8691, 15.08051
279.3513, 16.04553
279.8334, 15.60596
280.3155, 14.93643
280.7976, 15.98328
281.2797, 18.83524
281.7619, 21.11493
282.2440, 22.16528
282.7261, 21.95456
283.2082, 19.41989
283.6903, 13.82434
284.1725, 8.618652
284.6546, 9.654755
285.1367, 16.59863
285.6188, 19.99768
286.1009, 15.57257
286.5830, 6.909393
287.0652, 4.863159
287.5473, 10.25232
288.0294, 17.11328
288.5115, 18.50650
288.9936, 15.04559
289.4757, 11.70288
289.9579, 9.407043
290.4400, 8.585846
290.9221, 11.45276
291.4042, 18.32065
291.8863, 24.98868
292.3684, 27.81360
292.8506, 27.04111
293.3327, 23.02011
293.8148, 13.06616
294.2969, 1.540985
294.7790, 2.233551
295.2611, 1.760956
295.7433, 7.384644
296.2254, 9.060547
296.7075, 8.259338
297.1896, 8.601959
297.6717, 12.78241
298.1538, 17.59253
298.6360, 17.24835
299.1181, 12.15735
299.6002, 7.163452
300.0823, 6.262085
300.5644, 8.029572
301.0465, 9.688721
301.5287, 10.05533
302.0108, 10.59073
302.4929, 13.93808
302.9750, 19.49194
303.4571, 23.58417
303.9392, 23.23813
304.4214, 20.13098
304.9035, 16.21854
305.3856, 11.15002
305.8677, 6.845520
306.3498, 5.375580
306.8319, 6.248138
307.3141, 7.721985
307.7962, 8.757355
308.2783, 9.890106
308.7604, 12.05307
309.2425, 16.43677
309.7246, 19.54572
310.2068, 18.24338
310.6889, 13.80490
311.1710, 9.547760
311.6531, 6.881012
312.1352, 5.119446
312.6173, 3.726868
313.0995, 2.463287
313.5816, 2.055145
314.0637, 3.134644
314.5458, 5.292694
315.0279, 7.759735
315.5100, 11.97470
315.9922, 15.11517
316.4743, 14.85623
316.9564, 9.691101
317.4385, 6.285950
317.9206, 8.032043
318.4027, 12.58337
318.8849, 16.66095
319.3670, 21.59155
319.8491, 23.80249
320.3312, 20.67642
320.8133, 11.23505
321.2954, 4.440948
321.7776, 3.654083
322.2597, 5.855804
322.7418, 7.509186
323.2239, 7.928650
323.7060, 7.987122
324.1881, 7.798859
324.6703, 7.356171
325.1524, 6.836060
325.6345, 5.692383
326.1166, 4.776520
326.5987, 4.452393
327.0808, 6.098511
327.5630, 7.726654
328.0451, 8.785461
328.5272, 9.251099
329.0093, 8.727814
329.4914, 5.133514
329.9735, 2.054596
330.4557, 1.972748
330.9378, 7.310303
331.4199, 12.38907
331.9020, 17.34448
332.3841, 21.81479
332.8662, 23.92682
333.3484, 22.98535
333.8305, 20.70584
334.3126, 17.38940
334.7947, 11.66895
335.2768, 9.603638
335.7589, 13.16077
336.2411, 19.61963
336.7232, 21.98828
337.2053, 19.24802
337.6874, 15.32779
338.1695, 11.74863
338.6516, 8.499451
339.1338, 5.776917
339.6159, 3.311646
340.0980, 1.847412
340.5801, 3.640564
341.0622, 9.232117
341.5443, 13.22073
342.0265, 12.16922
342.5086, 6.877533
342.9907, 5.237823
343.4728, 7.833801
343.9549, 11.86618
344.4370, 14.29877
344.9192, 15.17609
345.4013, 14.93314
345.8834, 13.45609
346.3655, 11.03281
346.8476, 7.517212
347.3297, 2.812256
347.8119, 2.0569000E-02
348.2940, 4.432495
348.7761, 13.45560
349.2582, 18.69287
349.7403, 16.64200
350.2224, 11.03055
350.7046, 6.195007
351.1867, 2.178955
351.6688, 0.3486940
352.1509, 0.4278260
352.6331, 2.547974
353.1152, 3.114899
353.5973, 5.8990002E-02
354.0794, 2.776733
354.5615, 1.158356
355.0436, 9.551697
355.5258, 15.68359
356.0079, 13.68936
356.4900, 9.022430
356.9721, 6.418854
357.4542, 7.119141
357.9363, 8.517517
358.4185, 9.647552
358.9006, 10.64578
359.3827, 11.67810
359.8648, 13.95935
360.3469, 15.37805
360.8290, 13.99283
361.3112, 9.017212
361.7933, 5.896820
362.2754, 8.269287
362.7575, 12.64731
363.2396, 15.25150
363.7217, 14.01306
364.2039, 12.10068
364.6860, 9.313080
365.1681, 5.655640
365.6502, 4.869537
366.1323, 11.31729
366.6144, 18.37469
367.0966, 21.46542
367.5787, 16.54865
368.0608, 12.39722
368.5429, 9.656830
369.0250, 8.134094
369.5071, 6.887939
369.9893, 5.851532
370.4714, 5.169769
370.9535, 4.799591
371.4356, 4.195648
371.9177, 5.399292
372.3998, 9.822968
372.8820, 15.37149
373.3641, 16.79196
373.8462, 12.23975
374.3283, 8.377747
374.8104, 8.636383
375.2925, 13.63196
375.7747, 15.05453
376.2568, 11.86533
376.7389, 7.189331
377.2210, 5.772339
377.7031, 7.926239
378.1852, 8.733795
378.6674, 5.716064
379.1495, 0.1960140
379.6316, 2.199829
380.1137, 1.308594
380.5958, 1.395416
381.0779, 5.645294
381.5601, 10.94431
382.0422, 14.35730
382.5243, 14.66553
383.0064, 13.61765
383.4885, 14.89481
383.9706, 18.02936
384.4528, 19.48627
384.9349, 15.75769
385.4170, 9.063904
385.8991, 2.394135
386.3812, 4.567841
386.8633, 9.170563
387.3455, 7.357422
387.8276, 1.312256
388.3097, 4.550598
388.7918, 9.470673
389.2739, 12.65167
389.7560, 12.46240
390.2382, 8.413971
390.7203, 5.444916
391.2024, 7.322418
391.6845, 11.36514
392.1666, 14.51370
392.6487, 14.93597
393.1309, 15.02832
393.6130, 15.62985
394.0951, 16.73108
394.5772, 17.95810
395.0593, 20.51645
395.5414, 22.35150
396.0236, 22.14368
396.5057, 17.62564
396.9878, 13.52664
397.4699, 9.907471
397.9520, 6.981659
398.4341, 5.473480
398.9163, 7.105286
399.3984, 8.364471
399.8805, 7.763641
400.3626, 4.231934
400.8447, 1.992157
401.3268, 1.094513
401.8090, 1.457062
402.2911, 3.514832
402.7732, 8.709900
403.2553, 11.61349
403.7374, 9.611847
404.2195, 3.167877
404.7017, 1.780121
405.1838, 6.281036
405.6659, 11.55203
406.1480, 12.69675
406.6301, 9.658997
407.1122, 6.904297
407.5944, 5.035675
408.0765, 4.112274
408.5586, 5.170807
409.0407, 8.158203
409.5228, 9.842255
410.0049, 5.870789
410.4871, 1.103851
410.9692, 3.228882
411.4513, 0.8689880
411.9334, 7.367767
412.4155, 15.05142
412.8976, 22.32846
413.3798, 24.85229
413.8619, 15.68387
414.3440, 3.747772
414.8261, 1.505402
415.3082, 0.1236880
415.7903, 3.709747
416.2725, 6.432190
416.7546, 9.315979
417.2367, 13.24377
417.7188, 21.76703
418.2009, 28.09570
418.6830, 27.82159
419.1652, 22.40317
419.6473, 17.19223
420.1294, 13.47626
420.6115, 10.77881
421.0936, 8.783875
421.5757, 7.400604
422.0579, 6.930939
422.5400, 7.295135
423.0221, 8.612854
423.5042, 11.13525
423.9864, 16.70862
424.4685, 21.39459
424.9506, 24.48471
425.4327, 25.92340
425.9148, 25.85983
426.3969, 23.98093
426.8791, 20.96161
427.3612, 16.72580
427.8433, 9.896515
428.3254, 6.909454
428.8075, 10.40430
429.2896, 17.86288
429.7718, 20.27100
430.2539, 16.97595
430.7360, 12.31912
431.2181, 7.285004
431.7002, 2.014252
432.1823, 2.592377
432.6645, 10.63324
433.1466, 20.35803
433.6287, 23.20856
434.1108, 20.37851
434.5929, 17.75763
435.0750, 18.21661
435.5572, 20.50720
436.0393, 22.06610
436.5214, 22.60181
437.0035, 21.92172
437.4856, 18.57486
437.9677, 14.33264
438.4499, 11.34991
438.9320, 9.835907
439.4141, 10.06216
439.8962, 13.81210
440.3783, 19.59741
440.8604, 23.69485
441.3426, 23.19696
441.8247, 21.44547
442.3068, 20.77292
442.7889, 22.14371
443.2710, 21.14505
443.7531, 13.26157
444.2353, 3.430634
444.7174, 2.703552
445.1995, 2.054199
445.6816, 1.032288
446.1637, 7.401947
446.6458, 16.28690
447.1280, 20.85635
447.6101, 18.52237
448.0922, 14.71680
448.5743, 12.32352
449.0564, 11.65869
449.5385, 11.32291
450.0207, 10.56628
450.5028, 10.75525
450.9849, 16.19305
451.4670, 28.70801
451.9491, 36.81607
452.4312, 34.13516
452.9134, 22.40524
453.3955, 15.07629
453.8776, 12.55978
454.3597, 12.69562
454.8418, 15.64307
455.3239, 20.38995
455.8061, 21.96057
456.2882, 17.63556
456.7703, 12.17621
457.2524, 13.51495
457.7345, 20.08505
458.2166, 25.53302
458.6988, 24.95926
459.1809, 21.80359
459.6630, 20.29276
460.1451, 21.30093
460.6272, 20.53375
461.1093, 12.00662
461.5915, 1.129242
462.0736, 5.189362
462.5557, 1.822662
463.0378, 3.677094
463.5199, 10.36728
464.0020, 17.61023
464.4842, 21.39755
464.9663, 17.93933
465.4484, 12.93399
465.9305, 9.321442
466.4126, 7.640228
466.8947, 6.571808
467.3769, 6.452667
467.8590, 6.799500
468.3411, 6.490601
468.8232, 4.412140
469.3053, 4.390259
469.7874, 8.137604
470.2696, 15.25778
470.7517, 18.28183
471.2338, 16.42749
471.7159, 12.88901
472.1980, 10.28339
472.6801, 8.432068
473.1623, 5.868988
473.6444, 1.418823
474.1265, 2.270447
474.6086, 1.484100
475.0907, 11.35931
475.5728, 18.78836
476.0550, 16.72751
476.5371, 10.20178
477.0192, 7.233643
477.5013, 8.101715
477.9834, 10.49054
478.4655, 14.95493
478.9477, 19.16580
479.4298, 19.75977
479.9119, 11.85059
480.3940, 5.036194
480.8761, 5.106293
481.3582, 10.33881
481.8404, 15.82303
482.3225, 23.30194
482.8046, 27.90894
483.2867, 26.56924
483.7688, 16.80829
484.2509, 8.809540
484.7331, 1.742676
485.2152, 2.256989
485.6973, 0.5027770
486.1794, 14.02771
486.6615, 21.99295
487.1436, 18.29623
487.6258, 5.894409
488.1079, 1.362823
488.5900, 2.743744
489.0721, 0.8284000
489.5542, 4.264771
490.0363, 12.60904
490.5185, 18.65857
491.0006, 22.51099
491.4827, 23.08963
491.9648, 16.27222
492.4469, 3.740936
492.9290, 5.066772
493.4112, 5.672302
493.8933, 1.741486
494.3754, 1.693573
494.8575, 4.786774
495.3397, 8.272705
495.8218, 15.47183
496.3039, 21.99774
496.7860, 21.75214
497.2681, 11.75391
497.7502, 3.368622
498.2324, 4.146332
498.7145, 9.710327
499.1966, 14.12979
499.6787, 15.84076
500.1608, 15.93671
500.6429, 13.81369
501.1251, 9.709198
501.6072, 7.078735
502.0893, 7.194855
502.5714, 7.661102
503.0535, 7.684662
503.5356, 6.751495
504.0178, 6.857391
504.4999, 8.318329
504.9820, 10.52997
505.4641, 12.49243
505.9462, 14.00717
506.4283, 16.48743
506.9105, 21.47083
507.3926, 27.45337
507.8747, 27.44495
508.3568, 21.14313
508.8389, 14.30072
509.3210, 11.85156
509.8032, 12.09750
510.2853, 9.458160
510.7674, 2.301941
511.2495, 3.725586
511.7316, 1.080353
512.2137, 6.899475
512.6959, 13.36255
513.1780, 14.03677
513.6601, 13.47421
514.1422, 14.79047
514.6243, 17.68069
515.1064, 19.83383
515.5886, 20.62851
516.0707, 20.20694
516.5528, 18.34091
517.0349, 13.37250
517.5170, 10.35040
517.9991, 11.53354
518.4813, 14.24487
518.9634, 14.99973
519.4455, 12.01791
519.9276, 9.802246
520.4097, 10.17325
520.8918, 12.69211
521.3740, 15.10910
521.8561, 17.71252
522.3382, 19.25858
522.8203, 17.67404
523.3024, 13.33746
523.7845, 13.75235
524.2667, 20.55511
524.7488, 27.43826
525.2309, 25.37961
525.7130, 16.68332
526.1951, 9.388153
526.6772, 6.373138
527.1594, 5.949127
527.6415, 7.262512
528.1236, 9.833313
528.6057, 11.57590
529.0878, 11.09634
529.5699, 9.445007
530.0521, 6.937073
530.5342, 3.075958
531.0163, 0.7488100
531.4984, 1.981873
531.9805, 4.573364
532.4626, 6.635895
532.9448, 8.401672
533.4269, 8.582214
533.9090, 5.610535
534.3911, 0.7932130
534.8732, 0.4515990
535.3553, 3.507629
535.8375, 8.045013
536.3196, 11.33862
536.8017, 13.47104
537.2838, 14.00577
537.7659, 12.67032
538.2480, 10.64972
538.7302, 8.511719
539.2123, 6.502289
539.6944, 6.813110
540.1765, 10.85941
540.6586, 15.69690
541.1407, 16.65195
541.6229, 14.74203
542.1050, 13.64645
542.5871, 16.78152
543.0692, 20.53906
543.5513, 21.93323
544.0334, 20.72192
544.5156, 18.91275
544.9977, 16.71906
545.4798, 14.74411
545.9619, 13.44986
546.4440, 13.68277
546.9261, 13.67322
547.4083, 11.88431
547.8904, 9.828461
548.3725, 10.50320
548.8546, 16.25842
549.3367, 20.88321
549.8188, 22.70129
550.3010, 21.92737
550.7831, 20.76083
551.2652, 19.53021
551.7473, 18.52017
552.2294, 16.47552
552.7115, 13.42413
553.1937, 13.72876
553.6758, 18.64249
554.1579, 23.77814
554.6400, 21.30756
555.1221, 14.06589
555.6042, 10.34772
556.0864, 15.66602
556.5685, 23.14505
557.0506, 27.07932
557.5327, 27.77789
558.0148, 26.26666
558.4969, 19.31525
558.9791, 13.11096
559.4612, 12.68863
559.9433, 20.30197
560.4254, 24.54462
560.9075, 19.84525
561.3896, 12.84375
561.8718, 9.434204
562.3539, 12.31042
562.8360, 14.10260
563.3181, 13.40067
563.8002, 11.69086
564.2823, 13.17444
564.7645, 18.81439
565.2466, 23.21375
565.7287, 23.61673
566.2108, 20.96960
566.6929, 20.32477
567.1750, 21.98148
567.6572, 22.94232
568.1393, 19.51755
568.6214, 14.19272
569.1035, 12.08109
569.5856, 14.93546
570.0677, 18.69748
570.5499, 20.70593
571.0320, 21.31223
571.5141, 21.09802
571.9962, 18.33798
572.4783, 16.72540
572.9604, 20.01166
573.4426, 26.59128
573.9247, 28.23380
574.4068, 14.77628
574.8889, 4.331207
575.3710, 5.786713
575.8531, 23.10828
576.3353, 30.81305
576.8174, 25.26556
577.2995, 15.37997
577.7816, 9.305573
578.2637, 7.387573
578.7458, 5.705566
579.2280, 3.164337
579.7101, 1.589996
580.1922, 5.621704
580.6743, 14.22083
581.1564, 21.52228
581.6385, 24.71896
582.1207, 25.14496
582.6028, 23.48087
583.0849, 20.05695
583.5670, 17.33344
584.0491, 16.98404
584.5313, 17.77957
585.0134, 19.21561
585.4955, 22.02661
585.9776, 22.78937
586.4597, 18.36560
586.9418, 12.38086
587.4240, 9.082275
587.9061, 11.23395
588.3882, 11.79202
588.8703, 8.933990
589.3524, 4.292389
589.8345, 3.165283
590.3167, 6.605225
590.7988, 9.512634
591.2809, 9.478302
591.7630, 7.040710
592.2451, 4.057159
592.7272, 0.6466670
593.2094, 0.6210940
593.6915, 4.029327
594.1736, 11.90555
594.6557, 18.20377
595.1378, 22.13763
595.6199, 23.90497
596.1021, 22.58514
596.5842, 19.43378
597.0663, 16.22812
597.5484, 11.84335
598.0305, 9.359680
598.5126, 11.37759
598.9948, 16.56021
599.4769, 19.09845
599.9590, 16.88062
600.4412, 14.18652
600.9233, 12.60684
601.4054, 12.26135
601.8875, 11.74930
602.3696, 11.05716
602.8517, 10.23712
603.3339, 9.306030
603.8160, 8.270203
604.2981, 7.038177
604.7802, 5.330170
605.2623, 4.421783
605.7444, 7.034576
606.2266, 11.87418
606.7087, 15.41205
607.1908, 17.10849
607.6729, 16.31088
608.1550, 10.69513
608.6371, 1.854614
609.1193, 5.228271
609.6014, 10.67178
610.0835, 11.99832
610.5656, 5.764221
611.0477, 9.879486
611.5298, 19.52161
612.0120, 20.02249
612.4941, 17.02713
612.9762, 13.54498
613.4583, 8.616028
613.9404, 7.278168
614.4225, 11.19098
614.9047, 16.18378
615.3868, 15.36093
615.8689, 9.237152
616.3510, 4.752350
616.8331, 4.280457
617.3152, 6.019684
617.7974, 7.606171
618.2795, 9.081177
618.7616, 10.70236
619.2437, 14.13937
619.7258, 16.63113
620.2079, 15.21072
620.6901, 9.792236
621.1722, 5.506287
621.6543, 4.965729
622.1364, 5.549133
622.6185, 5.657043
623.1006, 5.298065
623.5828, 3.978363
624.0649, 9.8572001E-02
624.5470, 3.487457
625.0291, 1.187531
625.5112, 8.205109
625.9933, 15.87665
626.4755, 20.28323
626.9576, 21.96649
627.4397, 20.97891
627.9218, 17.69455
628.4039, 14.96942
628.8860, 14.59723
629.3682, 15.39038
629.8503, 15.44348
630.3324, 15.02448
630.8145, 15.75583
631.2966, 22.01007
631.7787, 27.46509
632.2609, 26.09842
632.7430, 14.17542
633.2251, 7.263550
633.7072, 14.90256
634.1893, 24.79388
634.6714, 25.97260
635.1536, 10.93027
635.6357, 4.496185
636.1178, 11.78546
636.5999, 25.02158
637.0820, 29.21677
637.5641, 23.94235
638.0463, 19.57565
638.5284, 20.10059
639.0105, 23.02927
639.4926, 24.23267
639.9747, 23.61426
640.4568, 20.66721
640.9390, 10.77307
641.4211, 1.191254
641.9032, 0.5768740
642.3853, 9.504395
642.8674, 15.78531
643.3495, 11.13959
643.8317, 4.424072
644.3138, 1.764404
644.7959, 5.832123
645.2780, 10.49921
645.7601, 17.41782
646.2422, 23.47974
646.7244, 24.27094
647.2065, 18.46033
647.6886, 14.57428
648.1707, 15.04041
648.6528, 16.87616
649.1349, 12.73883
649.6171, 3.653107
650.0992, 3.264160
650.5813, 4.171021
651.0634, 1.454865
651.5455, 3.708008
652.0276, 10.76010
652.5098, 15.77469
652.9919, 15.15384
653.4740, 12.97385
653.9561, 11.61423
654.4382, 11.47983
654.9203, 11.14059
655.4025, 11.06619
655.8846, 10.21042
656.3667, 7.295380
656.8488, 0.2724000
657.3309, 2.477722
657.8130, 0.1200560
658.2952, 5.510620
658.7773, 14.06403
659.2594, 24.96643
659.7415, 29.77353
660.2236, 23.96121
660.7057, 14.94031
661.1879, 14.42200
661.6700, 19.55850
662.1521, 22.52625
662.6342, 16.77396
663.1163, 9.660889
663.5984, 5.034424
664.0806, 2.934509
664.5627, 2.552002
665.0448, 3.936707
665.5269, 6.873138
666.0090, 11.90933
666.4911, 19.65259
666.9733, 24.37589
667.4554, 25.94275
667.9375, 24.98987
668.4196, 20.84555
668.9017, 13.69992
669.3839, 10.79565
669.8660, 13.43698
670.3481, 17.39542
670.8302, 17.97620
671.3123, 16.14709
671.7944, 13.89270
672.2766, 11.39426
672.7587, 9.365387
673.2408, 8.968964
673.7229, 9.288849
674.2050, 8.525452
674.6871, 3.164154
675.1693, 3.9733998E-02
675.6514, 2.208771
676.1335, 8.540070
676.6156, 11.72885
677.0977, 10.85608
677.5798, 9.007324
678.0620, 6.980072
678.5441, 5.057404
679.0262, 6.630493
679.5083, 11.87689
679.9904, 17.94824
680.4725, 24.98013
680.9547, 30.57715
681.4368, 28.66223
681.9189, 17.55356
682.4010, 8.100769
682.8831, 10.79889
683.3652, 17.94659
683.8474, 21.71323
684.3295, 18.28616
684.8116, 14.78656
685.2937, 12.41068
685.7758, 10.31842
686.2579, 7.302765
686.7401, 2.476501
687.2222, 0.8315120
687.7043, 1.987396
688.1864, 1.288574
688.6685, 0.5713200
689.1506, 3.609192
689.6328, 8.116272
690.1149, 16.45175
690.5970, 24.92343
691.0791, 26.58182
691.5612, 22.77783
692.0433, 20.34946
692.5255, 25.90756
693.0076, 31.63608
693.4897, 32.20990
693.9718, 26.75110
694.4539, 22.28821
694.9360, 20.39142
695.4182, 19.16534
695.9003, 17.47357
696.3824, 14.91583
696.8645, 14.01303
697.3466, 15.36496
697.8287, 16.79749
698.3109, 14.99063
698.7930, 10.85858
699.2751, 9.723480
699.7572, 13.17654
700.2393, 17.34485
700.7214, 17.97534
701.2036, 16.58929
701.6857, 15.70615
702.1678, 15.78412
702.6499, 17.02902
703.1320, 21.48523
703.6141, 27.12582
704.0963, 28.98953
704.5784, 23.48135
705.0605, 18.75275
705.5426, 17.47385
706.0247, 18.97632
706.5068, 19.64786
706.9890, 19.58517
707.4711, 17.93799
707.9532, 12.89420
708.4353, 6.135956
708.9174, 1.112732
709.3995, 2.118713
709.8817, 2.242554
710.3638, 4.888702
710.8459, 13.52701
711.3280, 18.86850
711.8101, 20.38895
712.2922, 19.21661
712.7744, 11.28812
713.2565, 4.095703
713.7386, 2.762787
714.2207, 9.974854
714.7028, 16.19724
715.1849, 21.22485
715.6671, 25.62640
716.1492, 30.36658
716.6313, 35.12195
717.1134, 37.06924
717.5955, 35.76968
718.0776, 31.32281
718.5598, 19.60391
719.0419, 5.396973
719.5240, 1.858582
720.0061, 6.039917
720.4882, 15.62289
720.9703, 22.29547
721.4525, 25.84650
721.9346, 27.24738
722.4167, 26.89999
722.8988, 23.72360
723.3809, 15.17615
723.8630, 3.868774
724.3452, 1.923828
724.8273, 10.87286
725.3094, 18.08838
725.7915, 14.96747
726.2736, 6.762451
726.7557, 9.085724
727.2379, 20.54202
727.7200, 30.12103
728.2021, 29.57947
728.6842, 24.93158
729.1663, 20.47629
729.6484, 16.59436
730.1306, 13.29095
730.6127, 9.897797
731.0948, 7.709961
731.5769, 7.752106
732.0590, 11.05005
732.5411, 12.16675
733.0233, 10.64606
733.5054, 7.965912
733.9875, 3.559937
734.4696, 1.634125
734.9517, 0.7099910
735.4338, 12.53961
735.9160, 25.70172
736.3981, 33.33310
736.8802, 36.50253
737.3623, 36.31717
737.8444, 30.73270
738.3265, 26.39502
738.8087, 28.66403
739.2908, 32.71060
739.7729, 31.20724
740.2551, 19.73804
740.7372, 10.31821
741.2193, 4.280426
741.7014, 1.032715
742.1835, 0.5090330
742.6656, 0.3284610
743.1478, 1.492920
743.6299, 5.706818
744.1120, 10.58023
744.5941, 12.62137
745.0762, 12.86011
745.5583, 14.59521
746.0405, 23.84827
746.5226, 31.85229
747.0047, 31.26572
747.4868, 22.88171
747.9689, 16.19836
748.4510, 15.01471
748.9332, 13.41241
749.4153, 7.947754
749.8974, 0.4026790
750.3795, 1.857819
750.8616, 16.37643
751.3438, 28.53961
751.8259, 25.84735
752.3080, 14.66006
752.7901, 10.24020
753.2722, 12.70505
753.7543, 16.50439
754.2365, 18.09933
754.7186, 19.38525
755.2007, 22.23886
755.6828, 27.40814
756.1649, 31.01199
756.6470, 32.85455
757.1292, 32.58218
757.6113, 29.28500
758.0934, 21.66513
758.5755, 17.23965
759.0576, 16.64487
759.5397, 16.99780
760.0219, 15.97577
760.5040, 13.44714
760.9861, 7.364227
761.4682, 3.942352
761.9503, 10.97290
762.4324, 2.227936
762.9146, 13.35269
763.3967, 25.52267
763.8788, 33.38806
764.3609, 35.05341
764.8430, 23.06314
765.3251, 8.722321
765.8073, 6.101135
766.2894, 19.49432
766.7715, 27.52100
767.2536, 26.36145
767.7357, 19.97275
768.2178, 12.10254
768.7000, 3.938019
769.1821, 1.514771
769.6642, 9.227234
770.1463, 19.29880
770.6284, 27.83185
771.1105, 33.52673
771.5927, 33.87170
772.0748, 20.45004
772.5569, 10.47824
773.0390, 9.748199
773.5211, 14.88434
774.0032, 17.43564
774.4854, 16.52988
774.9675, 16.49673
775.4496, 19.42783
775.9317, 23.36063
776.4138, 23.31271
776.8959, 19.68866
777.3781, 14.57721
777.8602, 4.357758
778.3423, 2.714661
778.8244, 4.349548
779.3065, 21.74860
779.7886, 33.25626
780.2708, 30.33868
780.7529, 24.28909
781.2350, 18.08176
781.7171, 11.87421
782.1992, 6.883087
782.6813, 2.855103
783.1635, 1.228241
783.6456, 3.405243
784.1277, 8.458984
784.6098, 14.33078
785.0919, 20.77130
785.5740, 25.72968
786.0562, 26.96475
786.5383, 26.44193
787.0204, 25.47769
787.5025, 24.16995
787.9846, 22.52280
788.4667, 20.92020
788.9489, 18.55548
789.4310, 14.55228
789.9131, 8.732025
790.3952, 5.264801
790.8773, 4.343475
791.3594, 5.004059
791.8416, 7.471375
792.3237, 10.74808
792.8058, 12.16528
793.2879, 11.53806
793.7700, 11.73004
794.2521, 15.89276
794.7343, 20.94073
795.2164, 24.09930
795.6985, 24.50861
796.1806, 25.79028
796.6627, 31.05026
797.1448, 34.36282
797.6270, 30.43539
798.1091, 17.60800
798.5912, 11.81543
799.0733, 14.07812
799.5554, 18.18576
800.0375, 17.55383
800.5197, 14.59247
801.0018, 14.58365
801.4839, 18.72281
801.9660, 21.22388
802.4481, 18.42105
802.9302, 12.54352
803.4124, 4.685455
803.8945, 9.393738
804.3766, 14.73767
804.8587, 7.586304
805.3408, 3.408173
805.8229, 11.24628
806.3051, 15.98544
806.7872, 15.57544
807.2693, 8.969116
807.7514, 2.442902
808.2335, 4.169403
808.7156, 9.860229
809.1978, 12.82104
809.6799, 10.67493
810.1620, 9.108765
810.6441, 11.96902
811.1262, 15.68073
811.6083, 16.46652
812.0905, 11.65619
812.5726, 10.11539
813.0547, 12.79123
813.5368, 17.31091
814.0189, 22.11435
814.5010, 26.78473
814.9832, 27.94214
815.4653, 24.25851
815.9474, 19.04282
816.4295, 14.13861
816.9116, 10.80518
817.3937, 10.99420
817.8759, 17.85522
818.3580, 22.97809
818.8401, 23.28180
819.3222, 21.62582
819.8043, 21.02963
820.2864, 23.14551
820.7686, 23.82010
821.2507, 22.26224
821.7328, 19.64551
822.2149, 16.72769
822.6970, 14.01929
823.1791, 13.22934
823.6613, 15.59998
824.1434, 17.07260
824.6255, 13.38058
825.1076, 8.025543
825.5897, 4.952850
826.0718, 5.580933
826.5540, 7.544586
827.0361, 10.56656
827.5182, 15.22739
828.0003, 24.10638
828.4824, 37.01965
828.9645, 43.57553
829.4467, 41.68976
829.9288, 35.27286
830.4109, 25.08084
830.8930, 14.50977
831.3751, 9.070557
831.8572, 12.21817
832.3394, 16.13678
832.8215, 19.90115
833.3036, 22.20029
833.7857, 21.48984
834.2678, 16.24390
834.7499, 12.14731
835.2321, 9.046021
835.7142, 8.364838
836.1963, 14.16785
836.6784, 24.49954
837.1605, 29.38510
837.6426, 26.14056
838.1248, 20.95016
838.6069, 16.58972
839.0890, 13.86517
839.5711, 14.00891
840.0532, 20.47745
840.5353, 23.90616
841.0175, 23.49417
841.4996, 20.22772
841.9817, 13.52106
842.4638, 2.998413
842.9459, 1.761505
843.4280, 0.7604060
843.9102, 5.861359
844.3923, 8.841400
844.8744, 10.79800
845.3565, 13.81149
845.8386, 19.03833
846.3207, 22.59314
846.8029, 22.63174
847.2850, 20.42197
847.7671, 16.72229
848.2492, 9.530365
848.7313, 6.777130
849.2134, 9.534271
849.6956, 14.05365
850.1777, 16.65295
850.6598, 17.91125
851.1419, 20.10083
851.6240, 23.63431
852.1061, 26.68097
852.5883, 28.42551
853.0704, 28.71732
853.5525, 27.01071
854.0346, 21.98517
854.5167, 19.03961
854.9988, 19.80487
855.4810, 21.00253
855.9631, 20.53650
856.4452, 18.35388
856.9273, 19.14700
857.4094, 23.33514
857.8915, 26.25043
858.3737, 21.91348
858.8558, 14.80725
859.3379, 10.37885
859.8200, 9.365601
860.3021, 10.11975
860.7842, 16.03195
861.2664, 19.90503
861.7485, 15.40356
862.2306, 1.192932
862.7127, 1.712677
863.1948, 9.367401
863.6769, 19.87784
864.1591, 17.19183
864.6412, 7.186920
865.1233, 4.603790
865.6054, 9.339783
866.0875, 13.84863
866.5696, 13.54245
867.0518, 11.63461
867.5339, 10.13364
868.0160, 9.183990
868.4981, 7.021729
868.9802, 2.214111
869.4623, 0.7052610
869.9445, 1.817047
870.4266, 7.908142
870.9087, 8.042877
871.3908, 2.752808
871.8729, 2.308746
872.3550, 6.046722
872.8372, 6.253571
873.3193, 2.718689
873.8014, 18.39966
874.2835, 26.69006
874.7656, 16.84872
875.2477, 8.116730
875.7299, 5.184692
876.2120, 6.990295
876.6941, 9.554352
877.1762, 12.86301
877.6583, 17.38272
878.1404, 25.89017
878.6226, 32.95355
879.1047, 28.76532
879.5868, 17.29190
880.0689, 8.913635
880.5510, 7.879547
881.0331, 9.182983
881.5153, 12.98328
881.9974, 17.56921
882.4796, 19.19122
882.9617, 17.17624
883.4438, 17.15067
883.9259, 19.37222
884.4080, 21.65991
884.8901, 19.02698
885.3723, 13.51947
885.8544, 9.952148
886.3365, 10.76218
886.8186, 12.60147
887.3007, 16.35428
887.7828, 19.24460
888.2650, 16.62936
888.7471, 3.740845
889.2292, 1.029938
889.7113, 5.855377
890.1934, 16.59885
890.6755, 21.92883
891.1577, 22.78467
891.6398, 21.91861
892.1219, 19.56720
892.6040, 16.97693
893.0861, 14.00824
893.5682, 11.82547
894.0504, 11.62976
894.5325, 14.17130
895.0146, 17.83237
895.4967, 24.41388
895.9788, 28.78989
896.4609, 24.87421
896.9431, 14.30298
897.4252, 6.557861
897.9073, 2.142639
898.3894, 1.649231
898.8715, 9.819733
899.3536, 18.95816
899.8358, 21.98123
900.3179, 17.66711
900.8000, 14.10092
901.2821, 13.35788
901.7642, 12.21036
902.2463, 8.147522
902.7285, 2.179504
903.2106, 2.762268
903.6927, 9.647705
904.1748, 16.17886
904.6569, 17.72684
905.1390, 17.40829
905.6212, 18.80853
906.1033, 21.26596
906.5854, 21.72321
907.0675, 15.86465
907.5496, 12.15329
908.0317, 13.15878
908.5139, 17.39261
908.9960, 20.69739
909.4781, 23.05502
909.9602, 24.48004
910.4423, 25.77264
910.9244, 24.82996
911.4066, 15.69940
911.8887, 3.127991
912.3708, 4.245636
912.8529, 1.145538
913.3350, 6.362000
913.8171, 9.124786
914.2993, 10.25876
914.7814, 10.14432
915.2635, 8.577911
915.7456, 8.731232
916.2277, 11.35645
916.7098, 14.46124
917.1920, 16.36591
917.6741, 16.99097
918.1562, 14.97720
918.6383, 7.712158
919.1204, 6.491516
919.6025, 24.02878
920.0847, 41.38571
920.5668, 44.18970
921.0489, 29.64111
921.5310, 20.01709
922.0131, 15.46310
922.4952, 15.32602
922.9774, 24.33340
923.4595, 34.89282
923.9416, 33.11133
924.4237, 19.74289
924.9058, 9.658508
925.3879, 12.48721
925.8701, 16.80984
926.3522, 18.16339
926.8343, 16.69946
927.3164, 12.88580
927.7985, 6.271515
928.2806, 1.619019
928.7628, 1.923035
929.2449, 4.739014
929.7270, 6.301605
930.2091, 7.072906
930.6912, 8.479675
931.1733, 13.64075
931.6555, 17.12897
932.1376, 15.22867
932.6197, 11.64383
933.1018, 13.47806
933.5839, 21.92648
934.0660, 26.57147
934.5482, 24.90509
935.0303, 20.95587
935.5124, 20.89264
935.9945, 21.92432
936.4766, 18.12219
936.9587, 4.359528
937.4409, 3.925568
937.9230, 2.498535
938.4051, 13.13644
938.8872, 21.36871
939.3693, 28.38266
939.8514, 22.82498
940.3336, 2.803650
940.8157, 13.38614
941.2978, 3.108154
941.7799, 17.64899
942.2620, 24.26874
942.7441, 16.01065
943.2263, 9.137085
943.7084, 10.57773
944.1905, 14.30039
944.6726, 19.53128
945.1547, 25.11801
945.6368, 22.19727
946.1190, 10.00510
946.6011, 2.150543
947.0832, 7.395325
947.5653, 17.28247
948.0474, 21.30637
948.5295, 20.86377
949.0117, 19.20404
949.4938, 14.99597
949.9759, 12.96237
950.4580, 15.50592
950.9401, 19.42542
951.4222, 19.60550
951.9044, 15.98514
952.3865, 12.33627
952.8686, 8.963715
953.3507, 7.099030
953.8328, 8.723877
954.3149, 12.32092
954.7971, 16.40857
955.2792, 21.28769
955.7613, 24.04071
956.2434, 23.47672
956.7255, 21.66364
957.2076, 19.55551
957.6898, 17.16357
958.1719, 15.19830
958.6540, 13.64240
959.1361, 12.28848
959.6182, 10.77066
960.1003, 9.544098
960.5825, 9.096283
961.0646, 9.346924
961.5467, 9.725800
962.0288, 9.439514
962.5109, 10.63373
962.9930, 15.20963
963.4752, 20.36469
963.9573, 17.06787
964.4394, 6.984070
964.9215, 0.2997440
965.4036, 1.014404
965.8857, 4.912933
966.3679, 11.37402
966.8500, 17.79245
967.3321, 20.64868
967.8142, 16.75134
968.2963, 14.43985
968.7784, 14.73123
969.2606, 14.65637
969.7427, 9.502838
970.2248, 1.168427
970.7069, 1.249146
971.1890, 2.583344
971.6711, 6.778107
972.1533, 7.047913
972.6354, 6.713165
973.1175, 8.430664
973.5996, 12.19022
974.0817, 13.78076
974.5638, 12.56079
975.0460, 11.57471
975.5281, 12.95673
976.0102, 14.55576
976.4923, 10.29761
976.9744, 2.280090
977.4565, 3.333679
977.9387, 2.931549
978.4208, 0.7544250
978.9029, 2.618958
979.3850, 6.520569
979.8671, 11.03735
980.3492, 17.25815
980.8314, 15.92456
981.3135, 3.872711
981.7956, 7.641327
982.2777, 3.382355
982.7598, 8.253876
983.2419, 15.32309
983.7241, 15.65216
984.2062, 14.88339
984.6883, 14.31192
985.1704, 13.32983
985.6525, 11.64047
986.1346, 9.275360
986.6168, 5.749695
987.0989, 1.169373
987.5810, 1.142487
988.0631, 1.326508
988.5452, 6.449677
989.0273, 15.49472
989.5095, 25.47720
989.9916, 28.45633
990.4737, 16.54626
990.9558, 7.336884
991.4379, 1.987579
991.9200, 1.162689
992.4022, 9.906128
992.8843, 24.69070
993.3664, 28.83978
993.8485, 17.57898
994.3306, 6.211609
994.8127, 5.598572
995.2949, 9.058838
995.7770, 12.59564
996.2591, 16.20230
996.7412, 13.93521
997.2233, 3.489929
997.7054, 4.344849
998.1876, 0.6094970
998.6697, 8.500610
999.1518, 13.51013
999.6339, 14.54736
1000.116, 13.72739
1000.598, 10.69247
1001.080, 7.541199
1001.562, 2.800293
1002.044, 0.6488650
1002.527, 4.941986
1003.009, 20.65842
1003.491, 28.30878
1003.973, 23.36194
1004.455, 14.40182
1004.937, 8.662903
1005.419, 5.649750
1005.901, 5.273102
1006.384, 8.260986
1006.866, 10.58267
1007.348, 10.65298
1007.830, 11.65872
1008.312, 16.35208
1008.794, 23.64511
1009.276, 27.46042
1009.758, 27.86795
1010.240, 25.70605
1010.723, 17.85770
1011.205, 11.15372
1011.687, 11.78558
1012.169, 16.73376
1012.651, 17.33307
1013.133, 11.13651
1013.615, 7.099243
1014.097, 6.374603
1014.580, 8.692505
1015.062, 17.41769
1015.544, 27.83801
1016.026, 29.75735
1016.508, 19.77689
1016.990, 10.26706
1017.472, 4.093231
1017.954, 2.017365
1018.436, 4.872833
1018.919, 12.44855
1019.401, 22.51010
1019.883, 35.07660
1020.365, 42.71686
1020.847, 36.49075
1021.329, 27.16357
1021.811, 26.02213
1022.293, 30.18057
1022.776, 32.42151
1023.258, 29.57629
1023.740, 27.88904
1024.222, 28.42734
1024.704, 29.54199
1025.186, 29.46722
1025.668, 28.07153
1026.150, 24.01163
1026.632, 16.76620
1027.115, 11.40875
1027.597, 12.76862
1028.079, 15.59488
1028.561, 15.70996
1029.043, 13.46039
1029.525, 15.09296
1030.007, 21.36877
1030.489, 25.02539
1030.972, 20.34665
1031.454, 14.00949
1031.936, 17.87372
1032.418, 26.93115
1032.900, 30.41040
1033.382, 15.94403
1033.864, 9.063660
1034.346, 16.51297
1034.828, 26.56403
1035.311, 22.92838
1035.793, 8.890930
1036.275, 7.795135
1036.757, 21.67084
1037.239, 31.46869
1037.721, 14.74359
1038.203, 3.682129
1038.685, 2.980774
1039.167, 14.85092
1039.650, 22.16037
1040.132, 17.35803
1040.614, 12.58337
1041.096, 11.04721
1041.578, 12.55856
1042.060, 20.36145
1042.542, 30.21182
1043.024, 33.83725
1043.507, 24.99167
1043.989, 17.45340
1044.471, 12.59985
1044.953, 11.09158
1045.435, 15.75842
1045.917, 25.77106
1046.399, 25.58719
1046.881, 15.39575
1047.364, 5.216522
1047.846, 1.494720
1048.328, 2.812073
1048.810, 6.707672
1049.292, 23.77518
1049.774, 32.23996
1050.256, 30.89127
1050.738, 25.46390
1051.220, 15.31247
1051.703, 6.366821
1052.185, 9.139191
1052.667, 18.55692
1053.149, 26.63611
1053.631, 32.10959
1054.113, 34.67953
1054.595, 32.79996
1055.077, 29.56213
1055.559, 25.37042
1056.042, 21.25601
1056.524, 22.35446
1057.006, 27.57053
1057.488, 28.47824
1057.970, 14.21344
1058.452, 0.6782840
1058.934, 0.7924190
1059.416, 4.912445
1059.899, 7.676483
1060.381, 5.016937
1060.863, 9.191467
1061.345, 23.22113
1061.827, 35.53809
1062.309, 31.34067
1062.791, 19.28244
1063.273, 11.26630
1063.755, 8.353668
1064.238, 9.002106
1064.720, 18.44336
1065.202, 23.68604
1065.684, 19.03268
1066.166, 8.932312
1066.648, 6.878387
1067.130, 11.04352
1067.612, 12.18842
1068.094, 4.926300
1068.577, 7.1563996E-02
1069.059, 6.878021
1069.541, 17.00043
1070.023, 21.83365
1070.505, 20.56479
1070.987, 16.88928
1071.469, 10.16840
1071.951, 6.757629
1072.434, 13.89404
1072.916, 24.64282
1073.398, 32.47946
1073.880, 37.07104
1074.362, 37.79736
1074.844, 33.41660
1075.326, 26.08871
1075.808, 12.92935
1076.291, 2.370911
1076.773, 11.78018
1077.255, 32.88895
1077.737, 40.00018
1078.219, 28.73141
1078.701, 18.25266
1079.183, 17.12695
1079.665, 20.91464
1080.147, 29.41165
1080.630, 40.69199
1081.112, 42.28818
1081.594, 34.51062
1082.076, 26.74503
1082.558, 22.04114
1083.040, 19.59824
1083.522, 21.10107
1084.004, 23.36002
1084.486, 21.66992
1084.969, 13.25259
1085.451, 8.163116
1085.933, 6.352600
1086.415, 5.342438
1086.897, 2.104706
1087.379, 0.8872070
1087.861, 1.345398
1088.343, 7.946045
1088.826, 14.93723
1089.308, 23.02847
1089.790, 28.43561
1090.272, 31.06116
1090.754, 30.14920
1091.236, 21.63657
1091.718, 8.011841
1092.200, 2.026489
1092.682, 6.177246
1093.165, 9.700745
1093.647, 3.689270
1094.129, 3.120880
1094.611, 5.407318
1095.093, 3.587494
1095.575, 0.4488530
1096.057, 6.719360
1096.539, 9.913422
1097.022, 6.209595
1097.504, 1.507446
1097.986, 2.226044
1098.468, 5.616852
1098.950, 8.094177
1099.432, 9.745728
1099.914, 7.999847
1100.396, 1.456818
1100.879, 3.852112
1101.361, 2.465424
1101.843, 2.666473
1102.325, 6.054413
1102.807, 8.097748
1103.289, 10.43964
1103.771, 13.44138
1104.253, 17.72260
1104.735, 26.29373
1105.218, 32.58102
1105.700, 22.92871
1106.182, 1.965302
1106.664, 6.331665
1107.146, 0.5871280
1107.628, 9.801575
1108.110, 17.76611
1108.592, 21.28415
1109.074, 15.36429
1109.557, 3.714081
1110.039, 2.705750
1110.521, 12.51025
1111.003, 18.68872
1111.485, 16.27969
1111.967, 11.11200
1112.449, 6.159943
1112.931, 2.956787
1113.414, 4.133545
1113.896, 11.46484
1114.378, 13.88068
1114.860, 9.981750
1115.342, 7.357880
1115.824, 12.05371
1116.306, 19.10843
1116.788, 19.75150
1117.271, 16.66873
1117.753, 15.74094
1118.235, 24.86893
1118.717, 25.97510
1119.199, 13.82608
1119.681, 1.423492
1120.163, 4.059387
1120.645, 16.43213
1121.127, 23.37445
1121.609, 24.48544
1122.092, 23.37497
1122.574, 18.76218
1123.056, 16.17511
1123.538, 18.73407
1124.020, 23.62231
1124.502, 23.45233
1124.984, 18.59503
1125.466, 15.60504
1125.949, 16.13824
1126.431, 17.36865
1126.913, 18.01105
1127.395, 18.03754
1127.877, 16.48831
1128.359, 13.92261
1128.841, 15.90833
1129.323, 22.79272
1129.806, 28.27921
1130.288, 30.32245
1130.770, 29.56714
1131.252, 24.71329
1131.734, 18.25809
1132.216, 13.93948
1132.698, 12.50763
1133.180, 12.12210
1133.662, 12.87009
1134.145, 14.32422
1134.627, 16.87753
1135.109, 19.54199
1135.591, 21.10608
1136.073, 21.48380
1136.555, 20.41708
1137.037, 15.58179
1137.519, 12.78537
1138.001, 12.85910
1138.484, 13.98309
1138.966, 13.53116
1139.448, 12.86740
1139.930, 17.47186
1140.412, 26.53372
1140.894, 30.24600
1141.376, 19.96786
1141.858, 9.277222
1142.341, 6.3721001E-02
1142.823, 5.969238
1143.305, 1.882538
1143.787, 9.410828
1144.269, 13.72739
1144.751, 7.855835
1145.233, 5.813568
1145.715, 23.08099
1146.198, 39.26776
1146.680, 42.48157
1147.162, 35.60873
1147.644, 31.91516
1148.126, 31.12653
1148.608, 29.84940
1149.090, 27.23752
1149.572, 23.12128
1150.054, 14.64914
1150.536, 6.681458
1151.019, 4.732574
1151.501, 8.899384
1151.983, 9.714600
1152.465, 7.577209
1152.947, 4.828430
1153.429, 0.9338380
1153.911, 1.236145
1154.393, 2.727051
1154.876, 10.01123
1155.358, 15.74597
1155.840, 19.14322
1156.322, 22.36130
1156.804, 25.57843
1157.286, 27.85983
1157.768, 29.23276
1158.250, 28.69275
1158.733, 22.89813
1159.215, 13.93811
1159.697, 8.608582
1160.179, 8.769287
1160.661, 10.45218
1161.143, 13.77567
1161.625, 16.91678
1162.107, 17.48068
1162.589, 16.59894
1163.072, 15.74957
1163.554, 15.14377
1164.036, 15.85138
1164.518, 19.97504
1165.000, 21.90506
1165.482, 19.09024
1165.964, 14.08322
1166.446, 10.84589
1166.928, 9.192688
1167.411, 8.924347
1167.893, 10.19006
1168.375, 11.45624
1168.857, 12.34589
1169.339, 12.87271
1169.821, 12.28598
1170.303, 11.87259
1170.785, 17.94345
1171.268, 27.57425
1171.750, 30.71771
1172.232, 21.48944
1172.714, 12.48560
1173.196, 7.740967
1173.678, 5.975281
1174.160, 8.024902
1174.642, 12.33960
1175.125, 11.72095
1175.607, 7.388428
1176.089, 6.168365
1176.571, 16.70218
1177.053, 23.85760
1177.535, 17.21506
1178.017, 6.851685
1178.499, 1.459595
1178.981, 0.9731750
1179.464, 4.720917
1179.946, 12.16141
1180.428, 15.63568
1180.910, 4.909241
1181.392, 5.136261
1181.874, 7.210175
1182.356, 3.164551
1182.838, 6.420258
1183.320, 22.10394
1183.803, 26.69931
1184.285, 18.57056
1184.767, 9.868225
1185.249, 8.629547
1185.731, 10.96609
1186.213, 17.73895
1186.695, 25.44550
1187.177, 23.42123
1187.660, 10.76816
1188.142, 1.765350
1188.624, 1.349884
1189.106, 0.5233150
1189.588, 12.72607
1190.070, 24.53268
1190.552, 24.93552
1191.034, 15.74445
1191.516, 13.00079
1191.999, 16.96332
1192.481, 20.55194
1192.963, 22.05270
1193.445, 22.98825
1193.927, 24.51920
1194.409, 26.49808
1194.891, 29.50259
1195.373, 33.59247
1195.855, 33.57193
1196.338, 28.92206
1196.820, 24.58838
1197.302, 22.29764
1197.784, 21.58594
1198.266, 23.81790
1198.748, 26.36145
1199.230, 25.12878
1199.712, 18.66077
1200.195, 16.75439
1200.677, 20.09265
1201.159, 20.76578
1201.641, 10.07996
1202.123, 0.7636410
1202.605, 2.605988
1203.087, 14.31573
1203.569, 25.32855
1204.052, 36.31406
1204.534, 40.95029
1205.016, 38.52933
1205.498, 34.18674
1205.980, 32.35464
1206.462, 29.77444
1206.944, 20.93781
1207.426, 8.688141
1207.908, 0.4258120
1208.391, 7.332458
1208.873, 6.370117
1209.355, 4.028076
1209.837, 15.19699
1210.319, 19.61612
1210.801, 20.85217
1211.283, 22.19382
1211.765, 23.63376
1212.247, 25.26050
1212.730, 27.13666
1213.212, 28.49548
1213.694, 29.65952
1214.176, 30.59375
1214.658, 29.18341
1215.140, 27.40570
1215.622, 27.75375
1216.104, 29.47565
1216.587, 27.44312
1217.069, 19.74051
1217.551, 14.06738
1218.033, 11.60626
1218.515, 11.72162
1218.997, 16.17447
1219.479, 21.14078
1219.961, 21.23380
1220.443, 16.57217
1220.926, 15.67487
1221.408, 20.27762
1221.890, 22.38168
1222.372, 19.23193
1222.854, 16.15887
1223.336, 21.35168
1223.818, 29.05228
1224.300, 32.69489
1224.782, 31.26617
1225.265, 28.68311
1225.747, 24.18115
1226.229, 22.79779
1226.711, 27.09619
1227.193, 32.31003
1227.675, 32.72311
1228.157, 30.71503
1228.639, 29.22101
1229.122, 28.70682
1229.604, 26.38779
1230.086, 22.20975
1230.568, 15.84372
1231.050, 4.584778
1231.532, 3.469299
1232.014, 7.086975
1232.496, 22.90378
1232.979, 25.78558
1233.461, 12.47839
1233.943, 5.830139
1234.425, 6.159149
1234.907, 10.76227
1235.389, 20.66266
1235.871, 30.62283
1236.353, 36.77588
1236.835, 39.33710
1237.318, 37.95285
1237.800, 32.31308
1238.282, 26.78558
1238.764, 21.36584
1239.246, 16.59039
1239.728, 13.37833
1240.210, 11.62372
1240.692, 10.74265
1241.175, 11.04807
1241.657, 13.53680
1242.139, 18.75409
1242.621, 22.69394
1243.103, 25.39569
1243.585, 26.39395
1244.067, 23.98779
1244.549, 21.35068
1245.031, 22.05417
1245.514, 22.94995
1245.996, 17.74640
1246.478, 4.724182
1246.960, 10.67935
1247.442, 34.65158
1247.924, 49.13065
1248.406, 22.54532
1248.888, 3.275635
1249.370, 0.9378050
1249.853, 13.60559
1250.335, 19.14194
1250.817, 16.02744
1251.299, 17.89465
1251.781, 24.98505
1252.263, 31.97754
1252.745, 38.17218
1253.227, 40.37695
1253.710, 34.78482
1254.192, 26.36685
1254.674, 21.12567
1255.156, 18.62689
1255.638, 15.29413
1256.120, 11.12186
1256.602, 8.705231
1257.084, 10.94128
1257.567, 13.25378
1258.049, 14.17023
1258.531, 14.45700
1259.013, 14.78445
1259.495, 15.30188
1259.977, 18.85342
1260.459, 25.00989
1260.941, 28.61917
1261.423, 25.01431
1261.906, 21.54056
1262.388, 19.07574
1262.870, 17.77344
1263.352, 16.62415
1263.834, 15.85269
1264.316, 18.98480
1264.798, 25.57956
1265.280, 26.76669
1265.762, 13.47260
1266.245, 5.174255
1266.727, 5.989929
1267.209, 11.37845
1267.691, 16.69009
1268.173, 21.57733
1268.655, 26.72406
1269.137, 31.84027
1269.619, 30.41150
1270.102, 19.82867
1270.584, 7.981750
1271.066, 5.259521
1271.548, 13.05130
1272.030, 0.6202700
1272.512, 18.26517
1272.994, 26.29929
1273.476, 22.77469
1273.958, 23.93515
1274.441, 32.86884
1274.923, 38.81943
1275.405, 39.77280
1275.887, 35.77173
1276.369, 20.51288
1276.851, 5.172699
1277.333, 2.452972
1277.815, 10.52304
1278.297, 14.48029
1278.780, 14.03366
1279.262, 15.08853
1279.744, 19.21460
1280.226, 23.39069
1280.708, 25.07855
1281.190, 25.99646
1281.672, 27.27707
1282.154, 28.88669
1282.637, 30.25568
1283.119, 31.98694
1283.601, 32.73584
1284.083, 31.80795
1284.565, 31.33069
1285.047, 34.49857
1285.529, 36.16632
1286.011, 33.47791
1286.494, 27.95422
1286.976, 22.92737
1287.458, 18.85571
1287.940, 17.92566
1288.422, 21.02417
1288.904, 23.48666
1289.386, 23.35999
1289.868, 22.31723
1290.350, 19.82825
1290.833, 18.17947
1291.315, 26.09772
1291.797, 36.98569
1292.279, 35.23859
1292.761, 15.62405
1293.243, 6.260620
1293.725, 12.75812
1294.207, 18.08298
1294.689, 20.83194
1295.172, 21.42960
1295.654, 23.14804
1296.136, 25.73328
1296.618, 29.75848
1297.100, 35.51233
1297.582, 35.91586
1298.064, 29.96219
1298.546, 25.27759
1299.029, 25.03232
1299.511, 24.27713
1299.993, 15.32889
1300.475, 5.199341
1300.957, 0.7316890
1301.439, 1.594727
1301.921, 7.165192
1302.403, 17.14911
1302.885, 21.61124
1303.368, 16.36154
1303.850, 11.63431
1304.332, 16.62335
1304.814, 22.38470
1305.296, 23.04083
1305.778, 20.35138
1306.260, 21.44473
1306.742, 24.95273
1307.224, 24.70224
1307.707, 18.20609
1308.189, 13.59351
1308.671, 16.90967
1309.153, 18.72449
1309.635, 14.23749
1310.117, 8.096008
1310.599, 13.37891
1311.081, 23.60196
1311.564, 24.38452
1312.046, 11.39163
1312.528, 2.763275
1313.010, 1.229370
1313.492, 1.022644
1313.974, 0.1357420
1314.456, 8.7738000E-02
1314.938, 5.320587
1315.421, 5.141296
1315.903, 0.0000000E+00
##END=



