##NAMES=Adelite
##RRUFFID=R140962
##IDEAL CHEMISTRY=CaMgAs^5+^O_4_(OH)
##LOCALITY=Sterling Hill, Ogdensburg, Franklin Mining District, Sussex County, New Jersey, USA
##OWNER=RRUFF
##SOURCE=Marcus Origlieri
##DESCRIPTION=Massive aggregate of smokey orange granular crystals, associated with red zincite and black franklinite
##STATUS=The identification of this mineral has been confirmed by single-crystal X-ray diffraction.
##URL=rruff.info/R140962
100.1174, 0.0000000E+00
100.5995, 0.6439210
101.0816, 0.9895020
101.5637, 1.153503
102.0458, 1.423950
102.5280, 2.823547
103.0101, 2.140259
103.4922, 1.131104
103.9743, 0.1378170
104.4564, 0.5755620
104.9385, 7.1837999E-02
105.4207, 3.095215
105.9028, 6.140747
106.3849, 8.031189
106.8670, 8.677795
107.3491, 8.393188
107.8312, 7.127014
108.3134, 4.935974
108.7955, 4.026428
109.2776, 5.488647
109.7597, 8.207214
110.2418, 10.36627
110.7239, 11.62469
111.2061, 12.35376
111.6882, 12.69440
112.1703, 12.96582
112.6524, 13.61670
113.1345, 15.21570
113.6166, 17.68420
114.0988, 18.61499
114.5809, 16.22754
115.0630, 13.37842
115.5451, 11.56738
116.0272, 10.92145
116.5093, 10.89484
116.9915, 10.93610
117.4736, 10.34991
117.9557, 9.406921
118.4378, 7.788025
118.9199, 6.330017
119.4020, 5.634277
119.8842, 5.877808
120.3663, 6.825439
120.8484, 8.077637
121.3305, 9.026794
121.8126, 10.07660
122.2947, 12.20959
122.7769, 14.13867
123.2590, 14.57678
123.7411, 12.66412
124.2232, 9.043152
124.7053, 6.877380
125.1874, 6.770264
125.6696, 6.894775
126.1517, 6.739624
126.6338, 6.565247
127.1159, 6.683044
127.5980, 7.334900
128.0801, 9.148499
128.5623, 11.50323
129.0444, 13.68573
129.5265, 14.59338
130.0086, 14.54834
130.4907, 13.95172
130.9728, 13.20270
131.4550, 12.61249
131.9371, 11.91571
132.4192, 10.73920
132.9013, 8.321960
133.3834, 5.457703
133.8655, 4.716736
134.3477, 7.740723
134.8298, 10.62445
135.3119, 11.82458
135.7940, 11.78778
136.2761, 11.33508
136.7582, 10.95856
137.2404, 10.63776
137.7225, 10.40857
138.2046, 10.38831
138.6867, 10.35724
139.1688, 10.44574
139.6509, 10.57141
140.1331, 10.24371
140.6152, 8.761414
141.0973, 5.387451
141.5794, 3.838989
142.0615, 5.470276
142.5436, 7.499329
143.0258, 7.998535
143.5079, 6.754028
143.9900, 5.143433
144.4721, 5.077515
144.9542, 7.445984
145.4363, 9.090027
145.9185, 9.454895
146.4006, 9.267090
146.8827, 9.366028
147.3648, 10.00793
147.8469, 10.77496
148.3290, 10.80145
148.8112, 9.985352
149.2933, 9.534302
149.7754, 10.42944
150.2575, 12.11096
150.7396, 12.88422
151.2217, 12.10974
151.7039, 10.27655
152.1860, 7.995850
152.6681, 5.156433
153.1502, 2.658081
153.6323, 1.477051
154.1144, 1.681763
154.5966, 1.464294
155.0787, 0.1856080
155.5608, 2.146606
156.0429, 3.825439
156.5250, 5.125549
157.0071, 5.844849
157.4893, 5.656494
157.9714, 3.689392
158.4535, 1.277893
158.9356, 2.062683
159.4177, 5.425293
159.8998, 8.172058
160.3820, 10.05298
160.8641, 11.15295
161.3462, 11.55939
161.8283, 10.30115
162.3104, 9.681335
162.7925, 9.866577
163.2747, 10.84735
163.7568, 12.73840
164.2389, 15.61395
164.7210, 19.21570
165.2031, 22.47284
165.6852, 25.56256
166.1674, 28.11505
166.6495, 30.01239
167.1316, 31.35461
167.6137, 32.34882
168.0958, 33.16193
168.5779, 33.66156
169.0601, 33.03571
169.5422, 30.69464
170.0243, 28.11047
170.5064, 25.70813
170.9885, 23.50671
171.4706, 21.46448
171.9528, 19.45184
172.4349, 17.65643
172.9170, 16.54535
173.3991, 16.73596
173.8812, 17.10931
174.3633, 16.73529
174.8455, 15.59210
175.3276, 14.35944
175.8097, 13.06445
176.2918, 12.05835
176.7739, 12.08075
177.2560, 14.06329
177.7382, 16.60925
178.2203, 17.52850
178.7024, 16.28149
179.1845, 15.20941
179.6666, 15.75555
180.1487, 17.16949
180.6309, 18.58899
181.1130, 19.73688
181.5951, 20.59210
182.0772, 21.05328
182.5593, 20.78766
183.0414, 20.68604
183.5236, 21.02863
184.0057, 21.69592
184.4878, 22.57678
184.9699, 23.69800
185.4520, 24.95251
185.9341, 25.65186
186.4163, 25.31744
186.8984, 24.89337
187.3805, 24.46448
187.8626, 24.11896
188.3447, 23.94366
188.8268, 23.97705
189.3090, 24.22223
189.7911, 24.84662
190.2732, 26.71692
190.7553, 28.08185
191.2374, 28.19678
191.7195, 27.40808
192.2017, 26.50287
192.6838, 25.99371
193.1659, 25.86652
193.6480, 26.26868
194.1301, 27.64606
194.6122, 28.95587
195.0944, 29.89978
195.5765, 30.42572
196.0586, 30.43713
196.5407, 29.72266
197.0228, 28.25671
197.5049, 27.49548
197.9871, 27.68463
198.4692, 28.24963
198.9513, 28.92010
199.4334, 29.66614
199.9155, 30.48688
200.3976, 31.42963
200.8798, 32.41907
201.3619, 33.00262
201.8440, 32.79529
202.3261, 32.41553
202.8082, 32.53448
203.2903, 33.19519
203.7725, 33.73334
204.2546, 33.54639
204.7367, 32.82715
205.2188, 32.10333
205.7009, 31.16388
206.1830, 30.38446
206.6652, 30.51355
207.1473, 31.85059
207.6294, 33.00671
208.1115, 32.27557
208.5936, 30.79950
209.0757, 30.46753
209.5579, 32.70630
210.0400, 36.20618
210.5221, 38.32605
211.0042, 38.73499
211.4863, 38.37122
211.9685, 37.22510
212.4506, 35.78876
212.9327, 34.78748
213.4148, 34.67786
213.8969, 35.17542
214.3790, 35.28241
214.8612, 34.71753
215.3433, 34.41254
215.8254, 35.02502
216.3075, 36.08453
216.7896, 36.92468
217.2717, 37.09161
217.7539, 36.71381
218.2360, 36.26422
218.7181, 35.53455
219.2002, 34.89709
219.6823, 34.76678
220.1644, 34.76672
220.6466, 34.32489
221.1287, 32.96826
221.6108, 30.82233
222.0929, 29.11719
222.5750, 28.00360
223.0571, 27.31647
223.5393, 27.33148
224.0214, 27.68793
224.5035, 27.89355
224.9856, 27.64783
225.4677, 27.04492
225.9498, 26.65753
226.4320, 26.80707
226.9141, 26.93085
227.3962, 26.78503
227.8783, 26.47083
228.3604, 26.27899
228.8425, 26.41400
229.3247, 26.73535
229.8068, 26.29358
230.2889, 24.44208
230.7710, 22.63928
231.2531, 21.15302
231.7352, 19.92389
232.2174, 18.79187
232.6995, 17.66559
233.1816, 16.65570
233.6637, 16.10706
234.1458, 16.12372
234.6279, 16.29254
235.1101, 16.91290
235.5922, 17.58929
236.0743, 17.44476
236.5564, 15.93640
237.0385, 13.58929
237.5206, 12.09027
238.0028, 11.70569
238.4849, 11.38361
238.9670, 10.64081
239.4491, 9.712219
239.9312, 9.097290
240.4133, 8.965820
240.8955, 9.132874
241.3776, 9.234863
241.8597, 9.173828
242.3418, 9.296753
242.8239, 9.814392
243.3060, 10.63629
243.7882, 11.62421
244.2703, 12.95111
244.7524, 14.06238
245.2345, 13.99377
245.7166, 12.57635
246.1987, 11.07227
246.6809, 10.02606
247.1630, 9.373840
247.6451, 8.916504
248.1272, 8.662354
248.6093, 8.527527
249.0914, 8.530396
249.5736, 8.690613
250.0557, 8.494873
250.5378, 7.179199
251.0199, 5.143860
251.5020, 4.100220
251.9841, 4.758972
252.4663, 6.003723
252.9484, 6.928345
253.4305, 7.531677
253.9126, 7.819519
254.3947, 7.599731
254.8768, 6.999573
255.3590, 6.654907
255.8411, 6.693359
256.3232, 6.953857
256.8053, 7.541565
257.2874, 8.295654
257.7695, 8.633423
258.2516, 7.938171
258.7338, 6.427429
259.2159, 5.300049
259.6980, 4.679016
260.1801, 4.344910
260.6622, 4.236389
261.1443, 4.279724
261.6265, 4.307983
262.1086, 4.172058
262.5907, 3.934937
263.0728, 3.926575
263.5549, 4.380066
264.0370, 4.695374
264.5192, 4.651489
265.0013, 4.325439
265.4834, 3.824890
265.9655, 3.155273
266.4476, 2.386292
266.9297, 1.736938
267.4119, 1.148376
267.8940, 0.8155520
268.3761, 0.8531490
268.8582, 1.117004
269.3403, 1.492676
269.8224, 1.975342
270.3046, 2.414795
270.7867, 2.351135
271.2688, 1.460938
271.7509, 0.6293950
272.2330, 8.7646000E-02
272.7151, 0.6074830
273.1973, 0.7978520
273.6794, 0.5980830
274.1615, 0.1975710
274.6436, 3.5034001E-02
275.1257, 0.4200440
275.6078, 0.4224850
276.0900, 0.6303100
276.5721, 1.716553
277.0542, 1.805969
277.5363, 0.6499020
278.0184, 0.9432370
278.5005, 1.568665
278.9827, 0.7000120
279.4648, 8.4229996E-03
279.9469, 0.2642210
280.4290, 0.4717410
280.9111, 0.9367680
281.3932, 1.671875
281.8754, 2.360413
282.3575, 2.598999
282.8396, 2.327026
283.3217, 1.749390
283.8038, 0.3328250
284.2859, 0.9111940
284.7681, 1.468323
285.2502, 1.303589
285.7323, 0.6157840
286.2144, 0.5012820
286.6965, 2.231201
287.1786, 3.317749
287.6608, 3.574158
288.1429, 3.437744
288.6250, 2.950195
289.1071, 2.191956
289.5892, 1.276794
290.0714, 0.2482300
290.5535, 0.8967900
291.0356, 1.651855
291.5177, 1.820801
291.9998, 1.798157
292.4819, 1.532104
292.9641, 1.154968
293.4462, 0.9460450
293.9283, 1.131592
294.4104, 1.581604
294.8925, 1.363831
295.3746, 0.9122920
295.8568, 2.327271
296.3389, 1.752014
296.8210, 0.2586670
297.3031, 0.6351930
297.7852, 0.1887820
298.2673, 1.125000
298.7495, 1.885376
299.2316, 1.540588
299.7137, 1.282227
300.1958, 1.114014
300.6779, 1.074890
301.1600, 1.052734
301.6422, 1.044189
302.1243, 1.396484
302.6064, 2.867310
303.0885, 7.176880
303.5706, 9.425232
304.0527, 8.450745
304.5349, 6.387939
305.0170, 4.488220
305.4991, 3.128418
305.9812, 2.391174
306.4633, 2.462036
306.9454, 3.706543
307.4276, 4.507019
307.9097, 4.339600
308.3918, 4.235962
308.8739, 5.066528
309.3560, 6.617493
309.8381, 7.796387
310.3203, 7.494202
310.8024, 5.527893
311.2845, 4.942200
311.7666, 6.832031
312.2487, 8.758789
312.7308, 9.789673
313.2130, 10.19653
313.6951, 10.70868
314.1772, 11.80737
314.6593, 13.39447
315.1414, 14.73279
315.6235, 15.61890
316.1057, 16.48236
316.5878, 17.28632
317.0699, 18.12335
317.5520, 19.16241
318.0341, 20.48047
318.5162, 21.93494
318.9984, 23.12457
319.4805, 23.32178
319.9626, 24.24200
320.4447, 26.56378
320.9268, 29.24811
321.4089, 31.16388
321.8911, 32.08093
322.3732, 32.86896
322.8553, 34.85229
323.3374, 38.60492
323.8195, 42.26801
324.3016, 45.59814
324.7838, 48.92737
325.2659, 52.54419
325.7480, 56.44312
326.2301, 60.28479
326.7122, 63.70386
327.1943, 66.59271
327.6765, 70.04852
328.1586, 74.80481
328.6407, 79.21259
329.1228, 82.30170
329.6049, 84.51294
330.0870, 87.06305
330.5692, 90.90503
331.0513, 95.75983
331.5334, 99.06250
332.0155, 100.4006
332.4976, 100.4904
332.9797, 99.25140
333.4619, 96.88837
333.9440, 93.56158
334.4261, 89.29071
334.9082, 84.27472
335.3904, 78.85303
335.8725, 71.85278
336.3546, 66.35797
336.8367, 63.49188
337.3188, 61.52594
337.8009, 59.00793
338.2831, 55.65668
338.7652, 52.20428
339.2473, 49.58405
339.7294, 47.77643
340.2115, 46.88281
340.6936, 47.63562
341.1758, 48.49939
341.6579, 48.50183
342.1400, 47.80060
342.6221, 47.27582
343.1042, 47.67188
343.5863, 49.01825
344.0685, 50.85321
344.5506, 53.92285
345.0327, 56.62921
345.5148, 58.23627
345.9969, 59.30920
346.4790, 60.69702
346.9612, 62.86084
347.4433, 65.66864
347.9254, 68.84741
348.4075, 72.81335
348.8896, 76.34192
349.3717, 78.90338
349.8539, 81.24054
350.3360, 84.23615
350.8181, 88.08624
351.3002, 91.99622
351.7823, 94.80212
352.2644, 96.33929
352.7466, 97.24969
353.2287, 97.53363
353.7108, 97.32745
354.1929, 96.72229
354.6750, 95.69629
355.1571, 94.16107
355.6393, 91.99744
356.1214, 89.22363
356.6035, 86.69458
357.0856, 84.29681
357.5677, 82.34851
358.0498, 81.49902
358.5320, 81.07483
359.0141, 79.88672
359.4962, 77.17059
359.9783, 73.47693
360.4604, 70.17444
360.9425, 67.07513
361.4247, 64.82635
361.9068, 64.25964
362.3889, 64.21631
362.8710, 63.76599
363.3531, 62.66144
363.8352, 61.01898
364.3174, 58.81146
364.7995, 55.96216
365.2816, 53.25348
365.7637, 50.55652
366.2458, 48.31329
366.7279, 47.24866
367.2101, 47.12079
367.6922, 46.47406
368.1743, 44.08759
368.6564, 40.27979
369.1385, 36.45178
369.6206, 32.42944
370.1028, 28.77795
370.5849, 25.73578
371.0670, 23.26721
371.5491, 21.47595
372.0312, 20.76740
372.5133, 20.35345
372.9955, 18.96509
373.4776, 16.48828
373.9597, 14.17072
374.4418, 12.62817
374.9239, 11.46893
375.4060, 10.21503
375.8882, 8.818542
376.3703, 7.370178
376.8524, 5.836182
377.3345, 4.275452
377.8166, 2.923889
378.2987, 1.851257
378.7809, 0.9788210
379.2630, 0.3165280
379.7451, 0.1695560
380.2272, 0.7877810
380.7093, 1.979919
381.1914, 3.200989
381.6736, 3.587036
382.1557, 3.043274
382.6378, 2.406921
383.1199, 2.197266
383.6020, 2.407410
384.0841, 2.829773
384.5663, 3.847961
385.0484, 4.688965
385.5305, 4.862976
386.0126, 4.487427
386.4947, 3.870300
386.9768, 3.063599
387.4590, 2.239136
387.9411, 1.876343
388.4232, 2.274902
388.9053, 2.188599
389.3874, 1.103210
389.8695, 0.4677120
390.3517, 2.007629
390.8338, 3.416321
391.3159, 4.727783
391.7980, 6.040161
392.2801, 7.389038
392.7622, 8.173401
393.2444, 7.895142
393.7265, 7.580688
394.2086, 7.744446
394.6907, 8.305725
395.1728, 9.015259
395.6549, 9.754639
396.1371, 10.45801
396.6192, 10.82782
397.1013, 10.43781
397.5834, 10.23792
398.0655, 10.12286
398.5476, 10.31549
399.0298, 11.11420
399.5119, 12.56561
399.9940, 14.39294
400.4761, 16.28925
400.9582, 18.41577
401.4403, 20.00659
401.9225, 20.43127
402.4046, 20.98181
402.8867, 22.49127
403.3688, 24.64014
403.8509, 26.52661
404.3330, 27.49158
404.8152, 27.72296
405.2973, 28.29211
405.7794, 29.29401
406.2615, 30.52795
406.7436, 32.00049
407.2257, 33.63544
407.7079, 35.52386
408.1900, 37.67456
408.6721, 39.57385
409.1542, 40.22723
409.6363, 39.25537
410.1184, 39.22888
410.6006, 41.27356
411.0827, 43.57434
411.5648, 45.31024
412.0469, 46.51709
412.5290, 47.49432
413.0111, 48.20117
413.4933, 48.86829
413.9754, 50.34119
414.4575, 52.90613
414.9396, 55.52063
415.4217, 57.80536
415.9038, 59.81555
416.3860, 61.40161
416.8681, 62.29370
417.3502, 63.53406
417.8323, 66.49335
418.3144, 70.93738
418.7965, 74.77240
419.2787, 77.46338
419.7608, 79.38892
420.2429, 81.20038
420.7250, 82.86310
421.2071, 83.41943
421.6892, 81.40320
422.1714, 78.62451
422.6535, 77.71289
423.1356, 78.86188
423.6177, 80.30756
424.0998, 81.05829
424.5819, 81.11469
425.0641, 80.72711
425.5462, 79.40839
426.0283, 78.27277
426.5104, 78.13440
426.9925, 78.47461
427.4746, 78.31116
427.9568, 77.31183
428.4389, 75.72125
428.9210, 73.90479
429.4031, 71.93665
429.8852, 69.38300
430.3673, 66.12836
430.8495, 62.36560
431.3316, 57.68970
431.8137, 52.47620
432.2958, 47.99634
432.7779, 45.24805
433.2600, 43.96484
433.7422, 42.03339
434.2243, 38.38617
434.7064, 35.34454
435.1885, 33.34613
435.6706, 32.02283
436.1527, 31.11102
436.6349, 30.48279
437.1170, 29.92749
437.5991, 28.97937
438.0812, 27.21820
438.5633, 26.56281
439.0454, 28.54077
439.5276, 30.22058
440.0097, 30.34363
440.4918, 29.26263
440.9739, 27.84131
441.4560, 26.39923
441.9381, 25.22815
442.4203, 25.46143
442.9024, 27.97632
443.3845, 29.60547
443.8666, 28.55963
444.3487, 26.77362
444.8308, 25.67511
445.3130, 25.51654
445.7951, 25.89905
446.2772, 26.66852
446.7593, 27.75635
447.2414, 28.65771
447.7235, 29.07001
448.2057, 29.75836
448.6878, 31.59973
449.1699, 34.18726
449.6520, 36.58984
450.1341, 38.72083
450.6162, 40.44751
451.0984, 41.08264
451.5805, 40.92828
452.0626, 42.07117
452.5447, 45.77026
453.0268, 50.61548
453.5089, 53.72705
453.9911, 54.72266
454.4732, 56.27582
454.9553, 59.24365
455.4374, 62.90460
455.9195, 66.81439
456.4016, 70.81134
456.8838, 74.25348
457.3659, 76.55573
457.8480, 77.78656
458.3301, 79.29114
458.8122, 81.54724
459.2943, 83.47467
459.7765, 84.36267
460.2586, 84.94073
460.7407, 86.30518
461.2228, 88.77863
461.7049, 91.59741
462.1870, 93.39972
462.6692, 93.17401
463.1513, 95.25671
463.6334, 100.8885
464.1155, 107.4581
464.5976, 114.5052
465.0797, 121.6134
465.5619, 128.2069
466.0440, 133.7969
466.5261, 138.8386
467.0082, 144.6765
467.4903, 151.9996
467.9724, 158.2855
468.4546, 163.2911
468.9367, 166.7237
469.4188, 168.3571
469.9009, 168.1500
470.3830, 165.9617
470.8651, 161.4343
471.3473, 154.8090
471.8294, 146.6487
472.3115, 136.5039
472.7936, 126.2752
473.2757, 116.8579
473.7578, 108.3675
474.2400, 101.2674
474.7221, 96.15771
475.2042, 91.58765
475.6863, 86.43811
476.1684, 81.02393
476.6505, 76.43384
477.1327, 73.07666
477.6148, 70.10968
478.0969, 66.26935
478.5790, 61.35339
479.0611, 57.38812
479.5432, 54.93347
480.0254, 53.08563
480.5075, 51.54938
480.9896, 50.14368
481.4717, 48.42987
481.9538, 46.17908
482.4359, 43.75073
482.9181, 42.13312
483.4002, 42.11066
483.8823, 41.76166
484.3644, 40.66174
484.8465, 39.54425
485.3286, 39.02325
485.8108, 39.06055
486.2929, 39.12097
486.7750, 38.66797
487.2571, 37.82013
487.7392, 37.64349
488.2213, 38.48859
488.7035, 39.47211
489.1856, 40.36127
489.6677, 41.23199
490.1498, 42.10706
490.6319, 42.98889
491.1140, 44.04712
491.5962, 45.75763
492.0783, 47.96155
492.5604, 49.16083
493.0425, 48.73474
493.5246, 48.20557
494.0067, 49.17389
494.4889, 50.89111
494.9710, 51.57208
495.4531, 50.10913
495.9352, 48.34210
496.4173, 47.77252
496.8994, 48.13318
497.3816, 48.73212
497.8637, 49.58154
498.3458, 49.80115
498.8279, 47.79578
499.3100, 42.92438
499.7921, 39.06610
500.2743, 37.23889
500.7564, 35.82617
501.2385, 33.78088
501.7206, 31.23285
502.2027, 28.86841
502.6848, 27.05011
503.1670, 25.56281
503.6491, 23.93146
504.1312, 21.95404
504.6133, 20.35059
505.0954, 19.49524
505.5775, 18.67688
506.0597, 17.06104
506.5418, 14.93561
507.0239, 13.54761
507.5060, 14.16248
507.9881, 16.16272
508.4702, 16.59143
508.9524, 14.85266
509.4345, 12.93646
509.9166, 11.27350
510.3987, 9.893799
510.8808, 8.859070
511.3629, 8.176025
511.8451, 7.799805
512.3271, 7.987000
512.8093, 8.455933
513.2914, 8.333374
513.7735, 7.450989
514.2556, 6.451416
514.7377, 5.832031
515.2198, 5.451660
515.7020, 4.751648
516.1841, 3.231384
516.6662, 2.018005
517.1483, 1.723083
517.6304, 2.055420
518.1125, 2.720215
518.5947, 3.621216
519.0768, 4.247864
519.5589, 3.992676
520.0410, 2.732666
520.5231, 1.508972
521.0052, 0.1775510
521.4874, 0.9378050
521.9695, 1.947144
522.4516, 2.614929
522.9337, 2.400696
523.4158, 1.151733
523.8979, 0.3461300
524.3801, 0.8076170
524.8622, 4.1260000E-02
525.3443, 0.4737550
525.8264, 0.3283080
526.3085, 0.1463620
526.7906, 1.275818
527.2728, 2.585388
527.7549, 3.118042
528.2370, 2.273682
528.7191, 0.9589230
529.2012, 0.1719360
529.6833, 8.8379003E-02
530.1655, 0.3240970
530.6476, 1.831604
531.1297, 3.377869
531.6118, 3.634521
532.0939, 2.785156
532.5760, 1.963745
533.0582, 1.125610
533.5403, 0.6217040
534.0224, 1.003662
534.5045, 1.980164
534.9866, 2.659607
535.4688, 2.637390
535.9509, 2.202271
536.4330, 1.901978
536.9151, 1.813110
537.3972, 1.699402
537.8793, 1.871765
538.3615, 1.735413
538.8436, 0.4359740
539.3257, 1.414124
539.8078, 2.368652
540.2899, 1.562012
540.7720, 0.2836910
541.2542, 1.548828
541.7363, 2.123962
542.2184, 2.458496
542.7005, 2.477966
543.1826, 2.374207
543.6647, 2.270203
544.1469, 2.142639
544.6290, 1.862854
545.1111, 1.255005
545.5932, 0.5399170
546.0753, 3.8086001E-02
546.5574, 0.2504880
547.0396, 0.4263310
547.5217, 0.5010990
548.0038, 0.5057980
548.4859, 0.4743650
548.9680, 0.3955080
549.4501, 0.3585820
549.9323, 0.4407350
550.4144, 0.5176390
550.8965, 0.4020390
551.3786, 0.1770630
551.8607, 0.1336670
552.3428, 0.4307250
552.8250, 0.9813840
553.3071, 1.602722
553.7892, 2.618225
554.2713, 3.098206
554.7534, 2.753174
555.2355, 2.210999
555.7177, 1.755798
556.1998, 1.406555
556.6819, 1.095886
557.1640, 0.7805790
557.6461, 0.4833370
558.1282, 0.2138670
558.6104, 5.9204001E-02
559.0925, 6.9458000E-02
559.5746, 0.5972290
560.0567, 1.192932
560.5388, 0.8190310
561.0209, 0.3464360
561.5031, 1.000122
561.9852, 2.3190000E-03
562.4673, 1.259705
562.9494, 1.112976
563.4315, 0.1549680
563.9136, 0.9995120
564.3958, 0.7088620
564.8779, 6.6528000E-02
565.3600, 0.2167970
565.8421, 0.5144040
566.3242, 1.194031
566.8063, 1.972900
567.2885, 2.557617
567.7706, 2.691589
568.2527, 2.511292
568.7348, 2.303589
569.2169, 2.204712
569.6990, 2.173767
570.1812, 2.125427
570.6633, 2.043640
571.1454, 2.021484
571.6275, 2.198486
572.1096, 2.295471
572.5917, 1.916199
573.0739, 1.368652
573.5560, 1.404419
574.0381, 2.530029
574.5202, 3.953674
575.0023, 4.850037
575.4844, 5.269287
575.9666, 5.349609
576.4487, 4.953918
576.9308, 4.804688
577.4129, 5.954773
577.8950, 8.426086
578.3771, 9.785767
578.8593, 9.060425
579.3414, 8.193787
579.8235, 7.976990
580.3056, 8.206421
580.7877, 8.634644
581.2698, 9.180847
581.7520, 9.660828
582.2341, 9.852295
582.7162, 9.738708
583.1984, 9.445862
583.6805, 8.725037
584.1626, 8.157227
584.6447, 7.696411
585.1268, 7.553162
585.6089, 8.238220
586.0911, 9.903564
586.5732, 11.31787
587.0553, 10.81873
587.5374, 9.063110
588.0195, 8.887451
588.5016, 10.87402
588.9838, 12.58313
589.4659, 12.15045
589.9480, 10.39221
590.4301, 9.911926
590.9122, 11.69525
591.3943, 12.77386
591.8765, 11.22815
592.3586, 9.141907
592.8407, 8.959106
593.3228, 10.73407
593.8049, 12.88989
594.2870, 14.35706
594.7692, 15.12079
595.2513, 15.01611
595.7334, 13.05823
596.2155, 12.00354
596.6976, 12.59955
597.1797, 13.62500
597.6619, 14.42224
598.1440, 15.03760
598.6261, 15.72559
599.1082, 16.61639
599.5903, 17.49957
600.0724, 17.87494
600.5546, 17.73602
601.0367, 17.86151
601.5188, 18.69348
602.0009, 19.58264
602.4830, 19.53888
602.9651, 18.59131
603.4473, 17.95789
603.9294, 18.13293
604.4115, 18.32800
604.8936, 18.02081
605.3757, 17.39392
605.8578, 16.75537
606.3400, 16.23242
606.8221, 16.00201
607.3042, 16.47614
607.7863, 17.93414
608.2684, 18.24646
608.7505, 16.11200
609.2327, 14.39301
609.7148, 13.96558
610.1969, 14.35919
610.6790, 15.20148
611.1611, 16.41754
611.6432, 17.17993
612.1254, 16.46124
612.6075, 14.81708
613.0896, 13.89313
613.5717, 13.86523
614.0538, 14.07092
614.5359, 14.28192
615.0181, 14.35657
615.5002, 13.80328
615.9823, 12.08160
616.4644, 10.99451
616.9465, 11.33740
617.4286, 12.06030
617.9108, 12.32239
618.3929, 12.20868
618.8750, 12.23218
619.3571, 12.65851
619.8392, 13.20038
620.3214, 13.25958
620.8035, 12.85516
621.2856, 12.33838
621.7677, 11.24908
622.2498, 10.40912
622.7319, 10.65332
623.2141, 11.50616
623.6962, 11.62274
624.1783, 9.994324
624.6604, 8.277527
625.1425, 8.374146
625.6246, 9.728760
626.1068, 10.49084
626.5889, 10.22980
627.0710, 9.606873
627.5531, 9.143005
628.0352, 8.848145
628.5173, 8.925232
628.9995, 9.759460
629.4816, 10.41168
629.9637, 10.56085
630.4458, 10.49939
630.9279, 10.56201
631.4100, 10.77448
631.8922, 10.87439
632.3743, 10.54767
632.8564, 9.959534
633.3385, 9.819580
633.8206, 10.24274
634.3027, 10.55054
634.7849, 10.50024
635.2670, 10.36176
635.7491, 10.28662
636.2312, 10.25769
636.7133, 10.45123
637.1954, 11.26135
637.6776, 12.02405
638.1597, 12.21936
638.6418, 11.95007
639.1239, 11.41107
639.6060, 10.67395
640.0881, 9.941345
640.5703, 9.462708
641.0524, 9.247559
641.5345, 9.173035
642.0166, 9.580627
642.4987, 9.752014
642.9808, 9.388611
643.4630, 8.813599
643.9451, 8.263245
644.4272, 7.833923
644.9093, 7.681152
645.3914, 8.090576
645.8735, 8.781555
646.3557, 9.042419
646.8378, 8.865540
647.3199, 8.863464
647.8020, 9.417969
648.2841, 9.960632
648.7662, 9.499756
649.2484, 7.780884
649.7305, 6.597046
650.2126, 6.325684
650.6947, 6.382629
651.1768, 6.573486
651.6589, 6.834961
652.1411, 7.103027
652.6232, 7.354492
653.1053, 7.665344
653.5874, 8.218323
654.0695, 9.018066
654.5516, 9.440247
655.0338, 9.357666
655.5159, 9.183044
655.9980, 9.044495
656.4801, 8.918457
656.9622, 8.651489
657.4443, 8.163208
657.9265, 8.178955
658.4086, 9.654785
658.8907, 11.40314
659.3728, 11.93262
659.8549, 11.36621
660.3370, 10.94360
660.8192, 11.32617
661.3013, 11.86517
661.7834, 11.26361
662.2655, 8.979187
662.7476, 7.400330
663.2297, 6.864807
663.7119, 6.755066
664.1940, 7.235474
664.6761, 7.847717
665.1582, 7.982300
665.6403, 7.527405
666.1224, 6.979248
666.6046, 6.637695
667.0867, 6.408447
667.5688, 6.146423
668.0509, 5.914673
668.5330, 5.929932
669.0151, 6.302246
669.4973, 6.836731
669.9794, 7.226746
670.4615, 7.529297
670.9436, 7.656738
671.4257, 7.493530
671.9078, 7.268372
672.3900, 7.118530
672.8721, 7.026489
673.3542, 6.742615
673.8363, 6.162476
674.3184, 5.722229
674.8005, 6.127014
675.2827, 7.273682
675.7648, 7.860596
676.2469, 7.672668
676.7290, 7.452087
677.2111, 7.633667
677.6932, 7.950256
678.1754, 7.932739
678.6575, 7.535950
679.1396, 7.080078
679.6217, 6.620972
680.1038, 6.220764
680.5859, 5.872803
681.0681, 5.588867
681.5502, 5.367859
682.0323, 5.204224
682.5144, 5.202698
682.9965, 5.618103
683.4786, 6.501831
683.9608, 6.950989
684.4429, 6.872925
684.9250, 6.554688
685.4071, 5.793579
685.8892, 5.015503
686.3713, 4.721252
686.8535, 4.973999
687.3356, 5.320740
687.8177, 5.705627
688.2998, 5.985657
688.7819, 6.065033
689.2640, 5.927734
689.7462, 5.405121
690.2283, 4.436432
690.7104, 3.450592
691.1925, 3.102020
691.6746, 3.501312
692.1567, 3.515198
692.6389, 2.622040
693.1210, 2.061523
693.6031, 2.306946
694.0852, 2.922241
694.5673, 3.489532
695.0494, 3.951233
695.5316, 4.429047
696.0137, 5.274841
696.4958, 5.997070
696.9779, 5.735321
697.4600, 4.702209
697.9421, 3.964233
698.4243, 3.929962
698.9064, 3.999115
699.3885, 3.364838
699.8706, 1.939514
700.3527, 0.9664310
700.8348, 0.7388920
701.3170, 0.6175540
701.7991, 0.2981570
702.2812, 0.1700740
702.7633, 0.9271850
703.2454, 2.412476
703.7275, 3.332214
704.2097, 2.415283
704.6918, 0.8520200
705.1739, 0.5089110
705.6560, 1.228485
706.1381, 2.095947
706.6202, 2.900360
707.1024, 3.577698
707.5845, 4.116058
708.0666, 4.510529
708.5487, 4.308594
709.0308, 2.819153
709.5129, 1.676300
709.9951, 1.247437
710.4772, 1.152069
710.9593, 1.202209
711.4414, 1.293304
711.9235, 1.241394
712.4056, 0.8968810
712.8878, 0.4329830
713.3699, 9.6984997E-02
713.8520, 0.1194760
714.3341, 0.2319030
714.8162, 0.2155760
715.2983, 0.2550660
715.7805, 0.5834960
716.2626, 1.091614
716.7447, 1.155304
717.2268, 9.4085999E-02
717.7089, 0.4176330
718.1910, 0.3372500
718.6732, 1.176300
719.1553, 1.163513
719.6374, 0.5234990
720.1195, 1.7302999E-02
720.6016, 2.6642000E-02
721.0837, 0.1908260
721.5659, 0.1421510
722.0480, 0.8032230
722.5301, 0.6667480
723.0122, 0.5368350
723.4943, 1.543610
723.9764, 1.492401
724.4586, 0.8356320
724.9407, 0.7851870
725.4228, 1.843842
725.9049, 2.261353
726.3870, 1.578522
726.8691, 0.5953670
727.3513, 0.6084900
727.8334, 1.693787
728.3155, 2.126984
728.7976, 1.746918
729.2797, 0.9767760
729.7618, 1.5961001E-02
730.2440, 1.033813
730.7261, 1.174957
731.2082, 0.3427120
731.6903, 0.1896060
732.1724, 0.2337340
732.6545, 0.9608760
733.1367, 1.050781
733.6188, 0.3784180
734.1009, 0.2783510
734.5830, 1.223846
735.0651, 1.796417
735.5472, 1.705536
736.0294, 1.155090
736.5115, 0.2170720
736.9936, 0.9836430
737.4757, 2.056427
737.9578, 2.773865
738.4399, 3.111359
738.9221, 2.881531
739.4042, 2.127869
739.8863, 1.543823
740.3684, 1.345001
740.8505, 1.156464
741.3326, 0.5538640
741.8148, 0.3903500
742.2969, 0.8563230
742.7790, 0.4926150
743.2611, 0.1748350
743.7432, 1.4343000E-02
744.2253, 0.1086430
744.7075, 1.5991000E-02
745.1896, 0.1474910
745.6717, 1.7975001E-02
746.1538, 0.6784360
746.6359, 1.277679
747.1180, 0.6871950
747.6002, 0.6821900
748.0823, 1.275421
748.5644, 0.8924560
749.0465, 0.2915650
749.5286, 0.1536250
750.0107, 0.4039610
750.4929, 0.3420410
750.9750, 0.2640080
751.4571, 0.6351620
751.9392, 0.6902470
752.4213, 0.6300350
752.9034, 0.3338320
753.3856, 5.6304999E-02
753.8677, 0.2039490
754.3498, 0.8447270
754.8319, 1.488831
755.3140, 1.629761
755.7961, 1.613647
756.2783, 2.000397
756.7604, 2.768097
757.2425, 3.794342
757.7246, 5.043121
758.2067, 6.260651
758.6888, 7.176178
759.1710, 7.795868
759.6531, 8.208588
760.1352, 8.110718
760.6173, 8.334442
761.0994, 9.050842
761.5815, 10.02954
762.0637, 11.15463
762.5458, 12.36261
763.0279, 13.63788
763.5100, 15.05228
763.9921, 16.47296
764.4742, 17.91129
764.9564, 19.22791
765.4385, 20.02292
765.9206, 20.34055
766.4027, 20.73871
766.8848, 21.53018
767.3669, 22.77695
767.8491, 24.71127
768.3312, 27.52850
768.8133, 30.38242
769.2954, 33.57025
769.7775, 36.32635
770.2596, 37.78397
770.7418, 38.87894
771.2239, 40.79736
771.7060, 43.69800
772.1881, 47.17453
772.6702, 51.14130
773.1523, 55.57111
773.6345, 60.73242
774.1166, 66.21902
774.5987, 71.07291
775.0808, 75.19662
775.5629, 79.66458
776.0450, 85.56415
776.5272, 92.63318
777.0093, 99.68390
777.4914, 106.6819
777.9735, 114.1849
778.4556, 122.5321
778.9377, 131.1198
779.4199, 139.2949
779.9020, 147.2781
780.3841, 156.2840
780.8662, 167.1725
781.3483, 177.7348
781.8304, 187.6188
782.3126, 197.0475
782.7947, 206.4356
783.2768, 215.3930
783.7589, 223.0689
784.2410, 229.1316
784.7231, 234.0709
785.2053, 238.7039
785.6874, 242.6486
786.1695, 244.2546
786.6516, 243.3557
787.1337, 242.1390
787.6158, 241.8448
788.0980, 240.9925
788.5801, 237.1718
789.0622, 229.8622
789.5443, 223.4539
790.0264, 218.8177
790.5085, 213.8964
790.9907, 207.5170
791.4728, 201.2650
791.9549, 196.6484
792.4370, 193.6068
792.9191, 190.9894
793.4012, 188.1365
793.8834, 185.6967
794.3655, 183.9427
794.8476, 183.1323
795.3297, 184.1434
795.8118, 186.9706
796.2939, 190.4022
796.7761, 193.6917
797.2582, 197.0570
797.7403, 200.7031
798.2224, 204.2291
798.7045, 209.7333
799.1866, 217.5566
799.6688, 226.9256
800.1509, 237.3467
800.6330, 249.2598
801.1151, 263.8376
801.5972, 281.3118
802.0793, 298.3527
802.5615, 314.0750
803.0436, 329.0003
803.5257, 344.4671
804.0078, 358.8210
804.4899, 369.3352
804.9720, 375.7512
805.4542, 379.8781
805.9363, 382.8079
806.4184, 384.8286
806.9005, 386.2176
807.3826, 387.0344
807.8647, 388.7921
808.3469, 391.7346
808.8290, 395.6273
809.3111, 400.2218
809.7932, 405.6927
810.2753, 412.4486
810.7574, 419.9279
811.2396, 430.1107
811.7217, 443.1075
812.2038, 458.6243
812.6859, 476.5372
813.1680, 496.9853
813.6501, 520.5039
814.1323, 547.1526
814.6144, 574.8777
815.0965, 605.8630
815.5786, 634.6149
816.0607, 656.0560
816.5428, 669.7541
817.0250, 674.4266
817.5071, 669.9318
817.9892, 657.5228
818.4713, 637.3284
818.9534, 611.5701
819.4355, 587.5463
819.9177, 564.2877
820.3998, 546.7155
820.8819, 534.2860
821.3640, 529.3142
821.8461, 532.0424
822.3282, 543.8609
822.8104, 566.6038
823.2925, 599.7183
823.7746, 646.2859
824.2567, 704.7787
824.7388, 779.3998
825.2209, 873.1313
825.7031, 984.3729
826.1852, 1114.210
826.6673, 1260.121
827.1494, 1411.792
827.6315, 1573.005
828.1136, 1720.604
828.5958, 1827.719
829.0779, 1889.799
829.5600, 1880.674
830.0421, 1794.534
830.5242, 1659.529
831.0063, 1489.323
831.4885, 1296.536
831.9706, 1120.224
832.4527, 958.0157
832.9348, 817.3235
833.4169, 701.4832
833.8990, 603.9108
834.3812, 523.8192
834.8633, 457.9410
835.3454, 402.9507
835.8275, 358.8743
836.3096, 320.5027
836.7917, 287.4225
837.2739, 258.3857
837.7560, 233.4706
838.2381, 211.5385
838.7202, 191.0129
839.2023, 171.7157
839.6844, 154.4135
840.1666, 139.7834
840.6487, 127.2085
841.1308, 115.8820
841.6129, 105.8028
842.0950, 97.35083
842.5771, 90.64859
843.0593, 84.38971
843.5414, 77.66791
844.0235, 70.98340
844.5056, 65.41196
844.9877, 61.13382
845.4698, 57.38516
845.9520, 54.51422
846.4341, 51.83551
846.9162, 48.80142
847.3983, 46.00870
847.8804, 44.02609
848.3625, 42.85910
848.8447, 42.30289
849.3268, 42.92728
849.8089, 43.13370
850.2910, 41.87610
850.7731, 39.80130
851.2552, 37.25290
851.7374, 34.61530
852.2195, 32.66348
852.7016, 31.75320
853.1837, 31.46313
853.6658, 31.51190
854.1479, 31.74548
854.6301, 31.24881
855.1122, 30.00922
855.5943, 29.20380
856.0764, 29.28732
856.5585, 29.46512
857.0406, 28.80698
857.5228, 27.41840
858.0049, 26.43594
858.4870, 25.93381
858.9691, 25.74081
859.4512, 26.42535
859.9333, 26.82498
860.4155, 26.24442
860.8976, 24.97296
861.3797, 23.52100
861.8618, 21.98029
862.3439, 20.64584
862.8260, 19.78088
863.3082, 18.90170
863.7903, 17.51553
864.2724, 15.97903
864.7545, 14.87061
865.2366, 14.21463
865.7188, 13.61237
866.2009, 12.77637
866.6830, 11.80124
867.1651, 10.77173
867.6472, 9.730621
868.1293, 9.029144
868.6115, 8.733459
869.0936, 8.368134
869.5757, 7.640717
870.0578, 6.762146
870.5399, 6.098206
871.0220, 5.757629
871.5042, 5.385193
871.9863, 5.048584
872.4684, 4.591553
872.9505, 3.695282
873.4326, 2.860443
873.9147, 2.641846
874.3969, 2.947815
874.8790, 3.104828
875.3611, 2.919159
875.8432, 2.666077
876.3253, 2.298676
876.8074, 2.029053
877.2896, 2.317810
877.7717, 2.807495
878.2538, 2.458832
878.7359, 0.9082340
879.2180, 0.3776250
879.7001, 0.4106750
880.1823, 2.168793
880.6644, 2.762604
881.1465, 2.377228
881.6286, 1.898071
882.1107, 1.563965
882.5928, 1.335632
883.0750, 1.238464
883.5571, 1.122833
884.0392, 0.2996520
884.5213, 1.490051
885.0034, 2.352173
885.4855, 1.752625
885.9677, 1.084137
886.4498, 1.009125
886.9319, 1.300690
887.4140, 1.668243
887.8961, 2.155304
888.3782, 2.403717
888.8604, 2.367126
889.3425, 2.121307
889.8246, 1.414551
890.3067, 0.7168580
890.7888, 0.3997500
891.2709, 0.4562680
891.7531, 0.7494510
892.2352, 1.283691
892.7173, 1.880371
893.1994, 2.630402
893.6815, 3.213379
894.1636, 3.191437
894.6458, 2.679749
895.1279, 1.969116
895.6100, 1.181305
896.0921, 0.4395140
896.5742, 0.1610720
897.0563, 0.6081850
897.5385, 0.8130490
898.0206, 0.7939450
898.5027, 0.9298400
898.9848, 1.332092
899.4669, 1.316833
899.9490, 0.2702330
900.4312, 1.164764
900.9133, 1.433563
901.3954, 0.1662600
901.8775, 0.5981450
902.3596, 0.7445370
902.8417, 0.5651860
903.3239, 0.4284360
903.8060, 1.230621
904.2881, 0.5015870
904.7702, 1.423920
905.2523, 2.382294
905.7344, 1.372986
906.2166, 0.4836120
906.6987, 0.1847230
907.1808, 0.2026370
907.6629, 0.4815060
908.1450, 0.8850100
908.6271, 1.167358
909.1093, 1.275909
909.5914, 1.523102
910.0735, 2.438110
910.5556, 3.331879
911.0377, 3.428284
911.5198, 2.925110
912.0020, 1.934906
912.4841, 0.6904300
912.9662, 0.1971740
913.4483, 1.160339
913.9304, 2.658264
914.4125, 3.105743
914.8947, 2.637695
915.3768, 2.329468
915.8589, 2.240021
916.3410, 2.118774
916.8231, 1.866425
917.3052, 1.578125
917.7874, 1.410339
918.2695, 1.322083
918.7516, 0.8023380
919.2337, 0.5813900
919.7158, 1.357971
920.1979, 0.9284060
920.6801, 0.4672550
921.1622, 0.9127200
921.6443, 1.613983
922.1264, 1.418549
922.6085, 0.1342770
923.0906, 0.8355410
923.5728, 1.207794
924.0549, 1.350586
924.5370, 1.174713
925.0191, 0.9909060
925.5012, 1.233398
925.9833, 1.734802
926.4655, 1.771362
926.9476, 0.8468630
927.4297, 0.3450010
927.9118, 1.943359
928.3939, 3.902496
928.8760, 3.995605
929.3582, 2.898071
929.8403, 2.467102
930.3224, 3.105286
930.8045, 3.684723
931.2866, 3.202332
931.7687, 2.309418
932.2509, 2.301514
932.7330, 2.976257
933.2151, 3.466187
933.6972, 3.674316
934.1793, 3.688782
934.6614, 3.533173
935.1436, 3.384583
935.6257, 3.593872
936.1078, 4.116089
936.5899, 3.713226
937.0720, 1.962158
937.5541, 1.048798
938.0363, 1.697510
938.5184, 2.670349
939.0005, 3.197449
939.4826, 3.326385
939.9647, 3.159027
940.4468, 2.526764
940.9290, 2.045410
941.4111, 1.864166
941.8932, 1.629791
942.3753, 0.8833310
942.8574, 0.2279360
943.3395, 0.4411930
943.8217, 1.365143
944.3038, 2.079498
944.7859, 2.195435
945.2680, 2.413818
945.7501, 3.353577
946.2322, 4.127594
946.7144, 3.872803
947.1965, 3.083893
947.6786, 2.709808
948.1607, 2.895264
948.6428, 2.902496
949.1249, 1.964294
949.6071, 1.002228
950.0892, 1.103760
950.5713, 1.747070
951.0534, 2.183014
951.5355, 2.293274
952.0176, 2.003906
952.4998, 1.305084
952.9819, 0.7300720
953.4640, 1.016693
953.9461, 1.867432
954.4282, 2.313599
954.9103, 2.405212
955.3925, 2.839508
955.8746, 3.767609
956.3567, 4.320435
956.8388, 3.796082
957.3209, 2.859772
957.8030, 3.122925
958.2852, 4.699127
958.7673, 5.228088
959.2494, 4.471893
959.7315, 4.062775
960.2136, 4.671204
960.6957, 5.347900
961.1779, 5.003326
961.6600, 3.915558
962.1421, 3.689728
962.6242, 4.860199
963.1063, 5.830780
963.5884, 6.503174
964.0706, 7.052032
964.5527, 7.704834
965.0348, 8.189209
965.5169, 7.985718
965.9990, 7.170166
966.4811, 6.892365
966.9633, 8.038086
967.4454, 8.688263
967.9275, 8.013123
968.4096, 7.104950
968.8917, 6.710449
969.3738, 6.584412
969.8560, 6.055634
970.3381, 5.018677
970.8202, 4.587585
971.3023, 6.138092
971.7844, 7.610260
972.2665, 7.596863
972.7487, 6.779327
973.2308, 5.561249
973.7129, 4.347870
974.1950, 4.040405
974.6771, 4.980652
975.1592, 5.901947
975.6414, 5.353180
976.1235, 4.347168
976.6056, 4.351837
977.0877, 4.973022
977.5698, 5.539642
978.0519, 5.938782
978.5341, 5.983765
979.0162, 5.475067
979.4983, 4.826996
979.9804, 4.856049
980.4625, 5.397186
980.9446, 5.394165
981.4268, 4.872681
981.9089, 4.779388
982.3910, 5.362946
982.8731, 5.704712
983.3552, 5.003815
983.8373, 3.817383
984.3195, 3.595856
984.8016, 4.363739
985.2837, 4.896301
985.7658, 5.222229
986.2479, 5.451324
986.7300, 5.717285
987.2122, 5.604065
987.6943, 4.584015
988.1764, 2.866791
988.6585, 1.529968
989.1406, 0.4252930
989.6227, 0.1356810
990.1049, 1.038910
990.5870, 2.143890
991.0691, 3.227783
991.5512, 4.137817
992.0333, 4.737091
992.5154, 5.022339
992.9976, 4.890350
993.4797, 3.882446
993.9618, 3.156464
994.4439, 2.701477
994.9260, 2.593536
995.4081, 3.157959
995.8903, 3.963348
996.3724, 4.309906
996.8545, 4.150208
997.3366, 4.127136
997.8187, 4.478668
998.3008, 4.827423
998.7830, 5.236084
999.2651, 5.427307
999.7472, 4.903290
1000.229, 4.120514
1000.711, 4.041382
1001.194, 4.866791
1001.676, 5.376373
1002.158, 4.600739
1002.640, 3.821198
1003.122, 3.835480
1003.604, 4.182617
1004.086, 4.447968
1004.568, 4.600922
1005.050, 4.722107
1005.533, 4.841492
1006.015, 4.956055
1006.497, 5.155151
1006.979, 5.253326
1007.461, 5.120117
1007.943, 4.749817
1008.425, 3.867432
1008.907, 2.709839
1009.390, 2.089294
1009.872, 2.346924
1010.354, 3.011963
1010.836, 3.708038
1011.318, 4.477081
1011.800, 5.506866
1012.282, 6.617981
1012.764, 7.385406
1013.246, 7.753418
1013.729, 7.915710
1014.211, 7.982025
1014.693, 7.784973
1015.175, 6.825806
1015.657, 5.447571
1016.139, 5.076752
1016.621, 5.491730
1017.103, 5.520477
1017.586, 4.938477
1018.068, 4.144379
1018.550, 3.379150
1019.032, 2.777954
1019.514, 2.560272
1019.996, 2.731720
1020.478, 3.412140
1020.960, 4.553345
1021.442, 5.270905
1021.925, 5.374084
1022.407, 4.946930
1022.889, 3.966034
1023.371, 2.791382
1023.853, 2.127289
1024.335, 1.977539
1024.817, 2.058685
1025.299, 2.368073
1025.781, 2.935455
1026.264, 3.828766
1026.746, 4.727661
1027.228, 5.404266
1027.710, 5.898285
1028.192, 6.343964
1028.674, 6.794556
1029.156, 6.737640
1029.638, 5.948334
1030.120, 5.352509
1030.603, 5.199249
1031.085, 5.280640
1031.567, 5.474976
1032.049, 5.752838
1032.531, 6.058868
1033.013, 6.440033
1033.495, 6.704254
1033.977, 7.003906
1034.460, 6.780365
1034.942, 5.465790
1035.424, 4.258667
1035.906, 4.155273
1036.388, 4.838196
1036.870, 5.473602
1037.352, 6.199921
1037.834, 6.378754
1038.317, 5.371643
1038.799, 4.816467
1039.281, 5.428955
1039.763, 6.253967
1040.245, 6.678192
1040.727, 6.749817
1041.209, 6.596832
1041.691, 6.177490
1042.173, 5.660736
1042.656, 4.743408
1043.138, 4.140991
1043.620, 4.314270
1044.102, 4.588806
1044.584, 4.473328
1045.066, 4.067139
1045.548, 3.622559
1046.030, 3.111938
1046.512, 2.709473
1046.995, 2.442261
1047.477, 2.270874
1047.959, 2.113007
1048.441, 2.127686
1048.923, 2.733582
1049.405, 3.544830
1049.887, 3.533234
1050.369, 2.340057
1050.852, 1.596313
1051.334, 1.844238
1051.816, 2.278015
1052.298, 2.877594
1052.780, 3.331757
1053.262, 3.210022
1053.744, 2.799530
1054.226, 2.875977
1054.708, 3.683044
1055.191, 3.948181
1055.673, 2.609467
1056.155, 1.614685
1056.637, 1.951904
1057.119, 2.730164
1057.601, 3.391449
1058.083, 3.835724
1058.565, 4.046692
1059.047, 4.029877
1059.530, 3.650665
1060.012, 2.471375
1060.494, 1.410706
1060.976, 0.7985840
1061.458, 0.5314640
1061.940, 0.7235410
1062.422, 1.115021
1062.904, 1.257324
1063.387, 1.064148
1063.869, 0.7471620
1064.351, 0.2353820
1064.833, 0.1884770
1065.315, 0.4385990
1065.797, 0.5083920
1066.279, 0.4111940
1066.761, 0.1251830
1067.244, 0.5574040
1067.726, 1.616425
1068.208, 2.200562
1068.690, 1.607910
1069.172, 0.9499210
1069.654, 0.5454100
1070.136, 0.4563290
1070.618, 1.221283
1071.100, 2.098297
1071.583, 1.516632
1072.065, 0.4947810
1072.547, 1.536407
1073.029, 0.1903990
1073.511, 1.587860
1073.993, 0.6600340
1074.475, 0.6138920
1074.957, 0.7164000
1075.439, 0.1611630
1075.922, 0.3092960
1076.404, 0.5211490
1076.886, 0.3603820
1077.368, 0.5011900
1077.850, 1.072449
1078.332, 0.7476810
1078.814, 0.1038820
1079.297, 0.6625060
1079.779, 1.336487
1080.261, 1.670197
1080.743, 1.673798
1081.225, 1.470795
1081.707, 1.005768
1082.189, 0.6849670
1082.671, 0.6716920
1083.153, 0.8788450
1083.635, 1.433380
1084.118, 2.059357
1084.600, 2.581726
1085.082, 2.872498
1085.564, 2.521057
1086.046, 1.191193
1086.528, 0.4207760
1087.010, 1.388214
1087.492, 2.490082
1087.975, 2.586639
1088.457, 2.610596
1088.939, 3.973999
1089.421, 6.026367
1089.903, 6.834930
1090.385, 5.800415
1090.867, 5.516815
1091.349, 8.617279
1091.832, 10.64844
1092.314, 8.447449
1092.796, 5.333344
1093.278, 3.995453
1093.760, 3.961670
1094.242, 4.068634
1094.724, 4.090820
1095.206, 3.725800
1095.688, 2.004242
1096.171, 1.086853
1096.653, 2.391266
1097.135, 4.121216
1097.617, 5.159424
1098.099, 5.639252
1098.581, 5.875214
1099.063, 5.947357
1099.545, 6.032227
1100.027, 6.088379
1100.510, 6.325256
1100.992, 7.378510
1101.474, 7.964752
1101.956, 6.893463
1102.438, 5.358459
1102.920, 4.591949
1103.402, 4.685150
1103.884, 5.446991
1104.367, 7.220276
1104.849, 8.568634
1105.331, 9.050537
1105.813, 9.388702
1106.295, 9.872955
1106.777, 10.28958
1107.259, 10.39102
1107.741, 10.18881
1108.224, 9.906860
1108.706, 9.646240
1109.188, 9.026337
1109.670, 7.241272
1110.152, 6.156158
1110.634, 6.669983
1111.116, 7.566772
1111.598, 8.259979
1112.080, 8.724762
1112.563, 8.902710
1113.045, 8.759186
1113.527, 8.286774
1114.009, 6.572968
1114.491, 5.983185
1114.973, 8.001526
1115.455, 9.565033
1115.937, 8.766327
1116.419, 7.131592
1116.902, 6.627563
1117.384, 7.190277
1117.866, 7.646820
1118.348, 8.006317
1118.830, 8.045990
1119.312, 7.755219
1119.794, 7.155212
1120.276, 5.977051
1120.759, 4.928619
1121.241, 4.768402
1121.723, 5.224487
1122.205, 5.357605
1122.687, 5.138702
1123.169, 4.640442
1123.651, 3.591095
1124.133, 3.356628
1124.615, 4.466095
1125.098, 5.586609
1125.580, 5.767090
1126.062, 5.447021
1126.544, 5.526917
1127.026, 5.990540
1127.508, 5.690002
1127.990, 4.485199
1128.472, 3.864960
1128.954, 4.146484
1129.437, 4.153656
1129.919, 3.219696
1130.401, 2.322571
1130.883, 2.865631
1131.365, 4.309967
1131.847, 4.446655
1132.329, 3.368500
1132.811, 2.955627
1133.294, 3.367218
1133.776, 4.163422
1134.258, 5.186951
1134.740, 6.061737
1135.222, 6.485504
1135.704, 6.474640
1136.186, 5.811737
1136.668, 4.793945
1137.151, 4.861267
1137.633, 5.718933
1138.115, 5.619659
1138.597, 4.332062
1139.079, 3.077972
1139.561, 2.524536
1140.043, 2.432800
1140.525, 2.825378
1141.007, 3.262817
1141.490, 2.589661
1141.972, 1.396118
1142.454, 0.9077760
1142.936, 1.254761
1143.418, 2.554932
1143.900, 4.655273
1144.382, 5.980286
1144.864, 5.182556
1145.346, 3.392944
1145.829, 1.113770
1146.311, 0.9002690
1146.793, 1.600037
1147.275, 1.295349
1147.757, 0.5777590
1148.239, 0.3491210
1148.721, 1.408447
1149.203, 2.716431
1149.686, 3.549377
1150.168, 3.120361
1150.650, 2.366577
1151.132, 1.802063
1151.614, 1.460815
1152.096, 1.484253
1152.578, 1.683350
1153.060, 1.649292
1153.542, 1.277893
1154.025, 0.7550660
1154.507, 0.2542110
1154.989, 0.8353270
1155.471, 0.5194090
1155.953, 0.1485600
1156.435, 1.056580
1156.917, 1.959412
1157.399, 2.538574
1157.881, 2.796387
1158.364, 3.064880
1158.846, 3.853455
1159.328, 3.734558
1159.810, 1.759705
1160.292, 7.3239999E-03
1160.774, 1.029541
1161.256, 1.509216
1161.738, 1.328064
1162.221, 0.7783200
1162.703, 0.5947270
1163.185, 0.8504030
1163.667, 0.9357910
1164.149, 0.9537960
1164.631, 0.4223630
1165.113, 0.9898680
1165.595, 2.179688
1166.078, 2.533447
1166.560, 2.627502
1167.042, 3.295776
1167.524, 4.249512
1168.006, 4.013916
1168.488, 2.556396
1168.970, 1.227051
1169.452, 8.7341003E-02
1169.934, 0.6744380
1170.417, 1.002808
1170.899, 0.9142460
1171.381, 0.3900760
1171.863, 0.3057250
1172.345, 0.7470700
1172.827, 1.011475
1173.309, 1.469299
1173.791, 1.936035
1174.273, 1.372803
1174.756, 1.3430000E-03
1175.238, 0.2416990
1175.720, 1.345032
1176.202, 3.080627
1176.684, 3.545349
1177.166, 3.378479
1177.648, 3.245789
1178.130, 3.132080
1178.613, 3.139771
1179.095, 3.126709
1179.577, 2.813660
1180.059, 2.187988
1180.541, 1.349792
1181.023, 0.2266240
1181.505, 0.3916020
1181.987, 0.2870480
1182.469, 1.289368
1182.952, 2.458923
1183.434, 3.193481
1183.916, 2.579346
1184.398, 1.236633
1184.880, 0.2109380
1185.362, 0.3108520
1185.844, 3.5828002E-02
1186.326, 2.723450
1186.808, 4.121826
1187.291, 1.951721
1187.773, 0.3804930
1188.255, 2.012329
1188.737, 4.421814
1189.219, 5.552673
1189.701, 5.545959
1190.183, 4.728943
1190.665, 2.728821
1191.148, 2.001892
1191.630, 3.081787
1192.112, 3.963745
1192.594, 4.228577
1193.076, 4.528259
1193.558, 5.219971
1194.040, 6.057922
1194.522, 6.769104
1195.005, 7.294617
1195.487, 7.260010
1195.969, 6.681824
1196.451, 6.568420
1196.933, 6.913208
1197.415, 6.217712
1197.897, 4.199341
1198.379, 3.280457
1198.861, 5.130554
1199.344, 7.425964
1199.826, 6.413574
1200.308, 4.064209
1200.790, 4.776672
1201.272, 7.252258
1201.754, 8.954163
1202.236, 9.597961
1202.718, 9.290344
1203.200, 8.206787
1203.683, 7.106567
1204.165, 6.146423
1204.647, 5.926086
1205.129, 7.560791
1205.611, 9.530884
1206.093, 10.76636
1206.575, 11.32361
1207.057, 11.09106
1207.540, 10.37842
1208.022, 9.827271
1208.504, 9.515991
1208.986, 9.895203
1209.468, 11.68701
1209.950, 13.27686
1210.432, 14.38727
1210.914, 15.13995
1211.396, 15.60229
1211.879, 15.73901
1212.361, 15.51538
1212.843, 14.90283
1213.325, 13.63397
1213.807, 11.32971
1214.289, 10.39282
1214.771, 11.13965
1215.253, 11.81165
1215.735, 11.91431
1216.218, 12.70306
1216.700, 15.03906
1217.182, 17.43512
1217.664, 17.94745
1218.146, 17.24274
1218.628, 17.77600
1219.110, 19.18835
1219.592, 19.38617
1220.075, 18.53290
1220.557, 17.89807
1221.039, 17.77832
1221.521, 18.31207
1222.003, 19.58911
1222.485, 20.85144
1222.967, 21.29340
1223.449, 21.31128
1223.932, 21.42657
1224.414, 21.39624
1224.896, 20.53064
1225.378, 19.48364
1225.860, 19.62512
1226.342, 20.82941
1226.824, 21.04498
1227.306, 18.95679
1227.788, 18.32404
1228.271, 22.55951
1228.753, 25.53406
1229.235, 23.19629
1229.717, 20.18884
1230.199, 20.29193
1230.681, 21.95490
1231.163, 22.10077
1231.645, 20.74878
1232.127, 20.11298
1232.610, 20.50165
1233.092, 21.50824
1233.574, 23.41492
1234.056, 24.42773
1234.538, 24.09363
1235.020, 23.52924
1235.502, 23.46423
1235.984, 23.58313
1236.467, 22.87543
1236.949, 21.60822
1237.431, 21.12427
1237.913, 21.31714
1238.395, 21.91931
1238.877, 22.76031
1239.359, 23.23254
1239.841, 23.21118
1240.323, 23.37817
1240.806, 24.28931
1241.288, 24.95526
1241.770, 24.13458
1242.252, 22.79492
1242.734, 21.21924
1243.216, 20.04065
1243.698, 20.48566
1244.180, 21.85083
1244.662, 22.38232
1245.145, 21.81079
1245.627, 21.43518
1246.109, 22.03174
1246.591, 22.14209
1247.073, 21.22229
1247.555, 20.10907
1248.037, 19.05823
1248.519, 17.85535
1249.002, 16.14661
1249.484, 14.53790
1249.966, 14.21173
1250.448, 15.07446
1250.930, 16.06256
1251.412, 17.23242
1251.894, 17.77716
1252.376, 17.61035
1252.859, 17.83112
1253.341, 18.75183
1253.823, 19.87726
1254.305, 20.90192
1254.787, 21.54938
1255.269, 20.93707
1255.751, 20.04614
1256.233, 21.27112
1256.715, 23.30371
1257.198, 24.03699
1257.680, 23.35193
1258.162, 20.72046
1258.644, 16.82788
1259.126, 15.59546
1259.608, 19.56250
1260.090, 22.89783
1260.572, 22.86145
1261.054, 21.61182
1261.537, 19.14368
1262.019, 16.90283
1262.501, 16.72522
1262.983, 17.02014
1263.465, 14.53711
1263.947, 9.912476
1264.429, 8.496460
1264.911, 11.60876
1265.394, 13.33191
1265.876, 13.35962
1266.358, 13.35327
1266.840, 13.76636
1267.322, 13.31714
1267.804, 11.20471
1268.286, 8.799561
1268.768, 7.804688
1269.250, 7.604370
1269.733, 6.758179
1270.215, 5.613159
1270.697, 5.157471
1271.179, 5.156616
1271.661, 4.891846
1272.143, 4.284790
1272.625, 3.530029
1273.107, 2.702759
1273.589, 2.317505
1274.072, 2.806274
1274.554, 3.632935
1275.036, 5.191772
1275.518, 6.251343
1276.000, 5.931641
1276.482, 4.688477
1276.964, 2.315918
1277.446, 0.2424320
1277.929, 0.4686280
1278.411, 1.978638
1278.893, 3.323730
1279.375, 3.300293
1279.857, 3.357788
1280.339, 3.259155
1280.821, 2.858154
1281.303, 1.308472
1281.786, 1.0990000E-03
1282.268, 0.0000000E+00
##END=



