##NAMES=Alluaudite
##RRUFFID=R160082
##IDEAL CHEMISTRY=NaMn^2+^Fe^3+^_2_(PO_4_)_3_
##LOCALITY=Custer, South Dakota, USA
##OWNER=UAMM
##SOURCE=Rock Currier
##DESCRIPTION=Dark green massive, associated with muscovite
##STATUS=The identification of this mineral has been confirmed only by single crystal X-ray diffraction.
##URL=rruff.info/R160082
8.806445e+001, 2.392789e+002
8.854657e+001, 2.394654e+002
8.902869e+001, 2.395421e+002
8.951080e+001, 2.394504e+002
8.999292e+001, 2.392751e+002
9.047504e+001, 2.391756e+002
9.095715e+001, 2.392439e+002
9.143927e+001, 2.391770e+002
9.192139e+001, 2.384397e+002
9.240350e+001, 2.370627e+002
9.288562e+001, 2.356356e+002
9.336774e+001, 2.329156e+002
9.384985e+001, 2.274916e+002
9.433197e+001, 2.194819e+002
9.481409e+001, 2.118886e+002
9.529620e+001, 2.044052e+002
9.577832e+001, 1.979430e+002
9.626044e+001, 1.926161e+002
9.674255e+001, 1.881032e+002
9.722467e+001, 1.840267e+002
9.770679e+001, 1.803445e+002
9.818890e+001, 1.770185e+002
9.867102e+001, 1.741415e+002
9.915314e+001, 1.714167e+002
9.963525e+001, 1.685372e+002
1.001174e+002, 1.653440e+002
1.005995e+002, 1.619756e+002
1.010816e+002, 1.589348e+002
1.015637e+002, 1.559826e+002
1.020458e+002, 1.536071e+002
1.025280e+002, 1.519304e+002
1.030101e+002, 1.508150e+002
1.034922e+002, 1.500491e+002
1.039743e+002, 1.494883e+002
1.044564e+002, 1.491318e+002
1.049385e+002, 1.491942e+002
1.054207e+002, 1.503800e+002
1.059028e+002, 1.512785e+002
1.063849e+002, 1.509963e+002
1.068670e+002, 1.495558e+002
1.073491e+002, 1.477583e+002
1.078312e+002, 1.462127e+002
1.083134e+002, 1.449343e+002
1.087955e+002, 1.440466e+002
1.092776e+002, 1.438786e+002
1.097597e+002, 1.440183e+002
1.102418e+002, 1.438922e+002
1.107239e+002, 1.434122e+002
1.112061e+002, 1.426656e+002
1.116882e+002, 1.418668e+002
1.121703e+002, 1.409674e+002
1.126524e+002, 1.396479e+002
1.131345e+002, 1.376200e+002
1.136166e+002, 1.349091e+002
1.140988e+002, 1.320143e+002
1.145809e+002, 1.285926e+002
1.150630e+002, 1.253402e+002
1.155451e+002, 1.227216e+002
1.160272e+002, 1.207269e+002
1.165093e+002, 1.190113e+002
1.169915e+002, 1.171257e+002
1.174736e+002, 1.149085e+002
1.179557e+002, 1.129672e+002
1.184378e+002, 1.112726e+002
1.189199e+002, 1.098516e+002
1.194020e+002, 1.087633e+002
1.198842e+002, 1.080176e+002
1.203663e+002, 1.075356e+002
1.208484e+002, 1.071369e+002
1.213305e+002, 1.069912e+002
1.218126e+002, 1.067359e+002
1.222947e+002, 1.064711e+002
1.227769e+002, 1.060672e+002
1.232590e+002, 1.053047e+002
1.237411e+002, 1.040290e+002
1.242232e+002, 1.023865e+002
1.247053e+002, 1.010290e+002
1.251874e+002, 9.993320e+001
1.256696e+002, 9.905741e+001
1.261517e+002, 9.846807e+001
1.266338e+002, 9.811779e+001
1.271159e+002, 9.779253e+001
1.275980e+002, 9.736377e+001
1.280801e+002, 9.686293e+001
1.285623e+002, 9.641438e+001
1.290444e+002, 9.623031e+001
1.295265e+002, 9.595597e+001
1.300086e+002, 9.518009e+001
1.304907e+002, 9.382857e+001
1.309728e+002, 9.235262e+001
1.314550e+002, 9.088876e+001
1.319371e+002, 8.950101e+001
1.324192e+002, 8.832703e+001
1.329013e+002, 8.747533e+001
1.333834e+002, 8.686660e+001
1.338655e+002, 8.627041e+001
1.343477e+002, 8.567847e+001
1.348298e+002, 8.511556e+001
1.353119e+002, 8.457202e+001
1.357940e+002, 8.406275e+001
1.362761e+002, 8.361576e+001
1.367582e+002, 8.325009e+001
1.372404e+002, 8.296799e+001
1.377225e+002, 8.275566e+001
1.382046e+002, 8.286647e+001
1.386867e+002, 8.282500e+001
1.391688e+002, 8.244160e+001
1.396509e+002, 8.174660e+001
1.401331e+002, 8.089177e+001
1.406152e+002, 8.001054e+001
1.410973e+002, 7.909196e+001
1.415794e+002, 7.820934e+001
1.420615e+002, 7.731760e+001
1.425436e+002, 7.648296e+001
1.430258e+002, 7.568986e+001
1.435079e+002, 7.495696e+001
1.439900e+002, 7.438924e+001
1.444721e+002, 7.416652e+001
1.449542e+002, 7.451436e+001
1.454363e+002, 7.462952e+001
1.459185e+002, 7.432849e+001
1.464006e+002, 7.384104e+001
1.468827e+002, 7.340878e+001
1.473648e+002, 7.309375e+001
1.478469e+002, 7.287626e+001
1.483290e+002, 7.277352e+001
1.488112e+002, 7.280404e+001
1.492933e+002, 7.277040e+001
1.497754e+002, 7.260547e+001
1.502575e+002, 7.232240e+001
1.507396e+002, 7.193494e+001
1.512217e+002, 7.137441e+001
1.517039e+002, 7.079905e+001
1.521860e+002, 7.042110e+001
1.526681e+002, 7.026100e+001
1.531502e+002, 7.012546e+001
1.536323e+002, 6.984290e+001
1.541144e+002, 6.940836e+001
1.545966e+002, 6.902209e+001
1.550787e+002, 6.881361e+001
1.555608e+002, 6.863293e+001
1.560429e+002, 6.838024e+001
1.565250e+002, 6.803320e+001
1.570071e+002, 6.763754e+001
1.574893e+002, 6.722166e+001
1.579714e+002, 6.671349e+001
1.584535e+002, 6.639445e+001
1.589356e+002, 6.634235e+001
1.594177e+002, 6.645069e+001
1.598998e+002, 6.671114e+001
1.603820e+002, 6.711567e+001
1.608641e+002, 6.754107e+001
1.613462e+002, 6.767467e+001
1.618283e+002, 6.720173e+001
1.623104e+002, 6.686361e+001
1.627925e+002, 6.673558e+001
1.632747e+002, 6.676459e+001
1.637568e+002, 6.692964e+001
1.642389e+002, 6.722466e+001
1.647210e+002, 6.759113e+001
1.652031e+002, 6.777568e+001
1.656852e+002, 6.756015e+001
1.661674e+002, 6.741121e+001
1.666495e+002, 6.741794e+001
1.671316e+002, 6.754057e+001
1.676137e+002, 6.772038e+001
1.680958e+002, 6.793823e+001
1.685779e+002, 6.817406e+001
1.690601e+002, 6.830309e+001
1.695422e+002, 6.826494e+001
1.700243e+002, 6.820750e+001
1.705064e+002, 6.821171e+001
1.709885e+002, 6.825535e+001
1.714706e+002, 6.824251e+001
1.719528e+002, 6.809542e+001
1.724349e+002, 6.784182e+001
1.729170e+002, 6.763431e+001
1.733991e+002, 6.741768e+001
1.738812e+002, 6.728722e+001
1.743633e+002, 6.739442e+001
1.748455e+002, 6.774687e+001
1.753276e+002, 6.800585e+001
1.758097e+002, 6.778487e+001
1.762918e+002, 6.736404e+001
1.767739e+002, 6.725811e+001
1.772560e+002, 6.774454e+001
1.777382e+002, 6.847207e+001
1.782203e+002, 6.898033e+001
1.787024e+002, 6.925871e+001
1.791845e+002, 6.934121e+001
1.796666e+002, 6.916048e+001
1.801487e+002, 6.882628e+001
1.806309e+002, 6.846099e+001
1.811130e+002, 6.810548e+001
1.815951e+002, 6.775755e+001
1.820772e+002, 6.740431e+001
1.825593e+002, 6.703675e+001
1.830414e+002, 6.668186e+001
1.835236e+002, 6.631607e+001
1.840057e+002, 6.597162e+001
1.844878e+002, 6.569991e+001
1.849699e+002, 6.554312e+001
1.854520e+002, 6.548091e+001
1.859341e+002, 6.538731e+001
1.864163e+002, 6.531149e+001
1.868984e+002, 6.513609e+001
1.873805e+002, 6.473885e+001
1.878626e+002, 6.423152e+001
1.883447e+002, 6.379989e+001
1.888268e+002, 6.357750e+001
1.893090e+002, 6.355900e+001
1.897911e+002, 6.353173e+001
1.902732e+002, 6.359622e+001
1.907553e+002, 6.355184e+001
1.912374e+002, 6.332191e+001
1.917195e+002, 6.293536e+001
1.922017e+002, 6.245107e+001
1.926838e+002, 6.190196e+001
1.931659e+002, 6.127666e+001
1.936480e+002, 6.077195e+001
1.941301e+002, 6.055591e+001
1.946122e+002, 6.027275e+001
1.950944e+002, 5.973370e+001
1.955765e+002, 5.897848e+001
1.960586e+002, 5.816888e+001
1.965407e+002, 5.742186e+001
1.970228e+002, 5.674358e+001
1.975049e+002, 5.616755e+001
1.979871e+002, 5.567791e+001
1.984692e+002, 5.528596e+001
1.989513e+002, 5.505067e+001
1.994334e+002, 5.495628e+001
1.999155e+002, 5.486096e+001
2.003976e+002, 5.464719e+001
2.008798e+002, 5.431805e+001
2.013619e+002, 5.400849e+001
2.018440e+002, 5.366109e+001
2.023261e+002, 5.337444e+001
2.028082e+002, 5.329371e+001
2.032903e+002, 5.343539e+001
2.037725e+002, 5.355285e+001
2.042546e+002, 5.336242e+001
2.047367e+002, 5.299055e+001
2.052188e+002, 5.280477e+001
2.057009e+002, 5.310759e+001
2.061830e+002, 5.353404e+001
2.066652e+002, 5.354250e+001
2.071473e+002, 5.303016e+001
2.076294e+002, 5.248077e+001
2.081115e+002, 5.227132e+001
2.085936e+002, 5.224050e+001
2.090757e+002, 5.214258e+001
2.095579e+002, 5.183627e+001
2.100400e+002, 5.142979e+001
2.105221e+002, 5.116155e+001
2.110042e+002, 5.111142e+001
2.114863e+002, 5.101617e+001
2.119685e+002, 5.063963e+001
2.124506e+002, 5.015535e+001
2.129327e+002, 4.983099e+001
2.134148e+002, 4.984292e+001
2.138969e+002, 5.007644e+001
2.143790e+002, 5.016310e+001
2.148612e+002, 4.997825e+001
2.153433e+002, 4.985227e+001
2.158254e+002, 4.990678e+001
2.163075e+002, 5.007985e+001
2.167896e+002, 5.030680e+001
2.172717e+002, 5.057979e+001
2.177539e+002, 5.085798e+001
2.182360e+002, 5.093044e+001
2.187181e+002, 5.051299e+001
2.192002e+002, 5.026801e+001
2.196823e+002, 5.045801e+001
2.201644e+002, 5.088457e+001
2.206466e+002, 5.128182e+001
2.211287e+002, 5.149494e+001
2.216108e+002, 5.154371e+001
2.220929e+002, 5.153375e+001
2.225750e+002, 5.136912e+001
2.230571e+002, 5.124957e+001
2.235393e+002, 5.124735e+001
2.240214e+002, 5.130370e+001
2.245035e+002, 5.132686e+001
2.249856e+002, 5.125830e+001
2.254677e+002, 5.111991e+001
2.259498e+002, 5.105108e+001
2.264320e+002, 5.117206e+001
2.269141e+002, 5.123265e+001
2.273962e+002, 5.115174e+001
2.278783e+002, 5.098983e+001
2.283604e+002, 5.084806e+001
2.288425e+002, 5.078795e+001
2.293247e+002, 5.078669e+001
2.298068e+002, 5.070976e+001
2.302889e+002, 5.042179e+001
2.307710e+002, 5.021670e+001
2.312531e+002, 5.024567e+001
2.317352e+002, 5.039043e+001
2.322174e+002, 5.043571e+001
2.326995e+002, 5.025871e+001
2.331816e+002, 4.991145e+001
2.336637e+002, 4.962101e+001
2.341458e+002, 4.939139e+001
2.346279e+002, 4.919958e+001
2.351101e+002, 4.904290e+001
2.355922e+002, 4.891998e+001
2.360743e+002, 4.883872e+001
2.365564e+002, 4.881383e+001
2.370385e+002, 4.881582e+001
2.375206e+002, 4.874337e+001
2.380028e+002, 4.853948e+001
2.384849e+002, 4.836611e+001
2.389670e+002, 4.832295e+001
2.394491e+002, 4.835237e+001
2.399312e+002, 4.830379e+001
2.404133e+002, 4.808297e+001
2.408955e+002, 4.779804e+001
2.413776e+002, 4.770978e+001
2.418597e+002, 4.790547e+001
2.423418e+002, 4.804658e+001
2.428239e+002, 4.792969e+001
2.433060e+002, 4.764204e+001
2.437882e+002, 4.742468e+001
2.442703e+002, 4.737122e+001
2.447524e+002, 4.741649e+001
2.452345e+002, 4.744382e+001
2.457166e+002, 4.744098e+001
2.461987e+002, 4.747514e+001
2.466809e+002, 4.757853e+001
2.471630e+002, 4.774460e+001
2.476451e+002, 4.796730e+001
2.481272e+002, 4.828137e+001
2.486093e+002, 4.859663e+001
2.490914e+002, 4.876224e+001
2.495736e+002, 4.876949e+001
2.500557e+002, 4.887336e+001
2.505378e+002, 4.930858e+001
2.510199e+002, 4.998242e+001
2.515020e+002, 5.050698e+001
2.519841e+002, 5.075635e+001
2.524663e+002, 5.090586e+001
2.529484e+002, 5.113321e+001
2.534305e+002, 5.142684e+001
2.539126e+002, 5.169234e+001
2.543947e+002, 5.186959e+001
2.548768e+002, 5.197083e+001
2.553590e+002, 5.207024e+001
2.558411e+002, 5.227284e+001
2.563232e+002, 5.232048e+001
2.568053e+002, 5.196971e+001
2.572874e+002, 5.131766e+001
2.577695e+002, 5.071224e+001
2.582516e+002, 5.039570e+001
2.587338e+002, 5.031652e+001
2.592159e+002, 5.021745e+001
2.596980e+002, 5.012258e+001
2.601801e+002, 4.995493e+001
2.606622e+002, 4.967694e+001
2.611443e+002, 4.930863e+001
2.616265e+002, 4.889016e+001
2.621086e+002, 4.841898e+001
2.625907e+002, 4.791461e+001
2.630728e+002, 4.748094e+001
2.635549e+002, 4.715010e+001
2.640370e+002, 4.684384e+001
2.645192e+002, 4.648677e+001
2.650013e+002, 4.613355e+001
2.654834e+002, 4.587332e+001
2.659655e+002, 4.576057e+001
2.664476e+002, 4.577034e+001
2.669297e+002, 4.582171e+001
2.674119e+002, 4.595399e+001
2.678940e+002, 4.606355e+001
2.683761e+002, 4.611364e+001
2.688582e+002, 4.612868e+001
2.693403e+002, 4.611813e+001
2.698224e+002, 4.606936e+001
2.703046e+002, 4.604138e+001
2.707867e+002, 4.622774e+001
2.712688e+002, 4.683156e+001
2.717509e+002, 4.728461e+001
2.722330e+002, 4.736940e+001
2.727151e+002, 4.731703e+001
2.731973e+002, 4.734637e+001
2.736794e+002, 4.754452e+001
2.741615e+002, 4.787117e+001
2.746436e+002, 4.827676e+001
2.751257e+002, 4.890980e+001
2.756078e+002, 4.931380e+001
2.760900e+002, 4.937288e+001
2.765721e+002, 4.926088e+001
2.770542e+002, 4.909060e+001
2.775363e+002, 4.890263e+001
2.780184e+002, 4.870993e+001
2.785005e+002, 4.854749e+001
2.789827e+002, 4.847315e+001
2.794648e+002, 4.829273e+001
2.799469e+002, 4.804127e+001
2.804290e+002, 4.767166e+001
2.809111e+002, 4.710656e+001
2.813932e+002, 4.635525e+001
2.818754e+002, 4.553826e+001
2.823575e+002, 4.480189e+001
2.828396e+002, 4.414720e+001
2.833217e+002, 4.358245e+001
2.838038e+002, 4.317460e+001
2.842859e+002, 4.278889e+001
2.847681e+002, 4.235620e+001
2.852502e+002, 4.187324e+001
2.857323e+002, 4.137990e+001
2.862144e+002, 4.091999e+001
2.866965e+002, 4.050322e+001
2.871786e+002, 4.005890e+001
2.876608e+002, 3.944941e+001
2.881429e+002, 3.893949e+001
2.886250e+002, 3.871643e+001
2.891071e+002, 3.870280e+001
2.895892e+002, 3.866862e+001
2.900714e+002, 3.841954e+001
2.905535e+002, 3.795280e+001
2.910356e+002, 3.753294e+001
2.915177e+002, 3.713287e+001
2.919998e+002, 3.680904e+001
2.924819e+002, 3.661992e+001
2.929641e+002, 3.651637e+001
2.934462e+002, 3.641431e+001
2.939283e+002, 3.626129e+001
2.944104e+002, 3.606065e+001
2.948925e+002, 3.582858e+001
2.953746e+002, 3.545432e+001
2.958568e+002, 3.517386e+001
2.963389e+002, 3.505444e+001
2.968210e+002, 3.503895e+001
2.973031e+002, 3.506326e+001
2.977852e+002, 3.509771e+001
2.982673e+002, 3.512643e+001
2.987495e+002, 3.510286e+001
2.992316e+002, 3.500845e+001
2.997137e+002, 3.487526e+001
3.001958e+002, 3.466975e+001
3.006779e+002, 3.444264e+001
3.011600e+002, 3.423940e+001
3.016422e+002, 3.407550e+001
3.021243e+002, 3.394403e+001
3.026064e+002, 3.383047e+001
3.030885e+002, 3.370300e+001
3.035706e+002, 3.366085e+001
3.040527e+002, 3.386703e+001
3.045349e+002, 3.404389e+001
3.050170e+002, 3.393029e+001
3.054991e+002, 3.350859e+001
3.059812e+002, 3.300514e+001
3.064633e+002, 3.270090e+001
3.069454e+002, 3.266775e+001
3.074276e+002, 3.259496e+001
3.079097e+002, 3.242026e+001
3.083918e+002, 3.226649e+001
3.088739e+002, 3.222995e+001
3.093560e+002, 3.228951e+001
3.098381e+002, 3.233704e+001
3.103203e+002, 3.226994e+001
3.108024e+002, 3.207673e+001
3.112845e+002, 3.195977e+001
3.117666e+002, 3.193738e+001
3.122487e+002, 3.195945e+001
3.127308e+002, 3.205820e+001
3.132130e+002, 3.218830e+001
3.136951e+002, 3.225301e+001
3.141772e+002, 3.218278e+001
3.146593e+002, 3.200453e+001
3.151414e+002, 3.190825e+001
3.156235e+002, 3.198333e+001
3.161057e+002, 3.203665e+001
3.165878e+002, 3.202064e+001
3.170699e+002, 3.196908e+001
3.175520e+002, 3.192972e+001
3.180341e+002, 3.192417e+001
3.185162e+002, 3.193926e+001
3.189984e+002, 3.194151e+001
3.194805e+002, 3.191506e+001
3.199626e+002, 3.189596e+001
3.204447e+002, 3.184477e+001
3.209268e+002, 3.182233e+001
3.214089e+002, 3.191958e+001
3.218911e+002, 3.214830e+001
3.223732e+002, 3.239533e+001
3.228553e+002, 3.249016e+001
3.233374e+002, 3.235139e+001
3.238195e+002, 3.225216e+001
3.243016e+002, 3.215644e+001
3.247838e+002, 3.212199e+001
3.252659e+002, 3.223329e+001
3.257480e+002, 3.246434e+001
3.262301e+002, 3.268142e+001
3.267122e+002, 3.274722e+001
3.271943e+002, 3.263709e+001
3.276765e+002, 3.257695e+001
3.281586e+002, 3.247566e+001
3.286407e+002, 3.250493e+001
3.291228e+002, 3.283942e+001
3.296049e+002, 3.335985e+001
3.300870e+002, 3.379583e+001
3.305692e+002, 3.395313e+001
3.310513e+002, 3.387943e+001
3.315334e+002, 3.394051e+001
3.320155e+002, 3.429086e+001
3.324976e+002, 3.461079e+001
3.329797e+002, 3.488269e+001
3.334619e+002, 3.509029e+001
3.339440e+002, 3.520390e+001
3.344261e+002, 3.521038e+001
3.349082e+002, 3.515132e+001
3.353904e+002, 3.512465e+001
3.358725e+002, 3.514585e+001
3.363546e+002, 3.517997e+001
3.368367e+002, 3.521732e+001
3.373188e+002, 3.527095e+001
3.378009e+002, 3.538427e+001
3.382831e+002, 3.555083e+001
3.387652e+002, 3.568424e+001
3.392473e+002, 3.565022e+001
3.397294e+002, 3.536089e+001
3.402115e+002, 3.517939e+001
3.406936e+002, 3.522990e+001
3.411758e+002, 3.526331e+001
3.416579e+002, 3.513736e+001
3.421400e+002, 3.487423e+001
3.426221e+002, 3.458802e+001
3.431042e+002, 3.437141e+001
3.435863e+002, 3.422417e+001
3.440685e+002, 3.410343e+001
3.445506e+002, 3.408424e+001
3.450327e+002, 3.401421e+001
3.455148e+002, 3.385551e+001
3.459969e+002, 3.362359e+001
3.464790e+002, 3.332253e+001
3.469612e+002, 3.294104e+001
3.474433e+002, 3.254261e+001
3.479254e+002, 3.233292e+001
3.484075e+002, 3.243846e+001
3.488896e+002, 3.254061e+001
3.493717e+002, 3.264560e+001
3.498539e+002, 3.269886e+001
3.503360e+002, 3.263417e+001
3.508181e+002, 3.243678e+001
3.513002e+002, 3.217950e+001
3.517823e+002, 3.194679e+001
3.522644e+002, 3.170456e+001
3.527466e+002, 3.160388e+001
3.532287e+002, 3.181383e+001
3.537108e+002, 3.203219e+001
3.541929e+002, 3.210169e+001
3.546750e+002, 3.202452e+001
3.551571e+002, 3.189423e+001
3.556393e+002, 3.176559e+001
3.561214e+002, 3.163885e+001
3.566035e+002, 3.163138e+001
3.570856e+002, 3.190781e+001
3.575677e+002, 3.210628e+001
3.580498e+002, 3.204426e+001
3.585320e+002, 3.182832e+001
3.590141e+002, 3.164582e+001
3.594962e+002, 3.160366e+001
3.599783e+002, 3.165072e+001
3.604604e+002, 3.165642e+001
3.609425e+002, 3.161645e+001
3.614247e+002, 3.154248e+001
3.619068e+002, 3.139007e+001
3.623889e+002, 3.123286e+001
3.628710e+002, 3.113942e+001
3.633531e+002, 3.112872e+001
3.638352e+002, 3.116744e+001
3.643174e+002, 3.124395e+001
3.647995e+002, 3.136967e+001
3.652816e+002, 3.141427e+001
3.657637e+002, 3.132387e+001
3.662458e+002, 3.116619e+001
3.667279e+002, 3.094952e+001
3.672101e+002, 3.069156e+001
3.676922e+002, 3.047424e+001
3.681743e+002, 3.034394e+001
3.686564e+002, 3.029917e+001
3.691385e+002, 3.036984e+001
3.696206e+002, 3.067255e+001
3.701028e+002, 3.086326e+001
3.705849e+002, 3.061683e+001
3.710670e+002, 3.013981e+001
3.715491e+002, 2.980598e+001
3.720312e+002, 2.980733e+001
3.725133e+002, 2.995018e+001
3.729955e+002, 2.994334e+001
3.734776e+002, 2.976697e+001
3.739597e+002, 2.963787e+001
3.744418e+002, 2.971170e+001
3.749239e+002, 2.984243e+001
3.754060e+002, 2.982893e+001
3.758882e+002, 2.962095e+001
3.763703e+002, 2.941429e+001
3.768524e+002, 2.936854e+001
3.773345e+002, 2.944403e+001
3.778166e+002, 2.947951e+001
3.782987e+002, 2.944076e+001
3.787809e+002, 2.934740e+001
3.792630e+002, 2.917779e+001
3.797451e+002, 2.894494e+001
3.802272e+002, 2.879918e+001
3.807093e+002, 2.882489e+001
3.811914e+002, 2.894866e+001
3.816736e+002, 2.909527e+001
3.821557e+002, 2.925989e+001
3.826378e+002, 2.940603e+001
3.831199e+002, 2.953837e+001
3.836020e+002, 2.962250e+001
3.840841e+002, 2.955572e+001
3.845663e+002, 2.918199e+001
3.850484e+002, 2.881176e+001
3.855305e+002, 2.859674e+001
3.860126e+002, 2.852731e+001
3.864947e+002, 2.860428e+001
3.869768e+002, 2.886913e+001
3.874590e+002, 2.919659e+001
3.879411e+002, 2.928960e+001
3.884232e+002, 2.906352e+001
3.889053e+002, 2.890672e+001
3.893874e+002, 2.895096e+001
3.898695e+002, 2.907806e+001
3.903517e+002, 2.915917e+001
3.908338e+002, 2.916977e+001
3.913159e+002, 2.915247e+001
3.917980e+002, 2.916556e+001
3.922801e+002, 2.922327e+001
3.927622e+002, 2.912653e+001
3.932444e+002, 2.867937e+001
3.937265e+002, 2.827757e+001
3.942086e+002, 2.816430e+001
3.946907e+002, 2.826703e+001
3.951728e+002, 2.837022e+001
3.956549e+002, 2.834829e+001
3.961371e+002, 2.823364e+001
3.966192e+002, 2.815634e+001
3.971013e+002, 2.825275e+001
3.975834e+002, 2.821417e+001
3.980655e+002, 2.788796e+001
3.985476e+002, 2.748251e+001
3.990298e+002, 2.721535e+001
3.995119e+002, 2.714023e+001
3.999940e+002, 2.714692e+001
4.004761e+002, 2.708874e+001
4.009582e+002, 2.694441e+001
4.014403e+002, 2.680874e+001
4.019225e+002, 2.674342e+001
4.024046e+002, 2.662876e+001
4.028867e+002, 2.633685e+001
4.033688e+002, 2.594515e+001
4.038509e+002, 2.565843e+001
4.043330e+002, 2.564198e+001
4.048152e+002, 2.582312e+001
4.052973e+002, 2.577804e+001
4.057794e+002, 2.533079e+001
4.062615e+002, 2.491044e+001
4.067436e+002, 2.455014e+001
4.072257e+002, 2.427549e+001
4.077079e+002, 2.416453e+001
4.081900e+002, 2.423196e+001
4.086721e+002, 2.430270e+001
4.091542e+002, 2.407176e+001
4.096363e+002, 2.344271e+001
4.101184e+002, 2.305166e+001
4.106006e+002, 2.320618e+001
4.110827e+002, 2.340016e+001
4.115648e+002, 2.334708e+001
4.120469e+002, 2.310026e+001
4.125290e+002, 2.289516e+001
4.130111e+002, 2.293644e+001
4.134933e+002, 2.312592e+001
4.139754e+002, 2.312462e+001
4.144575e+002, 2.285950e+001
4.149396e+002, 2.259847e+001
4.154217e+002, 2.247195e+001
4.159038e+002, 2.242095e+001
4.163860e+002, 2.239341e+001
4.168681e+002, 2.238692e+001
4.173502e+002, 2.237164e+001
4.178323e+002, 2.229874e+001
4.183144e+002, 2.217890e+001
4.187965e+002, 2.211503e+001
4.192787e+002, 2.216322e+001
4.197608e+002, 2.223096e+001
4.202429e+002, 2.219011e+001
4.207250e+002, 2.205243e+001
4.212071e+002, 2.197738e+001
4.216892e+002, 2.207190e+001
4.221714e+002, 2.223542e+001
4.226535e+002, 2.235170e+001
4.231356e+002, 2.241222e+001
4.236177e+002, 2.239722e+001
4.240998e+002, 2.226725e+001
4.245819e+002, 2.205103e+001
4.250641e+002, 2.188822e+001
4.255462e+002, 2.182959e+001
4.260283e+002, 2.175962e+001
4.265104e+002, 2.157688e+001
4.269925e+002, 2.135504e+001
4.274746e+002, 2.125468e+001
4.279568e+002, 2.133696e+001
4.284389e+002, 2.149418e+001
4.289210e+002, 2.156388e+001
4.294031e+002, 2.150104e+001
4.298852e+002, 2.147261e+001
4.303673e+002, 2.158578e+001
4.308495e+002, 2.164888e+001
4.313316e+002, 2.144780e+001
4.318137e+002, 2.104676e+001
4.322958e+002, 2.073267e+001
4.327779e+002, 2.072429e+001
4.332600e+002, 2.097722e+001
4.337422e+002, 2.112973e+001
4.342243e+002, 2.101630e+001
4.347064e+002, 2.099846e+001
4.351885e+002, 2.122465e+001
4.356706e+002, 2.151929e+001
4.361527e+002, 2.169675e+001
4.366349e+002, 2.170058e+001
4.371170e+002, 2.159316e+001
4.375991e+002, 2.144349e+001
4.380812e+002, 2.122101e+001
4.385633e+002, 2.106973e+001
4.390454e+002, 2.098957e+001
4.395276e+002, 2.098411e+001
4.400097e+002, 2.110080e+001
4.404918e+002, 2.129483e+001
4.409739e+002, 2.147089e+001
4.414560e+002, 2.156168e+001
4.419381e+002, 2.160480e+001
4.424203e+002, 2.171445e+001
4.429024e+002, 2.191080e+001
4.433845e+002, 2.211928e+001
4.438666e+002, 2.234145e+001
4.443487e+002, 2.255199e+001
4.448308e+002, 2.272886e+001
4.453130e+002, 2.286783e+001
4.457951e+002, 2.298698e+001
4.462772e+002, 2.309943e+001
4.467593e+002, 2.320466e+001
4.472414e+002, 2.329471e+001
4.477235e+002, 2.335834e+001
4.482057e+002, 2.342781e+001
4.486878e+002, 2.353144e+001
4.491699e+002, 2.365996e+001
4.496520e+002, 2.379289e+001
4.501341e+002, 2.392986e+001
4.506162e+002, 2.406539e+001
4.510984e+002, 2.423201e+001
4.515805e+002, 2.441058e+001
4.520626e+002, 2.446493e+001
4.525447e+002, 2.430407e+001
4.530268e+002, 2.404082e+001
4.535089e+002, 2.386959e+001
4.539911e+002, 2.376637e+001
4.544732e+002, 2.379694e+001
4.549553e+002, 2.414496e+001
4.554374e+002, 2.453659e+001
4.559195e+002, 2.464236e+001
4.564016e+002, 2.445144e+001
4.568838e+002, 2.423260e+001
4.573659e+002, 2.421090e+001
4.578480e+002, 2.436972e+001
4.583301e+002, 2.439660e+001
4.588122e+002, 2.415951e+001
4.592943e+002, 2.396915e+001
4.597765e+002, 2.392447e+001
4.602586e+002, 2.396142e+001
4.607407e+002, 2.400031e+001
4.612228e+002, 2.401248e+001
4.617049e+002, 2.400649e+001
4.621870e+002, 2.398934e+001
4.626692e+002, 2.394388e+001
4.631513e+002, 2.394462e+001
4.636334e+002, 2.396325e+001
4.641155e+002, 2.405160e+001
4.645976e+002, 2.429757e+001
4.650797e+002, 2.462989e+001
4.655619e+002, 2.489283e+001
4.660440e+002, 2.497887e+001
4.665261e+002, 2.496195e+001
4.670082e+002, 2.505318e+001
4.674903e+002, 2.529814e+001
4.679724e+002, 2.552812e+001
4.684546e+002, 2.565705e+001
4.689367e+002, 2.578538e+001
4.694188e+002, 2.599949e+001
4.699009e+002, 2.630481e+001
4.703830e+002, 2.661323e+001
4.708651e+002, 2.685845e+001
4.713473e+002, 2.705282e+001
4.718294e+002, 2.724636e+001
4.723115e+002, 2.745099e+001
4.727936e+002, 2.762574e+001
4.732757e+002, 2.775446e+001
4.737578e+002, 2.782951e+001
4.742400e+002, 2.782153e+001
4.747221e+002, 2.767558e+001
4.752042e+002, 2.752757e+001
4.756863e+002, 2.749501e+001
4.761684e+002, 2.753579e+001
4.766505e+002, 2.752810e+001
4.771327e+002, 2.743500e+001
4.776148e+002, 2.729250e+001
4.780969e+002, 2.712949e+001
4.785790e+002, 2.693867e+001
4.790611e+002, 2.679990e+001
4.795432e+002, 2.672804e+001
4.800254e+002, 2.670086e+001
4.805075e+002, 2.676731e+001
4.809896e+002, 2.687254e+001
4.814717e+002, 2.685229e+001
4.819538e+002, 2.660492e+001
4.824359e+002, 2.622356e+001
4.829181e+002, 2.597751e+001
4.834002e+002, 2.602810e+001
4.838823e+002, 2.597913e+001
4.843644e+002, 2.570852e+001
4.848465e+002, 2.543019e+001
4.853286e+002, 2.531164e+001
4.858108e+002, 2.535007e+001
4.862929e+002, 2.543357e+001
4.867750e+002, 2.548129e+001
4.872571e+002, 2.548883e+001
4.877392e+002, 2.541285e+001
4.882213e+002, 2.520465e+001
4.887035e+002, 2.498923e+001
4.891856e+002, 2.477456e+001
4.896677e+002, 2.458354e+001
4.901498e+002, 2.445261e+001
4.906319e+002, 2.439007e+001
4.911140e+002, 2.433405e+001
4.915962e+002, 2.422231e+001
4.920783e+002, 2.406013e+001
4.925604e+002, 2.389139e+001
4.930425e+002, 2.371329e+001
4.935246e+002, 2.354407e+001
4.940067e+002, 2.340477e+001
4.944889e+002, 2.328369e+001
4.949710e+002, 2.315252e+001
4.954531e+002, 2.297948e+001
4.959352e+002, 2.282418e+001
4.964173e+002, 2.273567e+001
4.968994e+002, 2.270528e+001
4.973816e+002, 2.272066e+001
4.978637e+002, 2.279837e+001
4.983458e+002, 2.285092e+001
4.988279e+002, 2.272258e+001
4.993100e+002, 2.235320e+001
4.997921e+002, 2.211051e+001
5.002743e+002, 2.212267e+001
5.007564e+002, 2.217672e+001
5.012385e+002, 2.213909e+001
5.017206e+002, 2.202102e+001
5.022027e+002, 2.187901e+001
5.026848e+002, 2.174046e+001
5.031670e+002, 2.162160e+001
5.036491e+002, 2.158200e+001
5.041312e+002, 2.177287e+001
5.046133e+002, 2.178941e+001
5.050954e+002, 2.140020e+001
5.055775e+002, 2.102368e+001
5.060597e+002, 2.098516e+001
5.065418e+002, 2.125262e+001
5.070239e+002, 2.156601e+001
5.075060e+002, 2.174773e+001
5.079881e+002, 2.179893e+001
5.084702e+002, 2.169016e+001
5.089524e+002, 2.130419e+001
5.094345e+002, 2.102597e+001
5.099166e+002, 2.111209e+001
5.103987e+002, 2.128724e+001
5.108808e+002, 2.130036e+001
5.113629e+002, 2.111153e+001
5.118451e+002, 2.087380e+001
5.123271e+002, 2.067745e+001
5.128093e+002, 2.052056e+001
5.132914e+002, 2.041109e+001
5.137735e+002, 2.035894e+001
5.142556e+002, 2.030755e+001
5.147377e+002, 2.022774e+001
5.152198e+002, 2.011524e+001
5.157020e+002, 1.996114e+001
5.161841e+002, 1.969785e+001
5.166662e+002, 1.949049e+001
5.171483e+002, 1.947604e+001
5.176304e+002, 1.954671e+001
5.181125e+002, 1.949258e+001
5.185947e+002, 1.926608e+001
5.190768e+002, 1.905246e+001
5.195589e+002, 1.907401e+001
5.200410e+002, 1.937352e+001
5.205231e+002, 1.949302e+001
5.210052e+002, 1.935390e+001
5.214874e+002, 1.915391e+001
5.219695e+002, 1.891517e+001
5.224516e+002, 1.866681e+001
5.229337e+002, 1.843848e+001
5.234158e+002, 1.824102e+001
5.238979e+002, 1.808130e+001
5.243801e+002, 1.798056e+001
5.248622e+002, 1.795667e+001
5.253443e+002, 1.789960e+001
5.258264e+002, 1.777878e+001
5.263085e+002, 1.765361e+001
5.267906e+002, 1.753405e+001
5.272728e+002, 1.743110e+001
5.277549e+002, 1.736758e+001
5.282370e+002, 1.736418e+001
5.287191e+002, 1.737813e+001
5.292012e+002, 1.734068e+001
5.296833e+002, 1.725772e+001
5.301655e+002, 1.722960e+001
5.306476e+002, 1.731696e+001
5.311297e+002, 1.740757e+001
5.316118e+002, 1.734773e+001
5.320939e+002, 1.716115e+001
5.325760e+002, 1.701588e+001
5.330582e+002, 1.696970e+001
5.335403e+002, 1.695528e+001
5.340224e+002, 1.691751e+001
5.345045e+002, 1.686785e+001
5.349866e+002, 1.684649e+001
5.354688e+002, 1.687146e+001
5.359509e+002, 1.693136e+001
5.364330e+002, 1.700998e+001
5.369151e+002, 1.713622e+001
5.373972e+002, 1.720790e+001
5.378793e+002, 1.717793e+001
5.383615e+002, 1.714244e+001
5.388436e+002, 1.716048e+001
5.393257e+002, 1.721618e+001
5.398078e+002, 1.725785e+001
5.402899e+002, 1.725367e+001
5.407720e+002, 1.723451e+001
5.412542e+002, 1.728537e+001
5.417363e+002, 1.744340e+001
5.422184e+002, 1.754466e+001
5.427005e+002, 1.750728e+001
5.431826e+002, 1.745349e+001
5.436647e+002, 1.746338e+001
5.441469e+002, 1.752234e+001
5.446290e+002, 1.755933e+001
5.451111e+002, 1.752841e+001
5.455932e+002, 1.746281e+001
5.460753e+002, 1.740402e+001
5.465574e+002, 1.735270e+001
5.470396e+002, 1.731581e+001
5.475217e+002, 1.728085e+001
5.480038e+002, 1.728190e+001
5.484859e+002, 1.739617e+001
5.489680e+002, 1.763150e+001
5.494501e+002, 1.784904e+001
5.499323e+002, 1.809195e+001
5.504144e+002, 1.825349e+001
5.508965e+002, 1.815013e+001
5.513786e+002, 1.787426e+001
5.518607e+002, 1.775360e+001
5.523428e+002, 1.797729e+001
5.528250e+002, 1.839279e+001
5.533071e+002, 1.861633e+001
5.537892e+002, 1.850055e+001
5.542713e+002, 1.845752e+001
5.547534e+002, 1.853662e+001
5.552355e+002, 1.863458e+001
5.557177e+002, 1.870824e+001
5.561998e+002, 1.875064e+001
5.566819e+002, 1.875842e+001
5.571640e+002, 1.872141e+001
5.576461e+002, 1.866615e+001
5.581282e+002, 1.865578e+001
5.586104e+002, 1.869852e+001
5.590925e+002, 1.873219e+001
5.595746e+002, 1.873578e+001
5.600567e+002, 1.873113e+001
5.605388e+002, 1.875097e+001
5.610209e+002, 1.878768e+001
5.615031e+002, 1.878588e+001
5.619852e+002, 1.870523e+001
5.624673e+002, 1.859058e+001
5.629494e+002, 1.846964e+001
5.634315e+002, 1.835074e+001
5.639136e+002, 1.827146e+001
5.643958e+002, 1.825069e+001
5.648779e+002, 1.826462e+001
5.653600e+002, 1.827220e+001
5.658421e+002, 1.826446e+001
5.663242e+002, 1.827825e+001
5.668063e+002, 1.835250e+001
5.672885e+002, 1.841112e+001
5.677706e+002, 1.838105e+001
5.682527e+002, 1.830534e+001
5.687348e+002, 1.828289e+001
5.692169e+002, 1.836326e+001
5.696990e+002, 1.849500e+001
5.701812e+002, 1.857516e+001
5.706633e+002, 1.858633e+001
5.711454e+002, 1.861624e+001
5.716275e+002, 1.869950e+001
5.721096e+002, 1.877367e+001
5.725917e+002, 1.876978e+001
5.730739e+002, 1.873504e+001
5.735560e+002, 1.878934e+001
5.740381e+002, 1.902605e+001
5.745202e+002, 1.928423e+001
5.750023e+002, 1.934025e+001
5.754844e+002, 1.923906e+001
5.759666e+002, 1.924242e+001
5.764487e+002, 1.943369e+001
5.769308e+002, 1.968141e+001
5.774129e+002, 1.984706e+001
5.778950e+002, 1.992843e+001
5.783771e+002, 2.004822e+001
5.788593e+002, 2.022294e+001
5.793414e+002, 2.042180e+001
5.798235e+002, 2.062444e+001
5.803056e+002, 2.084439e+001
5.807877e+002, 2.107824e+001
5.812698e+002, 2.133339e+001
5.817520e+002, 2.168298e+001
5.822341e+002, 2.225164e+001
5.827162e+002, 2.308547e+001
5.831984e+002, 2.373219e+001
5.836805e+002, 2.401672e+001
5.841626e+002, 2.432535e+001
5.846447e+002, 2.472026e+001
5.851268e+002, 2.521943e+001
5.856089e+002, 2.588545e+001
5.860911e+002, 2.673789e+001
5.865732e+002, 2.756832e+001
5.870553e+002, 2.811793e+001
5.875374e+002, 2.848078e+001
5.880195e+002, 2.903507e+001
5.885016e+002, 2.985442e+001
5.889838e+002, 3.065403e+001
5.894659e+002, 3.125834e+001
5.899480e+002, 3.170523e+001
5.904301e+002, 3.213008e+001
5.909122e+002, 3.252303e+001
5.913943e+002, 3.291479e+001
5.918765e+002, 3.344424e+001
5.923586e+002, 3.390229e+001
5.928407e+002, 3.402713e+001
5.933228e+002, 3.382191e+001
5.938049e+002, 3.350143e+001
5.942870e+002, 3.322500e+001
5.947692e+002, 3.295945e+001
5.952513e+002, 3.253107e+001
5.957334e+002, 3.180882e+001
5.962155e+002, 3.115681e+001
5.966976e+002, 3.063627e+001
5.971797e+002, 3.017021e+001
5.976619e+002, 2.974935e+001
5.981440e+002, 2.934225e+001
5.986261e+002, 2.885152e+001
5.991082e+002, 2.816122e+001
5.995903e+002, 2.740452e+001
6.000724e+002, 2.681769e+001
6.005546e+002, 2.640095e+001
6.010367e+002, 2.609635e+001
6.015188e+002, 2.593444e+001
6.020009e+002, 2.580480e+001
6.024830e+002, 2.555252e+001
6.029651e+002, 2.518209e+001
6.034473e+002, 2.483281e+001
6.039294e+002, 2.448226e+001
6.044115e+002, 2.419975e+001
6.048936e+002, 2.407701e+001
6.053757e+002, 2.404728e+001
6.058578e+002, 2.397421e+001
6.063400e+002, 2.380871e+001
6.068221e+002, 2.361304e+001
6.073042e+002, 2.348958e+001
6.077863e+002, 2.346942e+001
6.082684e+002, 2.331817e+001
6.087505e+002, 2.284179e+001
6.092327e+002, 2.246476e+001
6.097148e+002, 2.233893e+001
6.101969e+002, 2.236676e+001
6.106790e+002, 2.244837e+001
6.111611e+002, 2.255971e+001
6.116432e+002, 2.263880e+001
6.121254e+002, 2.257028e+001
6.126075e+002, 2.242657e+001
6.130896e+002, 2.248185e+001
6.135717e+002, 2.278953e+001
6.140538e+002, 2.302895e+001
6.145359e+002, 2.297266e+001
6.150181e+002, 2.272635e+001
6.155002e+002, 2.260418e+001
6.159823e+002, 2.265313e+001
6.164644e+002, 2.270092e+001
6.169465e+002, 2.269846e+001
6.174286e+002, 2.269177e+001
6.179108e+002, 2.272041e+001
6.183929e+002, 2.278268e+001
6.188750e+002, 2.286050e+001
6.193571e+002, 2.294448e+001
6.198392e+002, 2.302649e+001
6.203214e+002, 2.308172e+001
6.208035e+002, 2.309841e+001
6.212856e+002, 2.312587e+001
6.217677e+002, 2.322754e+001
6.222498e+002, 2.328312e+001
6.227319e+002, 2.317365e+001
6.232141e+002, 2.296929e+001
6.236962e+002, 2.285574e+001
6.241783e+002, 2.293799e+001
6.246604e+002, 2.307121e+001
6.251425e+002, 2.312571e+001
6.256246e+002, 2.311467e+001
6.261068e+002, 2.309079e+001
6.265889e+002, 2.306994e+001
6.270710e+002, 2.299021e+001
6.275531e+002, 2.276170e+001
6.280352e+002, 2.239763e+001
6.285173e+002, 2.220315e+001
6.289995e+002, 2.236078e+001
6.294816e+002, 2.243079e+001
6.299637e+002, 2.222647e+001
6.304458e+002, 2.195384e+001
6.309279e+002, 2.186599e+001
6.314100e+002, 2.195432e+001
6.318922e+002, 2.195017e+001
6.323743e+002, 2.157316e+001
6.328564e+002, 2.097667e+001
6.333385e+002, 2.078230e+001
6.338206e+002, 2.110894e+001
6.343027e+002, 2.135359e+001
6.347849e+002, 2.135113e+001
6.352670e+002, 2.119141e+001
6.357491e+002, 2.090610e+001
6.362312e+002, 2.051664e+001
6.367133e+002, 2.025606e+001
6.371954e+002, 2.029850e+001
6.376776e+002, 2.040369e+001
6.381597e+002, 2.040197e+001
6.386418e+002, 2.030861e+001
6.391239e+002, 2.015765e+001
6.396060e+002, 1.996116e+001
6.400881e+002, 1.975291e+001
6.405703e+002, 1.958008e+001
6.410524e+002, 1.944940e+001
6.415345e+002, 1.927988e+001
6.420166e+002, 1.891297e+001
6.424987e+002, 1.870254e+001
6.429808e+002, 1.886945e+001
6.434630e+002, 1.913963e+001
6.439451e+002, 1.922095e+001
6.444272e+002, 1.906806e+001
6.449093e+002, 1.886898e+001
6.453914e+002, 1.879352e+001
6.458735e+002, 1.877505e+001
6.463557e+002, 1.861160e+001
6.468378e+002, 1.829208e+001
6.473199e+002, 1.808140e+001
6.478020e+002, 1.813404e+001
6.482841e+002, 1.828569e+001
6.487662e+002, 1.826023e+001
6.492484e+002, 1.802011e+001
6.497305e+002, 1.782311e+001
6.502126e+002, 1.775386e+001
6.506947e+002, 1.766775e+001
6.511768e+002, 1.745289e+001
6.516589e+002, 1.717317e+001
6.521411e+002, 1.693474e+001
6.526232e+002, 1.677815e+001
6.531053e+002, 1.670150e+001
6.535874e+002, 1.672855e+001
6.540695e+002, 1.686096e+001
6.545516e+002, 1.692721e+001
6.550338e+002, 1.691408e+001
6.555159e+002, 1.686006e+001
6.559980e+002, 1.676405e+001
6.564801e+002, 1.664351e+001
6.569622e+002, 1.649463e+001
6.574443e+002, 1.630777e+001
6.579265e+002, 1.619483e+001
6.584086e+002, 1.628442e+001
6.588907e+002, 1.641940e+001
6.593728e+002, 1.641615e+001
6.598549e+002, 1.629388e+001
6.603370e+002, 1.617265e+001
6.608192e+002, 1.610716e+001
6.613013e+002, 1.607305e+001
6.617834e+002, 1.602466e+001
6.622655e+002, 1.594331e+001
6.627476e+002, 1.591755e+001
6.632297e+002, 1.601058e+001
6.637119e+002, 1.609030e+001
6.641940e+002, 1.609795e+001
6.646761e+002, 1.607682e+001
6.651582e+002, 1.611109e+001
6.656403e+002, 1.622306e+001
6.661224e+002, 1.627275e+001
6.666046e+002, 1.605583e+001
6.670867e+002, 1.571003e+001
6.675688e+002, 1.559272e+001
6.680509e+002, 1.572570e+001
6.685330e+002, 1.585628e+001
6.690151e+002, 1.586295e+001
6.694973e+002, 1.578778e+001
6.699794e+002, 1.570176e+001
6.704615e+002, 1.556594e+001
6.709436e+002, 1.553502e+001
6.714257e+002, 1.573757e+001
6.719078e+002, 1.591753e+001
6.723900e+002, 1.594747e+001
6.728721e+002, 1.586132e+001
6.733542e+002, 1.569710e+001
6.738363e+002, 1.547505e+001
6.743184e+002, 1.529904e+001
6.748005e+002, 1.535866e+001
6.752827e+002, 1.561512e+001
6.757648e+002, 1.563173e+001
6.762469e+002, 1.530356e+001
6.767290e+002, 1.508258e+001
6.772111e+002, 1.526806e+001
6.776932e+002, 1.563857e+001
6.781754e+002, 1.580273e+001
6.786575e+002, 1.573015e+001
6.791396e+002, 1.562977e+001
6.796217e+002, 1.552135e+001
6.801038e+002, 1.542755e+001
6.805859e+002, 1.534934e+001
6.810681e+002, 1.530166e+001
6.815502e+002, 1.533394e+001
6.820323e+002, 1.546198e+001
6.825144e+002, 1.560567e+001
6.829965e+002, 1.563456e+001
6.834786e+002, 1.553760e+001
6.839608e+002, 1.552087e+001
6.844429e+002, 1.565059e+001
6.849250e+002, 1.574095e+001
6.854071e+002, 1.567506e+001
6.858892e+002, 1.555367e+001
6.863713e+002, 1.549464e+001
6.868535e+002, 1.551373e+001
6.873356e+002, 1.549218e+001
6.878177e+002, 1.529569e+001
6.882998e+002, 1.509620e+001
6.887819e+002, 1.510788e+001
6.892640e+002, 1.527498e+001
6.897462e+002, 1.539126e+001
6.902283e+002, 1.537624e+001
6.907104e+002, 1.530649e+001
6.911925e+002, 1.528839e+001
6.916746e+002, 1.532588e+001
6.921567e+002, 1.538183e+001
6.926389e+002, 1.550774e+001
6.931210e+002, 1.558069e+001
6.936031e+002, 1.553871e+001
6.940852e+002, 1.545137e+001
6.945673e+002, 1.537599e+001
6.950494e+002, 1.532348e+001
6.955316e+002, 1.530715e+001
6.960137e+002, 1.538310e+001
6.964958e+002, 1.546905e+001
6.969779e+002, 1.541352e+001
6.974600e+002, 1.525723e+001
6.979421e+002, 1.521043e+001
6.984243e+002, 1.535607e+001
6.989064e+002, 1.555395e+001
6.993885e+002, 1.562847e+001
6.998706e+002, 1.556945e+001
7.003527e+002, 1.552066e+001
7.008348e+002, 1.551658e+001
7.013170e+002, 1.547947e+001
7.017991e+002, 1.532378e+001
7.022812e+002, 1.517734e+001
7.027633e+002, 1.518670e+001
7.032454e+002, 1.534434e+001
7.037275e+002, 1.549128e+001
7.042097e+002, 1.552361e+001
7.046918e+002, 1.549073e+001
7.051739e+002, 1.546396e+001
7.056560e+002, 1.544058e+001
7.061381e+002, 1.539822e+001
7.066202e+002, 1.532563e+001
7.071024e+002, 1.525997e+001
7.075845e+002, 1.523770e+001
7.080666e+002, 1.525837e+001
7.085487e+002, 1.530349e+001
7.090308e+002, 1.544115e+001
7.095129e+002, 1.551143e+001
7.099951e+002, 1.542962e+001
7.104772e+002, 1.531762e+001
7.109593e+002, 1.527907e+001
7.114414e+002, 1.531079e+001
7.119235e+002, 1.534177e+001
7.124056e+002, 1.531519e+001
7.128878e+002, 1.529739e+001
7.133699e+002, 1.542580e+001
7.138520e+002, 1.567352e+001
7.143341e+002, 1.583855e+001
7.148162e+002, 1.587428e+001
7.152983e+002, 1.586972e+001
7.157805e+002, 1.589266e+001
7.162626e+002, 1.593653e+001
7.167447e+002, 1.596319e+001
7.172268e+002, 1.599030e+001
7.177089e+002, 1.597686e+001
7.181910e+002, 1.588033e+001
7.186732e+002, 1.577595e+001
7.191553e+002, 1.571806e+001
7.196374e+002, 1.569801e+001
7.201195e+002, 1.567973e+001
7.206016e+002, 1.564530e+001
7.210837e+002, 1.561217e+001
7.215659e+002, 1.560276e+001
7.220480e+002, 1.561513e+001
7.225301e+002, 1.563513e+001
7.230122e+002, 1.565842e+001
7.234943e+002, 1.571913e+001
7.239764e+002, 1.587649e+001
7.244586e+002, 1.605548e+001
7.249407e+002, 1.604795e+001
7.254228e+002, 1.573508e+001
7.259049e+002, 1.553335e+001
7.263870e+002, 1.553539e+001
7.268691e+002, 1.558279e+001
7.273513e+002, 1.559568e+001
7.278334e+002, 1.559174e+001
7.283155e+002, 1.561184e+001
7.287976e+002, 1.566925e+001
7.292797e+002, 1.574634e+001
7.297618e+002, 1.585259e+001
7.302440e+002, 1.596347e+001
7.307261e+002, 1.596415e+001
7.312082e+002, 1.584201e+001
7.316903e+002, 1.576410e+001
7.321724e+002, 1.581188e+001
7.326545e+002, 1.591281e+001
7.331367e+002, 1.595528e+001
7.336188e+002, 1.591798e+001
7.341009e+002, 1.594932e+001
7.345830e+002, 1.616689e+001
7.350651e+002, 1.631247e+001
7.355472e+002, 1.625153e+001
7.360294e+002, 1.609770e+001
7.365115e+002, 1.595134e+001
7.369936e+002, 1.584739e+001
7.374757e+002, 1.582421e+001
7.379578e+002, 1.595330e+001
7.384399e+002, 1.614099e+001
7.389221e+002, 1.617879e+001
7.394042e+002, 1.607751e+001
7.398863e+002, 1.601429e+001
7.403684e+002, 1.604313e+001
7.408505e+002, 1.607904e+001
7.413326e+002, 1.604368e+001
7.418148e+002, 1.594229e+001
7.422969e+002, 1.583473e+001
7.427790e+002, 1.559617e+001
7.432611e+002, 1.552453e+001
7.437432e+002, 1.584112e+001
7.442253e+002, 1.618022e+001
7.447075e+002, 1.624131e+001
7.451896e+002, 1.608751e+001
7.456717e+002, 1.595584e+001
7.461538e+002, 1.595736e+001
7.466359e+002, 1.602400e+001
7.471180e+002, 1.610621e+001
7.476002e+002, 1.618652e+001
7.480823e+002, 1.617147e+001
7.485644e+002, 1.604430e+001
7.490465e+002, 1.598994e+001
7.495286e+002, 1.614621e+001
7.500107e+002, 1.640261e+001
7.504929e+002, 1.649146e+001
7.509750e+002, 1.631346e+001
7.514571e+002, 1.621246e+001
7.519392e+002, 1.623507e+001
7.524213e+002, 1.627612e+001
7.529034e+002, 1.631112e+001
7.533856e+002, 1.633151e+001
7.538677e+002, 1.633188e+001
7.543498e+002, 1.631062e+001
7.548319e+002, 1.626440e+001
7.553140e+002, 1.613635e+001
7.557961e+002, 1.600996e+001
7.562783e+002, 1.605473e+001
7.567604e+002, 1.624250e+001
7.572425e+002, 1.641638e+001
7.577246e+002, 1.652855e+001
7.582067e+002, 1.655565e+001
7.586888e+002, 1.644850e+001
7.591710e+002, 1.620842e+001
7.596531e+002, 1.608097e+001
7.601352e+002, 1.615173e+001
7.606173e+002, 1.620662e+001
7.610994e+002, 1.621542e+001
7.615815e+002, 1.619786e+001
7.620637e+002, 1.614932e+001
7.625458e+002, 1.608547e+001
7.630279e+002, 1.605076e+001
7.635100e+002, 1.605867e+001
7.639921e+002, 1.610853e+001
7.644742e+002, 1.623827e+001
7.649564e+002, 1.639641e+001
7.654385e+002, 1.648951e+001
7.659206e+002, 1.650803e+001
7.664027e+002, 1.647869e+001
7.668848e+002, 1.641416e+001
7.673669e+002, 1.633308e+001
7.678491e+002, 1.627015e+001
7.683312e+002, 1.620658e+001
7.688133e+002, 1.624080e+001
7.692954e+002, 1.647905e+001
7.697775e+002, 1.666717e+001
7.702596e+002, 1.669353e+001
7.707418e+002, 1.660833e+001
7.712239e+002, 1.642815e+001
7.717060e+002, 1.613378e+001
7.721881e+002, 1.597373e+001
7.726702e+002, 1.615215e+001
7.731523e+002, 1.640136e+001
7.736345e+002, 1.653196e+001
7.741166e+002, 1.655923e+001
7.745987e+002, 1.650622e+001
7.750808e+002, 1.639339e+001
7.755629e+002, 1.630966e+001
7.760450e+002, 1.635296e+001
7.765272e+002, 1.649514e+001
7.770093e+002, 1.660401e+001
7.774914e+002, 1.667598e+001
7.779735e+002, 1.673503e+001
7.784556e+002, 1.678869e+001
7.789377e+002, 1.682873e+001
7.794199e+002, 1.684503e+001
7.799020e+002, 1.684062e+001
7.803841e+002, 1.683257e+001
7.808662e+002, 1.685129e+001
7.813483e+002, 1.682172e+001
7.818304e+002, 1.665353e+001
7.823126e+002, 1.648959e+001
7.827947e+002, 1.646458e+001
7.832768e+002, 1.654457e+001
7.837589e+002, 1.661772e+001
7.842410e+002, 1.663361e+001
7.847231e+002, 1.663747e+001
7.852053e+002, 1.669330e+001
7.856874e+002, 1.678424e+001
7.861695e+002, 1.684036e+001
7.866516e+002, 1.685665e+001
7.871337e+002, 1.687505e+001
7.876158e+002, 1.692226e+001
7.880980e+002, 1.696079e+001
7.885801e+002, 1.692856e+001
7.890622e+002, 1.681240e+001
7.895443e+002, 1.671231e+001
7.900264e+002, 1.656790e+001
7.905085e+002, 1.651663e+001
7.909907e+002, 1.668438e+001
7.914728e+002, 1.688944e+001
7.919549e+002, 1.695133e+001
7.924370e+002, 1.688068e+001
7.929191e+002, 1.681906e+001
7.934012e+002, 1.682388e+001
7.938834e+002, 1.688311e+001
7.943655e+002, 1.701943e+001
7.948476e+002, 1.719235e+001
7.953297e+002, 1.733455e+001
7.958118e+002, 1.742887e+001
7.962939e+002, 1.741762e+001
7.967761e+002, 1.724625e+001
7.972582e+002, 1.701585e+001
7.977403e+002, 1.699931e+001
7.982224e+002, 1.728405e+001
7.987045e+002, 1.740209e+001
7.991866e+002, 1.724055e+001
7.996688e+002, 1.707435e+001
8.001509e+002, 1.700178e+001
8.006330e+002, 1.700731e+001
8.011151e+002, 1.711869e+001
8.015972e+002, 1.735243e+001
8.020793e+002, 1.746716e+001
8.025615e+002, 1.727350e+001
8.030436e+002, 1.706970e+001
8.035257e+002, 1.702183e+001
8.040078e+002, 1.709188e+001
8.044899e+002, 1.727814e+001
8.049720e+002, 1.753544e+001
8.054542e+002, 1.767400e+001
8.059363e+002, 1.750916e+001
8.064184e+002, 1.719282e+001
8.069005e+002, 1.706352e+001
8.073826e+002, 1.711456e+001
8.078647e+002, 1.721616e+001
8.083469e+002, 1.737096e+001
8.088290e+002, 1.745915e+001
8.093111e+002, 1.737205e+001
8.097932e+002, 1.717291e+001
8.102753e+002, 1.705539e+001
8.107574e+002, 1.704451e+001
8.112396e+002, 1.706699e+001
8.117217e+002, 1.718186e+001
8.122038e+002, 1.726374e+001
8.126859e+002, 1.720912e+001
8.131680e+002, 1.711419e+001
8.136501e+002, 1.713802e+001
8.141323e+002, 1.730168e+001
8.146144e+002, 1.741445e+001
8.150965e+002, 1.726708e+001
8.155786e+002, 1.707937e+001
8.160607e+002, 1.715060e+001
8.165428e+002, 1.738511e+001
8.170250e+002, 1.753078e+001
8.175071e+002, 1.752943e+001
8.179892e+002, 1.745494e+001
8.184713e+002, 1.735594e+001
8.189534e+002, 1.725710e+001
8.194355e+002, 1.726191e+001
8.199177e+002, 1.740223e+001
8.203998e+002, 1.749441e+001
8.208819e+002, 1.749017e+001
8.213640e+002, 1.748410e+001
8.218461e+002, 1.754933e+001
8.223282e+002, 1.764579e+001
8.228104e+002, 1.769653e+001
8.232925e+002, 1.769584e+001
8.237746e+002, 1.766591e+001
8.242567e+002, 1.758000e+001
8.247388e+002, 1.749900e+001
8.252209e+002, 1.744868e+001
8.257031e+002, 1.742986e+001
8.261852e+002, 1.746451e+001
8.266673e+002, 1.754203e+001
8.271494e+002, 1.757739e+001
8.276315e+002, 1.747665e+001
8.281136e+002, 1.732730e+001
8.285958e+002, 1.728035e+001
8.290779e+002, 1.731915e+001
8.295600e+002, 1.737755e+001
8.300421e+002, 1.744425e+001
8.305242e+002, 1.745383e+001
8.310063e+002, 1.733468e+001
8.314885e+002, 1.716257e+001
8.319706e+002, 1.719549e+001
8.324527e+002, 1.758543e+001
8.329348e+002, 1.777299e+001
8.334169e+002, 1.759214e+001
8.338990e+002, 1.741212e+001
8.343812e+002, 1.739040e+001
8.348633e+002, 1.744322e+001
8.353454e+002, 1.746042e+001
8.358275e+002, 1.743014e+001
8.363096e+002, 1.743884e+001
8.367917e+002, 1.757423e+001
8.372739e+002, 1.769311e+001
8.377560e+002, 1.768563e+001
8.382381e+002, 1.761639e+001
8.387202e+002, 1.757654e+001
8.392023e+002, 1.757800e+001
8.396844e+002, 1.758104e+001
8.401666e+002, 1.755734e+001
8.406487e+002, 1.752703e+001
8.411308e+002, 1.752479e+001
8.416129e+002, 1.754830e+001
8.420950e+002, 1.757250e+001
8.425771e+002, 1.759138e+001
8.430593e+002, 1.767377e+001
8.435414e+002, 1.789291e+001
8.440235e+002, 1.812026e+001
8.445056e+002, 1.809674e+001
8.449877e+002, 1.774291e+001
8.454698e+002, 1.754216e+001
8.459520e+002, 1.761671e+001
8.464341e+002, 1.768572e+001
8.469162e+002, 1.768089e+001
8.473983e+002, 1.764836e+001
8.478804e+002, 1.761824e+001
8.483625e+002, 1.759655e+001
8.488447e+002, 1.759753e+001
8.493268e+002, 1.765754e+001
8.498089e+002, 1.769125e+001
8.502910e+002, 1.756281e+001
8.507731e+002, 1.744081e+001
8.512552e+002, 1.761053e+001
8.517374e+002, 1.797701e+001
8.522195e+002, 1.817300e+001
8.527016e+002, 1.802925e+001
8.531837e+002, 1.775662e+001
8.536658e+002, 1.760939e+001
8.541479e+002, 1.756839e+001
8.546301e+002, 1.755578e+001
8.551122e+002, 1.757191e+001
8.555943e+002, 1.754974e+001
8.560764e+002, 1.745917e+001
8.565585e+002, 1.734861e+001
8.570406e+002, 1.725965e+001
8.575228e+002, 1.719598e+001
8.580049e+002, 1.720513e+001
8.584870e+002, 1.735668e+001
8.589691e+002, 1.746286e+001
8.594512e+002, 1.750661e+001
8.599333e+002, 1.750471e+001
8.604155e+002, 1.741072e+001
8.608976e+002, 1.729326e+001
8.613797e+002, 1.730656e+001
8.618618e+002, 1.751474e+001
8.623439e+002, 1.762770e+001
8.628260e+002, 1.740686e+001
8.633082e+002, 1.715663e+001
8.637903e+002, 1.718087e+001
8.642724e+002, 1.732415e+001
8.647545e+002, 1.724786e+001
8.652366e+002, 1.692125e+001
8.657188e+002, 1.668838e+001
8.662009e+002, 1.686974e+001
8.666830e+002, 1.721009e+001
8.671651e+002, 1.713398e+001
8.676472e+002, 1.673452e+001
8.681293e+002, 1.663992e+001
8.686115e+002, 1.695500e+001
8.690936e+002, 1.728769e+001
8.695757e+002, 1.741828e+001
8.700578e+002, 1.738294e+001
8.705399e+002, 1.723329e+001
8.710220e+002, 1.692272e+001
8.715042e+002, 1.673705e+001
8.719863e+002, 1.674102e+001
8.724684e+002, 1.676712e+001
8.729505e+002, 1.674846e+001
8.734326e+002, 1.674375e+001
8.739147e+002, 1.684600e+001
8.743969e+002, 1.702663e+001
8.748790e+002, 1.709523e+001
8.753611e+002, 1.692234e+001
8.758432e+002, 1.676555e+001
8.763253e+002, 1.672358e+001
8.768074e+002, 1.672747e+001
8.772896e+002, 1.671959e+001
8.777717e+002, 1.670580e+001
8.782538e+002, 1.672309e+001
8.787359e+002, 1.678430e+001
8.792180e+002, 1.683711e+001
8.797001e+002, 1.684166e+001
8.801823e+002, 1.680080e+001
8.806644e+002, 1.661174e+001
8.811465e+002, 1.636382e+001
8.816286e+002, 1.655897e+001
8.821107e+002, 1.730881e+001
8.825928e+002, 1.792430e+001
8.830750e+002, 1.776698e+001
8.835571e+002, 1.707318e+001
8.840392e+002, 1.664104e+001
8.845213e+002, 1.650989e+001
8.850034e+002, 1.643199e+001
8.854855e+002, 1.641456e+001
8.859677e+002, 1.638909e+001
8.864498e+002, 1.631714e+001
8.869319e+002, 1.621929e+001
8.874140e+002, 1.611208e+001
8.878961e+002, 1.597813e+001
8.883782e+002, 1.595451e+001
8.888604e+002, 1.618901e+001
8.893425e+002, 1.634838e+001
8.898246e+002, 1.630499e+001
8.903067e+002, 1.617882e+001
8.907888e+002, 1.602805e+001
8.912709e+002, 1.589150e+001
8.917531e+002, 1.585960e+001
8.922352e+002, 1.600422e+001
8.927173e+002, 1.612488e+001
8.931994e+002, 1.603919e+001
8.936815e+002, 1.588904e+001
8.941636e+002, 1.581504e+001
8.946458e+002, 1.582444e+001
8.951279e+002, 1.595643e+001
8.956100e+002, 1.619931e+001
8.960921e+002, 1.632582e+001
8.965742e+002, 1.605152e+001
8.970563e+002, 1.556784e+001
8.975385e+002, 1.540482e+001
8.980206e+002, 1.553844e+001
8.985027e+002, 1.566648e+001
8.989848e+002, 1.573877e+001
8.994669e+002, 1.577405e+001
8.999490e+002, 1.577708e+001
9.004312e+002, 1.576729e+001
9.009133e+002, 1.579780e+001
9.013954e+002, 1.589551e+001
9.018775e+002, 1.590440e+001
9.023596e+002, 1.576107e+001
9.028417e+002, 1.563688e+001
9.033239e+002, 1.561018e+001
9.038060e+002, 1.560394e+001
9.042881e+002, 1.552373e+001
9.047702e+002, 1.538942e+001
9.052523e+002, 1.533100e+001
9.057344e+002, 1.542228e+001
9.062166e+002, 1.550439e+001
9.066987e+002, 1.555095e+001
9.071808e+002, 1.556489e+001
9.076629e+002, 1.553076e+001
9.081450e+002, 1.547146e+001
9.086271e+002, 1.542465e+001
9.091093e+002, 1.540035e+001
9.095914e+002, 1.538341e+001
9.100735e+002, 1.533860e+001
9.105556e+002, 1.531746e+001
9.110377e+002, 1.542415e+001
9.115198e+002, 1.558381e+001
9.120020e+002, 1.563616e+001
9.124841e+002, 1.556374e+001
9.129662e+002, 1.543547e+001
9.134483e+002, 1.528448e+001
9.139304e+002, 1.517505e+001
9.144125e+002, 1.527309e+001
9.148947e+002, 1.553640e+001
9.153768e+002, 1.558605e+001
9.158589e+002, 1.539434e+001
9.163410e+002, 1.527797e+001
9.168231e+002, 1.536200e+001
9.173052e+002, 1.552376e+001
9.177874e+002, 1.562764e+001
9.182695e+002, 1.568265e+001
9.187516e+002, 1.577922e+001
9.192337e+002, 1.597011e+001
9.197158e+002, 1.607374e+001
9.201979e+002, 1.601138e+001
9.206801e+002, 1.593888e+001
9.211622e+002, 1.595744e+001
9.216443e+002, 1.601385e+001
9.221264e+002, 1.601561e+001
9.226085e+002, 1.594768e+001
9.230906e+002, 1.591619e+001
9.235728e+002, 1.597272e+001
9.240549e+002, 1.602181e+001
9.245370e+002, 1.597784e+001
9.250191e+002, 1.594869e+001
9.255012e+002, 1.609043e+001
9.259833e+002, 1.634013e+001
9.264655e+002, 1.646401e+001
9.269476e+002, 1.633838e+001
9.274297e+002, 1.622775e+001
9.279118e+002, 1.634928e+001
9.283939e+002, 1.655457e+001
9.288760e+002, 1.670436e+001
9.293582e+002, 1.679451e+001
9.298403e+002, 1.683733e+001
9.303224e+002, 1.683909e+001
9.308045e+002, 1.680535e+001
9.312866e+002, 1.672506e+001
9.317687e+002, 1.664453e+001
9.322509e+002, 1.668081e+001
9.327330e+002, 1.679852e+001
9.332151e+002, 1.680731e+001
9.336972e+002, 1.669407e+001
9.341793e+002, 1.665781e+001
9.346614e+002, 1.680443e+001
9.351436e+002, 1.702030e+001
9.356257e+002, 1.714194e+001
9.361078e+002, 1.717365e+001
9.365899e+002, 1.718788e+001
9.370720e+002, 1.717031e+001
9.375541e+002, 1.720000e+001
9.380363e+002, 1.732156e+001
9.385184e+002, 1.743383e+001
9.390005e+002, 1.745945e+001
9.394826e+002, 1.742242e+001
9.399647e+002, 1.738420e+001
9.404468e+002, 1.731665e+001
9.409290e+002, 1.732580e+001
9.414111e+002, 1.745271e+001
9.418932e+002, 1.760123e+001
9.423753e+002, 1.781508e+001
9.428574e+002, 1.798489e+001
9.433395e+002, 1.795932e+001
9.438217e+002, 1.778479e+001
9.443038e+002, 1.770596e+001
9.447859e+002, 1.783132e+001
9.452680e+002, 1.795306e+001
9.457501e+002, 1.795979e+001
9.462322e+002, 1.797131e+001
9.467144e+002, 1.809759e+001
9.471965e+002, 1.828508e+001
9.476786e+002, 1.844742e+001
9.481607e+002, 1.856191e+001
9.486428e+002, 1.863595e+001
9.491249e+002, 1.865552e+001
9.496071e+002, 1.866040e+001
9.500892e+002, 1.868015e+001
9.505713e+002, 1.871794e+001
9.510534e+002, 1.876757e+001
9.515355e+002, 1.883925e+001
9.520176e+002, 1.897858e+001
9.524998e+002, 1.920481e+001
9.529819e+002, 1.945527e+001
9.534640e+002, 1.966386e+001
9.539461e+002, 1.983685e+001
9.544282e+002, 1.998882e+001
9.549103e+002, 2.012240e+001
9.553925e+002, 2.026474e+001
9.558746e+002, 2.042260e+001
9.563567e+002, 2.053613e+001
9.568388e+002, 2.055508e+001
9.573209e+002, 2.053490e+001
9.578030e+002, 2.059243e+001
9.582852e+002, 2.072995e+001
9.587673e+002, 2.091169e+001
9.592494e+002, 2.112255e+001
9.597315e+002, 2.145523e+001
9.602136e+002, 2.200453e+001
9.606957e+002, 2.255239e+001
9.611779e+002, 2.288939e+001
9.616600e+002, 2.304488e+001
9.621421e+002, 2.315860e+001
9.626242e+002, 2.309880e+001
9.631063e+002, 2.326202e+001
9.635884e+002, 2.384472e+001
9.640706e+002, 2.440755e+001
9.645527e+002, 2.480159e+001
9.650348e+002, 2.508453e+001
9.655169e+002, 2.530799e+001
9.659990e+002, 2.547552e+001
9.664811e+002, 2.560635e+001
9.669633e+002, 2.567408e+001
9.674454e+002, 2.574505e+001
9.679275e+002, 2.585076e+001
9.684096e+002, 2.594806e+001
9.688917e+002, 2.599003e+001
9.693738e+002, 2.601111e+001
9.698560e+002, 2.610853e+001
9.703381e+002, 2.629277e+001
9.708202e+002, 2.634674e+001
9.713023e+002, 2.604806e+001
9.717844e+002, 2.572184e+001
9.722665e+002, 2.556290e+001
9.727487e+002, 2.551134e+001
9.732308e+002, 2.552317e+001
9.737129e+002, 2.557227e+001
9.741950e+002, 2.562760e+001
9.746771e+002, 2.567696e+001
9.751592e+002, 2.570076e+001
9.756414e+002, 2.566008e+001
9.761235e+002, 2.559866e+001
9.766056e+002, 2.560058e+001
9.770877e+002, 2.562662e+001
9.775698e+002, 2.555615e+001
9.780519e+002, 2.539186e+001
9.785341e+002, 2.527295e+001
9.790162e+002, 2.528415e+001
9.794983e+002, 2.535544e+001
9.799804e+002, 2.538187e+001
9.804625e+002, 2.538198e+001
9.809446e+002, 2.543967e+001
9.814268e+002, 2.554866e+001
9.819089e+002, 2.563296e+001
9.823910e+002, 2.567249e+001
9.828731e+002, 2.569270e+001
9.833552e+002, 2.572369e+001
9.838373e+002, 2.571891e+001
9.843195e+002, 2.552424e+001
9.848016e+002, 2.512599e+001
9.852837e+002, 2.485525e+001
9.857658e+002, 2.473388e+001
9.862479e+002, 2.469640e+001
9.867300e+002, 2.476237e+001
9.872122e+002, 2.477943e+001
9.876943e+002, 2.457375e+001
9.881764e+002, 2.419206e+001
9.886585e+002, 2.389072e+001
9.891406e+002, 2.368750e+001
9.896227e+002, 2.350870e+001
9.901049e+002, 2.333142e+001
9.905870e+002, 2.321622e+001
9.910691e+002, 2.320507e+001
9.915512e+002, 2.325119e+001
9.920333e+002, 2.329485e+001
9.925154e+002, 2.333782e+001
9.929976e+002, 2.343828e+001
9.934797e+002, 2.368296e+001
9.939618e+002, 2.385279e+001
9.944439e+002, 2.386245e+001
9.949260e+002, 2.387909e+001
9.954081e+002, 2.401221e+001
9.958903e+002, 2.418291e+001
9.963724e+002, 2.428794e+001
9.968545e+002, 2.432014e+001
9.973366e+002, 2.431556e+001
9.978187e+002, 2.413919e+001
9.983008e+002, 2.412233e+001
9.987830e+002, 2.452459e+001
9.992651e+002, 2.495702e+001
9.997472e+002, 2.513796e+001
1.000229e+003, 2.514798e+001
1.000711e+003, 2.512302e+001
1.001194e+003, 2.509516e+001
1.001676e+003, 2.518362e+001
1.002158e+003, 2.552930e+001
1.002640e+003, 2.589958e+001
1.003122e+003, 2.611663e+001
1.003604e+003, 2.632482e+001
1.004086e+003, 2.675619e+001
1.004568e+003, 2.729404e+001
1.005050e+003, 2.762406e+001
1.005533e+003, 2.765045e+001
1.006015e+003, 2.760508e+001
1.006497e+003, 2.760253e+001
1.006979e+003, 2.764815e+001
1.007461e+003, 2.781347e+001
1.007943e+003, 2.799471e+001
1.008425e+003, 2.798782e+001
1.008907e+003, 2.783486e+001
1.009390e+003, 2.777094e+001
1.009872e+003, 2.789503e+001
1.010354e+003, 2.801473e+001
1.010836e+003, 2.791305e+001
1.011318e+003, 2.770662e+001
1.011800e+003, 2.759039e+001
1.012282e+003, 2.752311e+001
1.012764e+003, 2.737907e+001
1.013246e+003, 2.715961e+001
1.013729e+003, 2.700651e+001
1.014211e+003, 2.699740e+001
1.014693e+003, 2.697530e+001
1.015175e+003, 2.664491e+001
1.015657e+003, 2.616305e+001
1.016139e+003, 2.602261e+001
1.016621e+003, 2.616524e+001
1.017103e+003, 2.632792e+001
1.017586e+003, 2.644836e+001
1.018068e+003, 2.645425e+001
1.018550e+003, 2.629430e+001
1.019032e+003, 2.606072e+001
1.019514e+003, 2.589689e+001
1.019996e+003, 2.579813e+001
1.020478e+003, 2.575008e+001
1.020960e+003, 2.575074e+001
1.021442e+003, 2.573977e+001
1.021925e+003, 2.570789e+001
1.022407e+003, 2.557857e+001
1.022889e+003, 2.528412e+001
1.023371e+003, 2.491509e+001
1.023853e+003, 2.464616e+001
1.024335e+003, 2.447833e+001
1.024817e+003, 2.435941e+001
1.025299e+003, 2.428983e+001
1.025781e+003, 2.428508e+001
1.026264e+003, 2.437845e+001
1.026746e+003, 2.440548e+001
1.027228e+003, 2.422714e+001
1.027710e+003, 2.392696e+001
1.028192e+003, 2.367566e+001
1.028674e+003, 2.344946e+001
1.029156e+003, 2.350715e+001
1.029638e+003, 2.394937e+001
1.030120e+003, 2.433329e+001
1.030603e+003, 2.453339e+001
1.031085e+003, 2.467273e+001
1.031567e+003, 2.481152e+001
1.032049e+003, 2.498786e+001
1.032531e+003, 2.531131e+001
1.033013e+003, 2.581129e+001
1.033495e+003, 2.632258e+001
1.033977e+003, 2.678433e+001
1.034460e+003, 2.740166e+001
1.034942e+003, 2.836376e+001
1.035424e+003, 2.929409e+001
1.035906e+003, 2.982944e+001
1.036388e+003, 3.012980e+001
1.036870e+003, 3.067361e+001
1.037352e+003, 3.158189e+001
1.037834e+003, 3.230335e+001
1.038317e+003, 3.280423e+001
1.038799e+003, 3.316508e+001
1.039281e+003, 3.332910e+001
1.039763e+003, 3.343751e+001
1.040245e+003, 3.371774e+001
1.040727e+003, 3.401204e+001
1.041209e+003, 3.385269e+001
1.041691e+003, 3.310116e+001
1.042173e+003, 3.233897e+001
1.042656e+003, 3.158511e+001
1.043138e+003, 3.079926e+001
1.043620e+003, 2.994243e+001
1.044102e+003, 2.907602e+001
1.044584e+003, 2.825875e+001
1.045066e+003, 2.746455e+001
1.045548e+003, 2.662254e+001
1.046030e+003, 2.569862e+001
1.046512e+003, 2.484510e+001
1.046995e+003, 2.414797e+001
1.047477e+003, 2.343096e+001
1.047959e+003, 2.246961e+001
1.048441e+003, 2.162439e+001
1.048923e+003, 2.132630e+001
1.049405e+003, 2.133768e+001
1.049887e+003, 2.103579e+001
1.050369e+003, 2.024953e+001
1.050852e+003, 1.966911e+001
1.051334e+003, 1.963652e+001
1.051816e+003, 1.955063e+001
1.052298e+003, 1.909761e+001
1.052780e+003, 1.860556e+001
1.053262e+003, 1.835733e+001
1.053744e+003, 1.827765e+001
1.054226e+003, 1.814484e+001
1.054708e+003, 1.790532e+001
1.055191e+003, 1.776323e+001
1.055673e+003, 1.793144e+001
1.056155e+003, 1.800044e+001
1.056637e+003, 1.768352e+001
1.057119e+003, 1.731880e+001
1.057601e+003, 1.724896e+001
1.058083e+003, 1.733217e+001
1.058565e+003, 1.719551e+001
1.059047e+003, 1.675224e+001
1.059530e+003, 1.644877e+001
1.060012e+003, 1.653974e+001
1.060494e+003, 1.666294e+001
1.060976e+003, 1.667384e+001
1.061458e+003, 1.664634e+001
1.061940e+003, 1.665293e+001
1.062422e+003, 1.666678e+001
1.062904e+003, 1.662810e+001
1.063387e+003, 1.652561e+001
1.063869e+003, 1.638729e+001
1.064351e+003, 1.613070e+001
1.064833e+003, 1.596148e+001
1.065315e+003, 1.605180e+001
1.065797e+003, 1.619242e+001
1.066279e+003, 1.620038e+001
1.066761e+003, 1.613302e+001
1.067244e+003, 1.613960e+001
1.067726e+003, 1.623638e+001
1.068208e+003, 1.623856e+001
1.068690e+003, 1.594120e+001
1.069172e+003, 1.570849e+001
1.069654e+003, 1.570889e+001
1.070136e+003, 1.583738e+001
1.070618e+003, 1.612220e+001
1.071100e+003, 1.642200e+001
1.071583e+003, 1.650210e+001
1.072065e+003, 1.634658e+001
1.072547e+003, 1.617276e+001
1.073029e+003, 1.601395e+001
1.073511e+003, 1.594393e+001
1.073993e+003, 1.609331e+001
1.074475e+003, 1.624997e+001
1.074957e+003, 1.624062e+001
1.075439e+003, 1.613577e+001
1.075922e+003, 1.600759e+001
1.076404e+003, 1.589547e+001
1.076886e+003, 1.591891e+001
1.077368e+003, 1.620795e+001
1.077850e+003, 1.644261e+001
1.078332e+003, 1.643902e+001
1.078814e+003, 1.636489e+001
1.079297e+003, 1.632197e+001
1.079779e+003, 1.629584e+001
1.080261e+003, 1.624574e+001
1.080743e+003, 1.618087e+001
1.081225e+003, 1.616411e+001
1.081707e+003, 1.623449e+001
1.082189e+003, 1.629312e+001
1.082671e+003, 1.626949e+001
1.083153e+003, 1.624795e+001
1.083635e+003, 1.627662e+001
1.084118e+003, 1.634239e+001
1.084600e+003, 1.643846e+001
1.085082e+003, 1.655407e+001
1.085564e+003, 1.668049e+001
1.086046e+003, 1.683526e+001
1.086528e+003, 1.688857e+001
1.087010e+003, 1.664531e+001
1.087492e+003, 1.645391e+001
1.087975e+003, 1.656511e+001
1.088457e+003, 1.677783e+001
1.088939e+003, 1.689551e+001
1.089421e+003, 1.693414e+001
1.089903e+003, 1.699656e+001
1.090385e+003, 1.711127e+001
1.090867e+003, 1.717933e+001
1.091349e+003, 1.710932e+001
1.091832e+003, 1.705326e+001
1.092314e+003, 1.708694e+001
1.092796e+003, 1.715856e+001
1.093278e+003, 1.722573e+001
1.093760e+003, 1.729548e+001
1.094242e+003, 1.741330e+001
1.094724e+003, 1.758343e+001
1.095206e+003, 1.766000e+001
1.095688e+003, 1.745691e+001
1.096171e+003, 1.734542e+001
1.096653e+003, 1.758468e+001
1.097135e+003, 1.782470e+001
1.097617e+003, 1.775466e+001
1.098099e+003, 1.756583e+001
1.098581e+003, 1.755289e+001
1.099063e+003, 1.773951e+001
1.099545e+003, 1.797573e+001
1.100027e+003, 1.837120e+001
1.100510e+003, 1.856842e+001
1.100992e+003, 1.831949e+001
1.101474e+003, 1.803077e+001
1.101956e+003, 1.788077e+001
1.102438e+003, 1.783995e+001
1.102920e+003, 1.787277e+001
1.103402e+003, 1.797262e+001
1.103884e+003, 1.813937e+001
1.104367e+003, 1.843945e+001
1.104849e+003, 1.863932e+001
1.105331e+003, 1.864047e+001
1.105813e+003, 1.860714e+001
1.106295e+003, 1.852691e+001
1.106777e+003, 1.850383e+001
1.107259e+003, 1.868500e+001
1.107741e+003, 1.899150e+001
1.108224e+003, 1.917877e+001
1.108706e+003, 1.917719e+001
1.109188e+003, 1.925753e+001
1.109670e+003, 1.961278e+001
1.110152e+003, 1.981558e+001
1.110634e+003, 1.961679e+001
1.111116e+003, 1.938884e+001
1.111598e+003, 1.937070e+001
1.112080e+003, 1.949544e+001
1.112563e+003, 1.963567e+001
1.113045e+003, 1.978719e+001
1.113527e+003, 1.997937e+001
1.114009e+003, 2.031519e+001
1.114491e+003, 2.052285e+001
1.114973e+003, 2.046799e+001
1.115455e+003, 2.042559e+001
1.115937e+003, 2.053164e+001
1.116419e+003, 2.071486e+001
1.116902e+003, 2.089924e+001
1.117384e+003, 2.108101e+001
1.117866e+003, 2.122172e+001
1.118348e+003, 2.132683e+001
1.118830e+003, 2.136471e+001
1.119312e+003, 2.122523e+001
1.119794e+003, 2.124670e+001
1.120276e+003, 2.163023e+001
1.120759e+003, 2.208485e+001
1.121241e+003, 2.232068e+001
1.121723e+003, 2.242005e+001
1.122205e+003, 2.269615e+001
1.122687e+003, 2.322087e+001
1.123169e+003, 2.357836e+001
1.123651e+003, 2.370565e+001
1.124133e+003, 2.387953e+001
1.124615e+003, 2.417469e+001
1.125098e+003, 2.451306e+001
1.125580e+003, 2.485260e+001
1.126062e+003, 2.517919e+001
1.126544e+003, 2.547324e+001
1.127026e+003, 2.573210e+001
1.127508e+003, 2.586276e+001
1.127990e+003, 2.585559e+001
1.128472e+003, 2.577076e+001
1.128954e+003, 2.558995e+001
1.129437e+003, 2.556140e+001
1.129919e+003, 2.583743e+001
1.130401e+003, 2.615619e+001
1.130883e+003, 2.619393e+001
1.131365e+003, 2.600659e+001
1.131847e+003, 2.582048e+001
1.132329e+003, 2.563126e+001
1.132811e+003, 2.534441e+001
1.133294e+003, 2.495599e+001
1.133776e+003, 2.464548e+001
1.134258e+003, 2.447296e+001
1.134740e+003, 2.424219e+001
1.135222e+003, 2.377345e+001
1.135704e+003, 2.321208e+001
1.136186e+003, 2.288190e+001
1.136668e+003, 2.270490e+001
1.137151e+003, 2.237580e+001
1.137633e+003, 2.190610e+001
1.138115e+003, 2.134390e+001
1.138597e+003, 2.073132e+001
1.139079e+003, 2.025504e+001
1.139561e+003, 2.002366e+001
1.140043e+003, 1.987213e+001
1.140525e+003, 1.960829e+001
1.141007e+003, 1.928608e+001
1.141490e+003, 1.897771e+001
1.141972e+003, 1.870549e+001
1.142454e+003, 1.853957e+001
1.142936e+003, 1.845893e+001
1.143418e+003, 1.837576e+001
1.143900e+003, 1.825803e+001
1.144382e+003, 1.811780e+001
1.144864e+003, 1.796565e+001
1.145346e+003, 1.779273e+001
1.145829e+003, 1.756692e+001
1.146311e+003, 1.733410e+001
1.146793e+003, 1.713910e+001
1.147275e+003, 1.698853e+001
1.147757e+003, 1.691533e+001
1.148239e+003, 1.689640e+001
1.148721e+003, 1.680284e+001
1.149203e+003, 1.654433e+001
1.149686e+003, 1.635843e+001
1.150168e+003, 1.647082e+001
1.150650e+003, 1.663037e+001
1.151132e+003, 1.667785e+001
1.151614e+003, 1.665100e+001
1.152096e+003, 1.658338e+001
1.152578e+003, 1.649022e+001
1.153060e+003, 1.638185e+001
1.153542e+003, 1.625976e+001
1.154025e+003, 1.616464e+001
1.154507e+003, 1.612226e+001
1.154989e+003, 1.609309e+001
1.155471e+003, 1.608562e+001
1.155953e+003, 1.606288e+001
1.156435e+003, 1.600300e+001
1.156917e+003, 1.591149e+001
1.157399e+003, 1.577847e+001
1.157881e+003, 1.561415e+001
1.158364e+003, 1.550081e+001
1.158846e+003, 1.549314e+001
1.159328e+003, 1.544707e+001
1.159810e+003, 1.528916e+001
1.160292e+003, 1.518107e+001
1.160774e+003, 1.523543e+001
1.161256e+003, 1.528120e+001
1.161738e+003, 1.514560e+001
1.162221e+003, 1.492372e+001
1.162703e+003, 1.486497e+001
1.163185e+003, 1.500886e+001
1.163667e+003, 1.497910e+001
1.164149e+003, 1.469849e+001
1.164631e+003, 1.446353e+001
1.165113e+003, 1.430438e+001
1.165595e+003, 1.424317e+001
1.166078e+003, 1.432080e+001
1.166560e+003, 1.442310e+001
1.167042e+003, 1.439615e+001
1.167524e+003, 1.428174e+001
1.168006e+003, 1.430298e+001
1.168488e+003, 1.446920e+001
1.168970e+003, 1.448242e+001
1.169452e+003, 1.432228e+001
1.169934e+003, 1.418364e+001
1.170417e+003, 1.412251e+001
1.170899e+003, 1.409432e+001
1.171381e+003, 1.407073e+001
1.171863e+003, 1.403614e+001
1.172345e+003, 1.393924e+001
1.172827e+003, 1.381489e+001
1.173309e+003, 1.379502e+001
1.173791e+003, 1.385990e+001
1.174273e+003, 1.397009e+001
1.174756e+003, 1.409166e+001
1.175238e+003, 1.408551e+001
1.175720e+003, 1.390642e+001
1.176202e+003, 1.373039e+001
1.176684e+003, 1.372463e+001
1.177166e+003, 1.376726e+001
1.177648e+003, 1.371483e+001
1.178130e+003, 1.360467e+001
1.178613e+003, 1.345034e+001
1.179095e+003, 1.329945e+001
1.179577e+003, 1.324571e+001
1.180059e+003, 1.328703e+001
1.180541e+003, 1.334878e+001
1.181023e+003, 1.341129e+001
1.181505e+003, 1.341101e+001
1.181987e+003, 1.324562e+001
1.182469e+003, 1.308036e+001
1.182952e+003, 1.302982e+001
1.183434e+003, 1.302871e+001
1.183916e+003, 1.302138e+001
1.184398e+003, 1.300679e+001
1.184880e+003, 1.298911e+001
1.185362e+003, 1.297056e+001
1.185844e+003, 1.298368e+001
1.186326e+003, 1.313441e+001
1.186808e+003, 1.316472e+001
1.187291e+003, 1.290116e+001
1.187773e+003, 1.266736e+001
1.188255e+003, 1.263146e+001
1.188737e+003, 1.266611e+001
1.189219e+003, 1.264544e+001
1.189701e+003, 1.259589e+001
1.190183e+003, 1.261090e+001
1.190665e+003, 1.272502e+001
1.191148e+003, 1.270978e+001
1.191630e+003, 1.248142e+001
1.192112e+003, 1.236755e+001
1.192594e+003, 1.246081e+001
1.193076e+003, 1.256042e+001
1.193558e+003, 1.255974e+001
1.194040e+003, 1.252479e+001
1.194522e+003, 1.254345e+001
1.195005e+003, 1.259450e+001
1.195487e+003, 1.257873e+001
1.195969e+003, 1.249996e+001
1.196451e+003, 1.246969e+001
1.196933e+003, 1.249039e+001
1.197415e+003, 1.247678e+001
1.197897e+003, 1.240946e+001
1.198379e+003, 1.236974e+001
1.198861e+003, 1.241265e+001
1.199344e+003, 1.246539e+001
1.199826e+003, 1.243123e+001
1.200308e+003, 1.233581e+001
1.200790e+003, 1.220083e+001
1.201272e+003, 1.205883e+001
1.201754e+003, 1.197399e+001
1.202236e+003, 1.195170e+001
1.202718e+003, 1.200693e+001
1.203200e+003, 1.212624e+001
1.203683e+003, 1.218471e+001
1.204165e+003, 1.206541e+001
1.204647e+003, 1.198221e+001
1.205129e+003, 1.216099e+001
1.205611e+003, 1.237552e+001
1.206093e+003, 1.242027e+001
1.206575e+003, 1.239544e+001
1.207057e+003, 1.244660e+001
1.207540e+003, 1.254424e+001
1.208022e+003, 1.256765e+001
1.208504e+003, 1.248840e+001
1.208986e+003, 1.239031e+001
1.209468e+003, 1.220131e+001
1.209950e+003, 1.213184e+001
1.210432e+003, 1.239461e+001
1.210914e+003, 1.259012e+001
1.211396e+003, 1.241988e+001
1.211879e+003, 1.216447e+001
1.212361e+003, 1.211315e+001
1.212843e+003, 1.222120e+001
1.213325e+003, 1.231270e+001
1.213807e+003, 1.238504e+001
1.214289e+003, 1.246508e+001
1.214771e+003, 1.258640e+001
1.215253e+003, 1.255669e+001
1.215735e+003, 1.229996e+001
1.216218e+003, 1.207575e+001
1.216700e+003, 1.202377e+001
1.217182e+003, 1.207449e+001
1.217664e+003, 1.215425e+001
1.218146e+003, 1.224689e+001
1.218628e+003, 1.230628e+001
1.219110e+003, 1.233336e+001
1.219592e+003, 1.231365e+001
1.220075e+003, 1.226377e+001
1.220557e+003, 1.227466e+001
1.221039e+003, 1.235876e+001
1.221521e+003, 1.244724e+001
1.222003e+003, 1.250238e+001
1.222485e+003, 1.254037e+001
1.222967e+003, 1.261222e+001
1.223449e+003, 1.264083e+001
1.223932e+003, 1.248455e+001
1.224414e+003, 1.227147e+001
1.224896e+003, 1.216770e+001
1.225378e+003, 1.214362e+001
1.225860e+003, 1.208900e+001
1.226342e+003, 1.200403e+001
1.226824e+003, 1.203173e+001
1.227306e+003, 1.228577e+001
1.227788e+003, 1.247005e+001
1.228271e+003, 1.248304e+001
1.228753e+003, 1.240872e+001
1.229235e+003, 1.219081e+001
1.229717e+003, 1.198932e+001
1.230199e+003, 1.195742e+001
1.230681e+003, 1.201476e+001
1.231163e+003, 1.199337e+001
1.231645e+003, 1.189724e+001
1.232127e+003, 1.192370e+001
1.232610e+003, 1.213283e+001
1.233092e+003, 1.228416e+001
1.233574e+003, 1.236962e+001
1.234056e+003, 1.237645e+001
1.234538e+003, 1.228209e+001
1.235020e+003, 1.220143e+001
1.235502e+003, 1.222847e+001
1.235984e+003, 1.227778e+001
1.236467e+003, 1.217138e+001
1.236949e+003, 1.197507e+001
1.237431e+003, 1.201764e+001
1.237913e+003, 1.222774e+001
1.238395e+003, 1.225315e+001
1.238877e+003, 1.210988e+001
1.239359e+003, 1.207719e+001
1.239841e+003, 1.222005e+001
1.240323e+003, 1.233770e+001
1.240806e+003, 1.229774e+001
1.241288e+003, 1.220788e+001
1.241770e+003, 1.211661e+001
1.242252e+003, 1.208179e+001
1.242734e+003, 1.226140e+001
1.243216e+003, 1.245233e+001
1.243698e+003, 1.234271e+001
1.244180e+003, 1.206177e+001
1.244662e+003, 1.193813e+001
1.245145e+003, 1.201561e+001
1.245627e+003, 1.205087e+001
1.246109e+003, 1.193573e+001
1.246591e+003, 1.185916e+001
1.247073e+003, 1.186592e+001
1.247555e+003, 1.189989e+001
1.248037e+003, 1.196852e+001
1.248519e+003, 1.202641e+001
1.249002e+003, 1.204442e+001
1.249484e+003, 1.202898e+001
1.249966e+003, 1.199273e+001
1.250448e+003, 1.193478e+001
1.250930e+003, 1.182111e+001
1.251412e+003, 1.163742e+001
1.251894e+003, 1.156405e+001
1.252376e+003, 1.161757e+001
1.252859e+003, 1.169759e+001
1.253341e+003, 1.177310e+001
1.253823e+003, 1.182776e+001
1.254305e+003, 1.185079e+001
1.254787e+003, 1.184100e+001
1.255269e+003, 1.172587e+001
1.255751e+003, 1.163086e+001
1.256233e+003, 1.188920e+001
1.256715e+003, 1.228506e+001
1.257198e+003, 1.240593e+001
1.257680e+003, 1.230991e+001
1.258162e+003, 1.224760e+001
1.258644e+003, 1.225896e+001
1.259126e+003, 1.219205e+001
1.259608e+003, 1.194057e+001
1.260090e+003, 1.177150e+001
1.260572e+003, 1.188425e+001
1.261054e+003, 1.200926e+001
1.261537e+003, 1.201213e+001
1.262019e+003, 1.198456e+001
1.262501e+003, 1.198930e+001
1.262983e+003, 1.201734e+001
1.263465e+003, 1.206260e+001
1.263947e+003, 1.211714e+001
1.264429e+003, 1.211708e+001
1.264911e+003, 1.203920e+001
1.265394e+003, 1.198096e+001
1.265876e+003, 1.193451e+001
1.266358e+003, 1.196359e+001
1.266840e+003, 1.210088e+001
1.267322e+003, 1.217259e+001
1.267804e+003, 1.207707e+001
1.268286e+003, 1.192427e+001
1.268768e+003, 1.183797e+001
1.269250e+003, 1.180833e+001
1.269733e+003, 1.182744e+001
1.270215e+003, 1.187923e+001
1.270697e+003, 1.194811e+001
1.271179e+003, 1.200759e+001
1.271661e+003, 1.195322e+001
1.272143e+003, 1.182134e+001
1.272625e+003, 1.183178e+001
1.273107e+003, 1.206630e+001
1.273589e+003, 1.224618e+001
1.274072e+003, 1.215383e+001
1.274554e+003, 1.203628e+001
1.275036e+003, 1.197533e+001
1.275518e+003, 1.197663e+001
1.276000e+003, 1.211429e+001
1.276482e+003, 1.226014e+001
1.276964e+003, 1.227342e+001
1.277446e+003, 1.217438e+001
1.277929e+003, 1.202886e+001
1.278411e+003, 1.182045e+001
1.278893e+003, 1.174239e+001
1.279375e+003, 1.182573e+001
1.279857e+003, 1.193269e+001
1.280339e+003, 1.205873e+001
1.280821e+003, 1.215880e+001
1.281303e+003, 1.221729e+001
1.281786e+003, 1.225282e+001
1.282268e+003, 1.227791e+001
##END=



