##NAMES=Alluaudite
##RRUFFID=R160082
##IDEAL CHEMISTRY=[box]NaMn^2+^Fe^3+^_2_(PO_4_)_3_
##LOCALITY=Custer, South Dakota, USA
##OWNER=UAMM
##SOURCE=Rock Currier
##DESCRIPTION=Dark green massive, associated with muscovite
##STATUS=The identification of this mineral has been confirmed only by single crystal X-ray diffraction.
##URL=rruff.info/R160082
149.3655, 0.0000000E+00
149.8477, 0.5898820
150.3298, 4.3228000E-02
150.8119, 4.9359999E-03
151.2940, 1.530037
151.7761, 2.441467
152.2583, 2.124542
152.7404, 1.037506
153.2225, 0.4964070
153.7046, 0.9567410
154.1867, 1.722191
154.6688, 2.492126
155.1510, 3.766808
155.6331, 4.399330
156.1152, 3.806007
156.5973, 2.300377
157.0794, 1.126938
157.5615, 0.5605010
158.0437, 0.3910750
158.5258, 0.4865880
159.0079, 0.8659440
159.4900, 1.455437
159.9721, 2.322174
160.4542, 3.423691
160.9364, 4.515602
161.4185, 5.388618
161.9006, 6.273201
162.3827, 7.354225
162.8648, 9.039734
163.3469, 10.62041
163.8291, 11.64165
164.3112, 12.15771
164.7933, 12.83652
165.2754, 14.16786
165.7575, 15.77170
166.2396, 17.25080
166.7218, 18.28552
167.2039, 19.28162
167.6860, 20.61413
168.1681, 22.25920
168.6502, 23.71690
169.1323, 24.42529
169.6145, 24.78917
170.0966, 25.35605
170.5787, 27.13104
171.0608, 28.73084
171.5429, 28.66979
172.0250, 26.85214
172.5072, 24.85526
172.9893, 23.77871
173.4714, 23.35719
173.9535, 23.09994
174.4356, 22.83794
174.9177, 22.60532
175.3999, 22.35384
175.8820, 22.05370
176.3641, 22.01613
176.8462, 22.74010
177.3283, 23.97530
177.8104, 25.08244
178.2926, 25.71578
178.7747, 26.02642
179.2568, 26.24055
179.7389, 26.36281
180.2210, 26.40075
180.7031, 26.37426
181.1853, 26.27402
181.6674, 26.06380
182.1495, 25.79087
182.6316, 25.42337
183.1137, 24.75255
183.5958, 23.72360
184.0780, 22.62525
184.5601, 22.00558
185.0422, 21.83977
185.5243, 21.63065
186.0064, 21.06063
186.4885, 20.26117
186.9707, 19.75607
187.4528, 19.62405
187.9349, 19.64311
188.4170, 19.43684
188.8991, 19.02171
189.3812, 18.68124
189.8634, 18.60112
190.3455, 18.74292
190.8276, 18.89665
191.3097, 19.08659
191.7918, 19.19987
192.2739, 18.99664
192.7561, 18.46060
193.2382, 17.86682
193.7203, 17.42622
194.2024, 17.11360
194.6845, 16.52812
195.1666, 15.59969
195.6488, 14.45937
196.1309, 13.36314
196.6130, 12.30553
197.0951, 11.21661
197.5772, 9.921021
198.0593, 8.412491
198.5415, 7.342232
199.0236, 6.810104
199.5057, 6.670158
199.9878, 6.642494
200.4699, 6.734291
200.9520, 6.910461
201.4342, 7.243568
201.9163, 7.774284
202.3984, 7.948875
202.8805, 7.629135
203.3626, 7.022743
203.8447, 6.609360
204.3269, 6.380081
204.8090, 6.371933
205.2911, 6.767906
205.7732, 7.708008
206.2553, 8.071396
206.7374, 7.624496
207.2196, 6.622559
207.7017, 5.952240
208.1838, 5.726601
208.6659, 5.539589
209.1480, 5.149651
209.6301, 4.511055
210.1123, 3.856834
210.5944, 3.188004
211.0765, 2.512878
211.5586, 1.825859
212.0407, 1.062988
212.5228, 0.4302830
213.0050, 9.6863002E-02
213.4871, 0.1771160
213.9692, 0.1194000
214.4513, 0.1761630
214.9334, 0.6028370
215.4155, 0.8360060
215.8977, 0.8052290
216.3798, 0.7235720
216.8619, 0.7354510
217.3440, 0.9399110
217.8261, 0.9039080
218.3082, 0.4702610
218.7904, 0.1737440
219.2725, 0.3912960
219.7546, 9.9205002E-02
220.2367, 0.5154110
220.7188, 0.4088590
221.2009, 0.4672320
221.6831, 1.221268
222.1652, 1.869232
222.6473, 2.371727
223.1294, 2.527306
223.6115, 2.043472
224.0936, 1.702293
224.5758, 1.954460
225.0579, 3.197128
225.5400, 4.050117
226.0221, 4.426697
226.5042, 4.417465
226.9863, 4.235626
227.4685, 3.773750
227.9506, 3.300644
228.4327, 2.933090
228.9148, 2.682686
229.3969, 2.498619
229.8790, 2.380974
230.3612, 2.327065
230.8433, 2.350670
231.3254, 2.547089
231.8075, 2.671303
232.2896, 2.594414
232.7717, 2.187813
233.2539, 1.893684
233.7360, 1.752747
234.2181, 1.713844
234.7002, 1.652618
235.1823, 1.508339
235.6644, 1.433487
236.1466, 1.512672
236.6287, 1.849388
237.1108, 2.049232
237.5929, 2.046120
238.0750, 1.932220
238.5571, 1.880974
239.0393, 1.834541
239.5214, 1.946236
240.0035, 2.327652
240.4856, 3.165459
240.9677, 3.706703
241.4498, 3.838684
241.9320, 3.736542
242.4141, 3.683296
242.8962, 3.592255
243.3783, 3.698418
243.8604, 4.134590
244.3425, 5.038757
244.8247, 5.757713
245.3068, 6.183998
245.7889, 6.497795
246.2710, 6.988464
246.7531, 7.696976
247.2352, 8.541534
247.7174, 9.537094
248.1995, 10.73696
248.6816, 11.66492
249.1637, 12.11858
249.6458, 12.44571
250.1279, 13.16447
250.6101, 14.51080
251.0922, 15.92782
251.5743, 17.20467
252.0564, 18.30331
252.5385, 19.31627
253.0206, 20.23113
253.5028, 21.12874
253.9849, 22.11148
254.4670, 23.32558
254.9491, 24.38482
255.4312, 25.17414
255.9133, 25.67233
256.3955, 26.04189
256.8776, 26.23507
257.3597, 26.35487
257.8418, 26.52414
258.3239, 26.80310
258.8061, 26.97456
259.2882, 26.99168
259.7703, 26.86346
260.2524, 26.56964
260.7345, 26.01012
261.2166, 25.42434
261.6988, 25.02113
262.1809, 24.85669
262.6630, 24.75320
263.1451, 24.73748
263.6272, 24.78031
264.1093, 24.59151
264.5915, 24.05885
265.0736, 23.49097
265.5557, 23.11087
266.0378, 22.94518
266.5199, 22.92193
267.0020, 23.09702
267.4842, 23.41026
267.9663, 23.51130
268.4484, 23.29425
268.9305, 23.10741
269.4126, 23.20605
269.8947, 23.64567
270.3769, 24.13477
270.8590, 24.66145
271.3411, 25.21329
271.8232, 25.72269
272.3053, 26.15885
272.7874, 26.62943
273.2696, 27.17889
273.7517, 27.79642
274.2338, 28.69339
274.7159, 30.06095
275.1980, 31.53695
275.6801, 32.18203
276.1623, 31.86116
276.6444, 31.36556
277.1265, 31.10678
277.6086, 31.10723
278.0907, 30.95052
278.5728, 30.60629
279.0550, 30.15879
279.5371, 29.81799
280.0192, 29.62928
280.5013, 29.17255
280.9834, 28.12571
281.4655, 26.50844
281.9477, 25.19965
282.4298, 24.31092
282.9119, 23.46967
283.3940, 22.04867
283.8761, 20.02925
284.3582, 18.17597
284.8404, 16.85495
285.3225, 15.96870
285.8046, 14.87538
286.2867, 13.53213
286.7688, 12.23621
287.2509, 11.40935
287.7331, 11.01651
288.2152, 10.56152
288.6973, 9.874268
289.1794, 9.014648
289.6615, 8.146965
290.1436, 7.254768
290.6258, 6.467323
291.1079, 5.988472
291.5900, 5.750931
292.0721, 5.355316
292.5542, 4.606285
293.0363, 3.737762
293.5185, 3.268990
294.0006, 3.192497
294.4827, 3.226585
294.9648, 3.191780
295.4469, 3.092743
295.9290, 2.939774
296.4112, 2.713013
296.8933, 2.463364
297.3754, 2.264061
297.8575, 2.113419
298.3396, 1.995972
298.8217, 1.975304
299.3039, 1.971527
299.7860, 1.801025
300.2681, 1.396767
300.7502, 0.9517590
301.2323, 0.7081600
301.7144, 0.6189650
302.1966, 0.5433960
302.6787, 0.4319760
303.1608, 0.2750320
303.6429, 6.1869998E-03
304.1250, 0.4006960
304.6071, 0.7365800
305.0893, 0.7728880
305.5714, 0.5947040
306.0535, 0.3753050
306.5356, 2.6931999E-02
307.0177, 0.3062360
307.4998, 2.2209000E-02
307.9820, 0.9741970
308.4641, 1.730759
308.9462, 1.529587
309.4283, 0.8214040
309.9104, 0.2177430
310.3925, 9.3231000E-02
310.8747, 0.1907120
311.3568, 1.9699000E-02
311.8389, 0.3800960
312.3210, 0.7148590
312.8031, 0.8018800
313.2852, 0.7600330
313.7674, 0.7044980
314.2495, 0.6757050
314.7316, 0.6263890
315.2137, 0.5686340
315.6958, 0.4799500
316.1779, 0.2838820
316.6601, 0.1587910
317.1422, 0.6495440
317.6243, 1.069962
318.1064, 1.420990
318.5885, 1.642227
319.0706, 1.478668
319.5528, 1.183533
320.0349, 1.247757
320.5170, 2.240120
320.9991, 3.267715
321.4812, 3.911438
321.9633, 4.018707
322.4455, 4.170723
322.9276, 4.498413
323.4097, 4.928673
323.8918, 5.371826
324.3739, 5.827454
324.8560, 6.282707
325.3382, 6.724525
325.8203, 7.149399
326.3024, 7.614731
326.7845, 8.104836
327.2666, 8.650925
327.7487, 9.281380
328.2309, 10.15464
328.7130, 10.91852
329.1951, 11.48116
329.6772, 11.86934
330.1593, 12.35632
330.6414, 13.01897
331.1236, 13.70149
331.6057, 14.31179
332.0878, 14.72481
332.5699, 15.29472
333.0520, 16.08794
333.5341, 17.02980
334.0163, 17.93343
334.4984, 18.86886
334.9805, 19.63217
335.4626, 20.07037
335.9447, 20.01591
336.4268, 20.32956
336.9090, 21.18149
337.3911, 22.23151
337.8732, 22.88591
338.3553, 23.01229
338.8374, 23.21645
339.3195, 23.76749
339.8017, 24.64071
340.2838, 25.15992
340.7659, 25.24400
341.2480, 25.18565
341.7301, 25.32128
342.2122, 25.67239
342.6944, 25.88607
343.1765, 25.83981
343.6586, 25.62004
344.1407, 25.54324
344.6228, 25.62370
345.1049, 25.68374
345.5871, 25.51354
346.0692, 25.16272
346.5513, 25.01025
347.0334, 25.13084
347.5155, 25.41081
347.9977, 25.69115
348.4798, 25.97244
348.9619, 26.24780
349.4440, 26.49032
349.9261, 26.72690
350.4082, 27.01645
350.8904, 27.36225
351.3725, 27.76152
351.8546, 28.25394
352.3367, 28.80402
352.8188, 29.32215
353.3009, 29.85615
353.7831, 30.29210
354.2652, 30.38010
354.7473, 30.14088
355.2294, 30.01379
355.7115, 30.53326
356.1936, 31.29140
356.6758, 31.72519
357.1579, 31.39464
357.6400, 31.05045
358.1221, 31.27460
358.6042, 31.95032
359.0863, 32.65932
359.5685, 33.41207
360.0506, 33.98367
360.5327, 34.12855
361.0148, 33.60058
361.4969, 33.18851
361.9790, 33.33459
362.4612, 33.77943
362.9433, 34.12743
363.4254, 34.27955
363.9075, 34.32006
364.3896, 34.32893
364.8717, 34.31743
365.3539, 34.03876
365.8360, 33.11558
366.3181, 32.01215
366.8002, 31.17753
367.2823, 30.92626
367.7644, 30.68937
368.2466, 30.38387
368.7287, 29.99604
369.2108, 29.55639
369.6929, 29.07249
370.1750, 28.55011
370.6571, 27.97189
371.1393, 27.25762
371.6214, 26.53378
372.1035, 25.79413
372.5856, 25.07777
373.0677, 24.46066
373.5498, 23.93865
374.0320, 23.54113
374.5141, 23.35513
374.9962, 23.42202
375.4783, 23.21430
375.9604, 22.66231
376.4425, 21.95416
376.9247, 21.25646
377.4068, 20.54384
377.8889, 20.07830
378.3710, 19.98312
378.8531, 20.14961
379.3352, 20.18031
379.8174, 20.08074
380.2995, 19.89250
380.7816, 19.53840
381.2637, 19.05560
381.7458, 18.88274
382.2279, 19.15730
382.7101, 19.60777
383.1922, 19.78994
383.6743, 19.73854
384.1564, 19.67124
384.6385, 19.71484
385.1206, 19.82222
385.6028, 19.83059
386.0849, 19.71107
386.5670, 19.75448
387.0491, 20.45994
387.5312, 21.51095
388.0133, 22.27706
388.4955, 22.32060
388.9776, 22.15474
389.4597, 22.24712
389.9418, 22.56006
390.4239, 22.86814
390.9060, 23.16031
391.3882, 23.32248
391.8703, 23.19919
392.3524, 22.57030
392.8345, 22.05224
393.3166, 22.04517
393.7987, 22.35345
394.2809, 22.58536
394.7630, 22.66154
395.2451, 22.59229
395.7272, 22.31723
396.2093, 21.78418
396.6914, 21.37231
397.1736, 21.36581
397.6557, 21.41300
398.1378, 21.18896
398.6199, 20.13927
399.1020, 19.41280
399.5841, 19.31473
400.0663, 19.73325
400.5484, 19.92109
401.0305, 19.77082
401.5126, 19.50667
401.9947, 19.24091
402.4768, 19.03564
402.9590, 18.71016
403.4411, 18.32980
403.9232, 17.78455
404.4053, 16.80682
404.8874, 15.22163
405.3695, 13.73123
405.8517, 12.57934
406.3338, 11.74991
406.8159, 10.82027
407.2980, 9.761955
407.7801, 8.699013
408.2622, 7.743111
408.7444, 6.889061
409.2265, 6.147820
409.7086, 5.528740
410.1907, 5.008667
410.6728, 4.552216
411.1549, 4.153351
411.6371, 3.779617
412.1192, 3.379944
412.6013, 2.997871
413.0834, 2.768188
413.5655, 2.721581
414.0476, 2.680252
414.5298, 2.434898
415.0119, 2.069870
415.4940, 1.746490
415.9761, 1.551506
416.4582, 1.413208
416.9403, 1.324471
417.4225, 1.265877
417.9046, 1.115623
418.3867, 0.6508180
418.8688, 0.1552660
419.3509, 0.1034390
419.8330, 3.7703998E-02
420.3152, 0.1717610
420.7973, 0.1207730
421.2794, 3.9078001E-02
421.7615, 0.1703680
422.2436, 0.2300910
422.7257, 0.2619400
423.2079, 0.2910540
423.6900, 0.3242070
424.1721, 0.2937320
424.6542, 0.1145480
425.1363, 8.0208004E-02
425.6184, 0.1996650
426.1006, 0.2973020
426.5827, 0.2175940
427.0648, 0.2078590
427.5469, 0.8151090
428.0290, 1.002312
428.5111, 0.6477810
428.9933, 0.1101570
429.4754, 0.5606540
429.9575, 1.449673
430.4396, 1.780247
430.9217, 1.426956
431.4038, 0.7888030
431.8860, 0.3469620
432.3681, 0.1065560
432.8502, 7.2117001E-02
433.3323, 0.2063180
433.8144, 0.3153340
434.2965, 0.4893990
434.7787, 0.7253460
435.2608, 0.8725970
435.7429, 0.7486760
436.2250, 0.4574130
436.7071, 0.2731020
437.1892, 0.2474020
437.6714, 0.2424770
438.1535, 0.1755520
438.6356, 1.7761000E-02
439.1177, 0.2963680
439.5998, 0.9211770
440.0819, 1.626022
440.5641, 2.224178
441.0462, 2.719540
441.5283, 3.188126
442.0104, 3.573498
442.4925, 3.999584
442.9746, 4.576054
443.4568, 5.408512
443.9389, 6.245243
444.4210, 7.040798
444.9031, 7.784451
445.3852, 8.458645
445.8673, 8.964062
446.3495, 9.483765
446.8316, 10.08594
447.3137, 10.78817
447.7958, 11.46995
448.2779, 12.13594
448.7600, 12.77306
449.2422, 13.35797
449.7243, 13.82516
450.2064, 14.40015
450.6885, 15.18226
451.1706, 16.05545
451.6527, 16.64420
452.1349, 16.85596
452.6170, 17.12610
453.0991, 17.72206
453.5812, 18.62713
454.0633, 19.20283
454.5454, 19.41955
455.0276, 19.48061
455.5097, 19.54822
455.9918, 19.63136
456.4739, 19.79768
456.9560, 20.10076
457.4381, 20.43911
457.9203, 20.66373
458.4024, 20.78408
458.8845, 20.84559
459.3666, 20.77689
459.8488, 20.71011
460.3309, 20.82641
460.8130, 21.15004
461.2951, 21.53320
461.7772, 21.84380
462.2593, 22.16262
462.7415, 22.58112
463.2236, 23.23163
463.7057, 23.88365
464.1878, 24.35500
464.6699, 24.73020
465.1520, 25.31964
465.6342, 26.39940
466.1163, 27.53367
466.5984, 28.49968
467.0805, 29.11572
467.5626, 30.04388
468.0447, 31.58291
468.5269, 33.25518
469.0090, 34.57447
469.4911, 35.29648
469.9732, 36.14214
470.4553, 37.19475
470.9374, 38.39576
471.4196, 39.76135
471.9017, 41.35777
472.3838, 42.99662
472.8659, 44.61443
473.3480, 46.20396
473.8301, 47.71111
474.3123, 49.16558
474.7944, 50.41381
475.2765, 51.14254
475.7586, 51.45797
476.2407, 51.92487
476.7228, 52.87865
477.2050, 53.85189
477.6871, 54.02134
478.1692, 53.55093
478.6513, 53.19001
479.1334, 53.64002
479.6155, 54.26464
480.0977, 54.38407
480.5798, 53.89413
481.0619, 53.26782
481.5440, 52.55402
482.0261, 51.93297
482.5082, 51.61757
482.9904, 52.16108
483.4725, 52.49598
483.9546, 52.29268
484.4367, 51.60838
484.9188, 50.68957
485.4009, 49.24792
485.8831, 47.85196
486.3652, 46.78902
486.8473, 46.25895
487.3294, 45.37346
487.8115, 43.93911
488.2936, 42.31021
488.7758, 40.83431
489.2579, 39.55600
489.7400, 38.27218
490.2221, 36.97456
490.7042, 35.62154
491.1863, 34.06950
491.6685, 32.27558
492.1506, 30.65691
492.6327, 29.62299
493.1148, 29.00343
493.5969, 27.99269
494.0790, 26.53865
494.5612, 25.10538
495.0433, 24.20216
495.5254, 23.64371
496.0075, 23.00360
496.4896, 22.14137
496.9717, 21.21186
497.4539, 20.26096
497.9360, 19.35456
498.4181, 18.70734
498.9002, 18.75209
499.3823, 18.81564
499.8644, 18.42675
500.3466, 17.51447
500.8287, 16.63849
501.3108, 15.93189
501.7929, 15.34718
502.2750, 14.85036
502.7571, 14.48035
503.2393, 14.13534
503.7214, 13.81274
504.2035, 13.51210
504.6856, 13.21893
505.1677, 12.88860
505.6498, 12.65929
506.1320, 12.62361
506.6141, 12.76751
507.0962, 12.69313
507.5783, 12.35067
508.0604, 11.95988
508.5425, 11.72845
509.0247, 11.63856
509.5068, 11.42185
509.9889, 11.00598
510.4710, 10.58465
510.9531, 10.55322
511.4352, 10.78127
511.9174, 10.78336
512.3995, 9.994762
512.8816, 9.112804
513.3637, 9.166061
513.8458, 9.975792
514.3279, 10.46639
514.8101, 9.687008
515.2922, 8.521175
515.7743, 7.687508
516.2564, 7.379616
516.7385, 7.105236
517.2206, 6.662086
517.7028, 6.178440
518.1849, 5.802795
518.6670, 5.781422
519.1491, 5.608303
519.6312, 5.098106
520.1133, 4.361328
520.5955, 3.865509
521.0776, 3.787155
521.5597, 3.664425
522.0418, 3.274662
522.5239, 2.581631
523.0060, 1.994701
523.4882, 1.509384
523.9703, 1.132526
524.4524, 0.8944590
524.9345, 0.7893790
525.4166, 0.7334330
525.8987, 0.7478140
526.3809, 0.7287060
526.8630, 0.3785170
527.3451, 0.1948550
527.8272, 0.5400350
528.3093, 0.1344950
528.7914, 0.4386020
529.2736, 0.4882770
529.7557, 3.3863001E-02
530.2378, 0.4467960
530.7199, 0.7394260
531.2020, 0.9136390
531.6841, 1.012520
532.1663, 1.009930
532.6484, 1.014446
533.1305, 1.102039
533.6126, 1.199287
534.0947, 1.200272
534.5768, 0.9288440
535.0590, 0.7705080
535.5411, 0.8613590
536.0232, 1.136475
536.5053, 1.176071
536.9874, 0.8701130
537.4695, 0.5712390
537.9517, 0.4885790
538.4338, 0.6365130
538.9159, 0.6730920
539.3980, 0.5854420
539.8801, 0.4388770
540.3622, 0.3117790
540.8444, 0.1928560
541.3265, 8.6559998E-03
541.8086, 0.2936100
542.2907, 0.5961690
542.7728, 0.6485180
543.2549, 0.5626950
543.7371, 0.6583140
544.2192, 1.314938
544.7013, 2.052216
545.1834, 2.546204
545.6655, 2.793076
546.1476, 2.861668
546.6298, 2.502979
547.1119, 2.167061
547.5940, 2.182220
548.0761, 2.842808
548.5582, 3.339771
549.0403, 3.496948
549.5225, 3.519817
550.0046, 3.650196
550.4867, 3.943573
550.9688, 4.229282
551.4509, 4.462669
551.9330, 4.672760
552.4152, 4.976635
552.8973, 5.392982
553.3794, 5.795128
553.8615, 6.066273
554.3436, 6.251812
554.8257, 6.645485
555.3079, 7.255684
555.7900, 7.865376
556.2721, 8.314083
556.7542, 8.610832
557.2363, 8.753689
557.7184, 8.718460
558.2006, 8.600407
558.6827, 8.345371
559.1648, 8.080811
559.6469, 8.017197
560.1290, 8.535782
560.6111, 8.973236
561.0933, 8.965355
561.5754, 8.591187
562.0575, 8.397606
562.5396, 8.688519
563.0217, 8.961468
563.5038, 9.008492
563.9860, 8.765800
564.4681, 8.585590
564.9502, 8.454369
565.4323, 8.405560
565.9144, 8.522049
566.3965, 8.829079
566.8787, 8.965336
567.3608, 8.802052
567.8429, 8.601871
568.3250, 8.897869
568.8071, 9.606964
569.2892, 10.27174
569.7714, 10.61316
570.2535, 10.84395
570.7356, 11.24985
571.2177, 11.81248
571.6998, 12.38628
572.1819, 12.90623
572.6641, 13.40276
573.1462, 13.85012
573.6283, 14.20297
574.1104, 14.76427
574.5925, 15.81222
575.0746, 17.01203
575.5568, 18.07458
576.0389, 18.60088
576.5210, 19.49059
577.0031, 20.91248
577.4852, 22.66948
577.9673, 24.36975
578.4495, 26.01029
578.9316, 27.65054
579.4137, 29.28173
579.8958, 30.92065
580.3779, 32.79123
580.8600, 34.89514
581.3422, 37.02642
581.8243, 38.93552
582.3064, 40.79255
582.7885, 42.97444
583.2706, 45.53166
583.7527, 48.20445
584.2349, 50.79980
584.7170, 53.40348
585.1991, 56.10175
585.6812, 59.02385
586.1633, 61.98392
586.6454, 64.90881
587.1276, 67.78967
587.6097, 70.59417
588.0918, 73.09000
588.5739, 75.77634
589.0560, 78.91738
589.5381, 82.40969
590.0203, 85.49994
590.5024, 88.21466
590.9845, 90.48137
591.4666, 92.28120
591.9487, 93.63515
592.4308, 94.34609
592.9130, 94.38266
593.3951, 93.89455
593.8772, 93.04764
594.3593, 91.82011
594.8414, 90.05861
595.3235, 87.68587
595.8057, 84.98132
596.2878, 82.15337
596.7699, 79.20155
597.2520, 76.16563
597.7341, 73.00932
598.2162, 69.78873
598.6984, 66.31213
599.1805, 62.78013
599.6626, 59.68002
600.1447, 57.33290
600.6268, 55.22942
601.1089, 53.23845
601.5911, 51.35858
602.0732, 49.45273
602.5553, 47.42085
603.0374, 45.54830
603.5195, 44.12366
604.0016, 43.19397
604.4838, 42.11634
604.9659, 40.80898
605.4480, 39.54390
605.9301, 38.64843
606.4122, 38.09592
606.8943, 37.79219
607.3765, 37.80167
607.8586, 37.89020
608.3407, 37.84247
608.8228, 37.67175
609.3049, 37.41227
609.7870, 36.94588
610.2692, 36.51030
610.7513, 36.20206
611.2334, 36.02801
611.7155, 36.01473
612.1976, 36.23992
612.6797, 36.56650
613.1619, 36.92386
613.6440, 37.29991
614.1261, 37.80978
614.6082, 38.53870
615.0903, 39.25983
615.5724, 39.69826
616.0546, 39.83290
616.5367, 40.28748
617.0188, 41.19441
617.5009, 42.27449
617.9830, 43.11432
618.4651, 43.78222
618.9473, 44.51735
619.4294, 45.47900
619.9115, 46.44841
620.3936, 47.19301
620.8757, 47.77258
621.3578, 48.37799
621.8400, 49.07255
622.3221, 49.83201
622.8042, 50.71698
623.2863, 51.73803
623.7684, 52.54402
624.2505, 53.04788
624.7327, 53.35860
625.2148, 53.50972
625.6969, 53.47897
626.1790, 53.37069
626.6611, 53.19344
627.1432, 52.94014
627.6254, 52.66161
628.1075, 52.34230
628.5896, 51.71569
629.0717, 50.73287
629.5538, 49.49174
630.0359, 48.05606
630.5181, 46.49327
631.0002, 44.90858
631.4823, 43.32986
631.9644, 41.72888
632.4465, 40.11587
632.9286, 38.50137
633.4108, 36.88292
633.8929, 35.12967
634.3750, 33.41150
634.8571, 31.81206
635.3392, 30.34550
635.8214, 28.94229
636.3035, 27.54125
636.7856, 26.28701
637.2677, 25.29895
637.7498, 24.62434
638.2319, 23.70303
638.7141, 22.47370
639.1962, 21.29417
639.6783, 20.61079
640.1604, 20.29627
640.6425, 19.87903
641.1246, 19.27187
641.6068, 18.58167
642.0889, 17.82524
642.5710, 17.03489
643.0531, 16.33138
643.5352, 15.86776
644.0173, 15.38766
644.4995, 14.72323
644.9816, 13.96257
645.4637, 13.31161
645.9458, 12.91371
646.4279, 12.49882
646.9100, 11.97440
647.3922, 11.36942
647.8743, 11.09700
648.3564, 11.29996
648.8385, 11.32357
649.3206, 10.61087
649.8027, 9.274044
650.2849, 8.480206
650.7670, 8.253567
651.2491, 8.151947
651.7312, 7.799400
652.2133, 7.313099
652.6954, 6.851398
653.1776, 6.441998
653.6597, 6.046932
654.1418, 5.695793
654.6239, 5.318638
655.1060, 4.829136
655.5881, 3.882294
656.0703, 3.217541
656.5524, 3.134998
657.0345, 3.353046
657.5166, 3.387062
657.9987, 3.176334
658.4808, 2.903458
658.9630, 2.567982
659.4451, 2.227043
659.9272, 2.112370
660.4093, 2.225456
660.8914, 2.304794
661.3735, 2.157204
661.8557, 1.902142
662.3378, 1.817486
662.8199, 1.872383
663.3020, 1.789326
663.7841, 1.143219
664.2662, 0.4515720
664.7484, 0.1833310
665.2305, 0.4662930
665.7126, 0.6906620
666.1947, 0.6942180
666.6768, 0.5929600
667.1589, 0.4565850
667.6411, 0.1742860
668.1232, 0.1259920
668.6053, 0.4328690
669.0874, 0.8254390
669.5695, 0.8908960
670.0516, 0.6186980
670.5338, 0.3244820
671.0159, 3.4687001E-02
671.4980, 0.1748430
671.9801, 0.1121830
672.4622, 0.1311380
672.9443, 0.3015750
673.4265, 0.2087360
673.9086, 8.9428000E-02
674.3907, 0.1441650
674.8728, 0.3089030
675.3549, 0.3860320
675.8370, 0.1354710
676.3192, 2.7023001E-02
676.8013, 0.1491740
677.2834, 0.6183090
677.7655, 0.7536390
678.2476, 0.3914180
678.7297, 3.3340000E-02
679.2119, 1.5190000E-02
679.6940, 0.2211720
680.1761, 0.2155490
680.6582, 5.4042999E-02
681.1403, 0.3341060
681.6224, 0.4384690
682.1046, 0.3961030
682.5867, 0.2731740
683.0688, 8.5320003E-02
683.5509, 0.2546580
684.0330, 1.230598
684.5151, 2.180027
684.9973, 2.400402
685.4794, 1.164413
685.9615, 0.1728780
686.4436, 0.1790120
686.9257, 0.2176480
687.4078, 0.3168220
687.8900, 0.5458530
688.3721, 0.6285020
688.8542, 0.4589420
689.3363, 0.2034260
689.8184, 0.2884640
690.3005, 0.6759300
690.7827, 0.8811230
691.2648, 0.5970540
691.7469, 0.1550250
692.2290, 2.2697000E-02
692.7111, 0.1377140
693.1932, 0.3079490
693.6754, 0.5906260
694.1575, 0.7640910
694.6396, 0.6371880
695.1217, 0.2353550
695.6038, 9.1872998E-02
696.0859, 0.3127630
696.5681, 0.4176640
697.0502, 0.3851200
697.5323, 0.2106860
698.0144, 2.6752001E-02
698.4965, 0.3764880
698.9786, 0.6117670
699.4608, 0.4698790
699.9429, 4.9194001E-02
700.4250, 0.2011380
700.9071, 0.2539410
701.3892, 0.2083240
701.8713, 7.3357001E-02
702.3535, 7.5236998E-02
702.8356, 0.1153720
703.3177, 4.1976999E-02
703.7998, 9.7424001E-02
704.2819, 0.1977540
704.7640, 0.5890920
705.2462, 0.7992210
705.7283, 0.7152670
706.2104, 0.6184120
706.6925, 0.5249440
707.1746, 0.4190790
707.6567, 0.2439380
708.1389, 1.0159000E-02
708.6210, 0.1419220
709.1031, 6.7851998E-02
709.5852, 8.0181003E-02
710.0673, 6.7703001E-02
710.5494, 5.6416001E-02
711.0316, 0.1446270
711.5137, 0.1007390
711.9958, 2.3514001E-02
712.4779, 2.1446001E-02
712.9600, 4.6780001E-02
713.4421, 9.0770997E-02
713.9243, 0.2466740
714.4064, 0.3312640
714.8885, 0.2530860
715.3706, 4.0569000E-02
715.8527, 6.7737997E-02
716.3348, 3.9214998E-02
716.8170, 4.3179998E-03
717.2991, 3.6410999E-02
717.7812, 0.1157490
718.2633, 0.1328740
718.7454, 8.9211002E-02
719.2275, 3.3661000E-02
719.7097, 1.8069999E-02
720.1918, 5.2017000E-02
720.6739, 5.9147000E-02
721.1560, 3.8559001E-02
721.6381, 3.5309002E-02
722.1202, 0.2530100
722.6024, 0.4715840
723.0845, 0.5695080
723.5666, 0.4489290
724.0487, 0.5248720
724.5308, 1.018044
725.0129, 1.416885
725.4951, 1.166138
725.9772, 0.2075120
726.4593, 0.3185840
726.9414, 0.2898750
727.4235, 2.0053999E-02
727.9056, 0.1943130
728.3878, 0.3704150
728.8699, 0.5554540
729.3520, 0.7842180
729.8341, 0.9500620
730.3162, 0.9761090
730.7983, 0.8937420
731.2805, 0.7459870
731.7626, 0.3091810
732.2447, 0.1228220
732.7268, 0.4034160
733.2089, 0.8636280
733.6910, 0.9986720
734.1732, 0.7138180
734.6553, 0.5375790
735.1374, 0.6012800
735.6195, 0.7962800
736.1016, 0.9429360
736.5837, 1.041809
737.0659, 1.098438
737.5480, 1.044659
738.0301, 1.026382
738.5122, 1.270641
738.9943, 1.643444
739.4764, 1.838337
739.9586, 1.535988
740.4407, 1.284718
740.9228, 1.346401
741.4049, 1.624771
741.8870, 1.698864
742.3691, 1.496899
742.8513, 1.269108
743.3334, 1.071835
743.8155, 0.9290050
744.2976, 0.9933510
744.7797, 1.261368
745.2618, 1.482204
745.7440, 1.439362
746.2261, 1.302528
746.7082, 1.316521
747.1903, 1.466801
747.6724, 1.501282
748.1545, 1.129078
748.6367, 0.7506030
749.1188, 0.6247250
749.6009, 0.7974930
750.0830, 0.9437140
750.5651, 1.046082
751.0472, 1.110493
751.5294, 1.140835
752.0115, 1.143242
752.4936, 1.081837
752.9757, 0.9705620
753.4578, 0.8632660
753.9399, 0.7567370
754.4221, 0.6849060
754.9042, 0.7236790
755.3863, 0.8901440
755.8684, 1.033787
756.3505, 0.9906770
756.8326, 0.9394490
757.3148, 1.077984
757.7969, 1.634117
758.2790, 1.826702
758.7611, 1.441521
759.2432, 0.9629820
759.7253, 0.8261490
760.2075, 1.030685
760.6896, 1.230461
761.1717, 1.419903
761.6538, 1.573746
762.1359, 1.646732
762.6180, 1.649113
763.1002, 1.630833
763.5823, 1.636158
764.0644, 1.577969
764.5465, 1.296082
765.0286, 0.9803430
765.5107, 0.8406110
765.9929, 1.043518
766.4750, 1.221497
766.9571, 1.381561
767.4392, 1.489185
767.9213, 1.507252
768.4034, 1.439301
768.8856, 1.360390
769.3677, 1.266006
769.8498, 1.208988
770.3319, 1.309334
770.8140, 1.496555
771.2961, 1.613750
771.7783, 1.559818
772.2604, 1.508110
772.7425, 1.625988
773.2246, 1.799606
773.7067, 1.832436
774.1888, 1.501644
774.6710, 1.311741
775.1531, 1.312016
775.6352, 1.475201
776.1173, 1.860439
776.5994, 2.478741
777.0815, 2.751423
777.5637, 2.430939
778.0458, 1.930054
778.5279, 1.833267
779.0100, 2.018356
779.4921, 2.209568
779.9742, 2.301929
780.4564, 2.357265
780.9385, 2.395493
781.4206, 2.417553
781.9027, 2.423332
782.3848, 2.389053
782.8669, 2.380470
783.3491, 2.416546
783.8312, 2.479134
784.3133, 2.476768
784.7954, 2.433765
785.2775, 2.520519
785.7596, 2.837219
786.2418, 3.202175
786.7239, 3.404030
787.2060, 3.452938
787.6881, 3.378529
788.1702, 3.012951
788.6523, 2.719193
789.1345, 2.685123
789.6166, 2.837723
790.0987, 2.949497
790.5808, 3.013493
791.0629, 3.033203
791.5450, 2.985638
792.0272, 2.910099
792.5093, 2.907833
792.9914, 2.978279
793.4735, 3.125977
793.9556, 3.431843
794.4377, 3.733757
794.9199, 3.833088
795.4020, 3.772964
795.8841, 3.663803
796.3662, 3.327873
796.8483, 3.187630
797.3304, 3.589958
797.8126, 4.310547
798.2947, 4.612316
798.7768, 4.320362
799.2589, 4.106857
799.7410, 4.193295
800.2231, 4.456097
800.7053, 4.616203
801.1874, 4.672985
801.6695, 4.619400
802.1516, 4.289108
802.6337, 3.991955
803.1158, 4.082886
803.5980, 4.432674
804.0801, 4.689983
804.5622, 4.834377
805.0443, 4.749905
805.5264, 4.209450
806.0085, 3.454311
806.4907, 3.370045
806.9728, 4.124851
807.4549, 4.658417
807.9370, 4.535042
808.4191, 4.074593
808.9012, 3.876274
809.3834, 3.907982
809.8655, 4.054214
810.3476, 4.390060
810.8297, 4.698383
811.3118, 4.820160
811.7939, 4.805573
812.2761, 4.801338
812.7582, 4.826569
813.2403, 4.872021
813.7224, 4.956589
814.2045, 5.051430
814.6866, 5.042408
815.1688, 4.927563
815.6509, 4.879688
816.1330, 4.985508
816.6151, 5.161736
817.0972, 5.301228
817.5793, 5.411743
818.0615, 5.517830
818.5436, 5.640709
819.0257, 5.747375
819.5078, 5.847721
819.9899, 5.917847
820.4720, 5.883865
820.9542, 5.661411
821.4363, 5.545692
821.9184, 5.630020
822.4005, 5.825195
822.8826, 5.896786
823.3647, 5.880196
823.8469, 5.990196
824.3290, 6.429348
824.8111, 6.851913
825.2932, 6.917721
825.7753, 6.743481
826.2574, 6.560276
826.7396, 6.447548
827.2217, 6.310455
827.7038, 6.080765
828.1859, 5.843311
828.6681, 5.769905
829.1502, 5.884171
829.6323, 5.990646
830.1144, 6.025608
830.5966, 6.074783
831.0787, 6.344379
831.5608, 6.728916
832.0429, 6.984295
832.5250, 7.008865
833.0071, 6.908806
833.4893, 6.649872
833.9714, 6.327961
834.4535, 6.092941
834.9356, 5.978752
835.4177, 5.882622
835.8998, 5.781334
836.3820, 5.719822
836.8641, 5.793751
837.3462, 5.993931
837.8283, 6.198223
838.3104, 6.380814
838.7925, 6.496006
839.2747, 6.409168
839.7568, 6.249817
840.2389, 6.214756
840.7210, 6.438591
841.2031, 6.713955
841.6852, 7.093681
842.1674, 7.410454
842.6495, 7.495502
843.1316, 7.317276
843.6137, 7.146030
844.0958, 7.004829
844.5779, 6.863232
845.0601, 6.584511
845.5422, 6.282505
846.0243, 6.205448
846.5064, 6.409859
846.9885, 6.750637
847.4706, 7.282619
847.9528, 7.839947
848.4349, 8.292725
848.9170, 8.679638
849.3991, 8.714443
849.8812, 8.237995
850.3633, 7.742020
850.8455, 7.676952
851.3276, 7.980221
851.8097, 8.219376
852.2918, 8.366337
852.7739, 8.418179
853.2560, 8.270367
853.7382, 8.118942
854.2203, 8.190430
854.7024, 8.531330
855.1845, 8.741611
855.6666, 8.655956
856.1487, 8.536564
856.6309, 8.489208
857.1130, 8.480404
857.5951, 8.430531
858.0772, 8.362514
858.5593, 8.275024
859.0414, 8.092541
859.5236, 7.886303
860.0057, 7.759300
860.4878, 7.699833
860.9699, 7.615715
861.4520, 7.397858
861.9341, 7.208824
862.4163, 7.124603
862.8984, 7.136127
863.3805, 7.227188
863.8626, 7.459068
864.3447, 7.555935
864.8268, 7.344231
865.3090, 6.977322
865.7911, 6.857021
866.2732, 6.932201
866.7553, 6.996597
867.2374, 6.910702
867.7195, 6.814404
868.2017, 6.828026
868.6838, 6.898022
869.1659, 6.864525
869.6480, 6.679455
870.1301, 6.453548
870.6122, 6.169662
871.0944, 5.895512
871.5765, 5.824425
872.0586, 5.924107
872.5407, 5.958092
873.0228, 5.890343
873.5049, 5.662056
873.9871, 4.946930
874.4692, 4.115936
874.9513, 3.726887
875.4334, 4.428749
875.9155, 4.903976
876.3976, 4.994354
876.8798, 4.866268
877.3619, 4.681282
877.8440, 4.435333
878.3261, 4.206783
878.8082, 4.001583
879.2903, 3.821514
879.7725, 3.665855
880.2546, 3.533737
880.7367, 3.424965
881.2188, 3.339672
881.7009, 3.272175
882.1830, 3.278912
882.6652, 3.252277
883.1473, 3.094414
883.6294, 2.760170
884.1115, 2.624016
884.5936, 2.733128
885.0757, 2.809017
885.5579, 2.566891
886.0400, 2.162197
886.5221, 1.911770
887.0042, 1.822441
887.4863, 1.756840
887.9684, 1.647976
888.4506, 1.537903
888.9327, 1.446918
889.4148, 1.375702
889.8969, 1.334179
890.3790, 1.351093
890.8611, 1.303104
891.3433, 1.091415
891.8254, 0.8096500
892.3075, 0.7268830
892.7896, 0.8016850
893.2717, 0.8563840
893.7538, 0.8662410
894.2360, 0.7628520
894.7181, 0.3977550
895.2002, 0.1070330
895.6823, 0.4268680
896.1644, 0.5134160
896.6465, 0.4635700
897.1287, 0.2199440
897.6108, 5.0395999E-02
898.0929, 2.0058000E-02
898.5750, 0.3558620
899.0571, 0.5939450
899.5392, 0.6107480
900.0214, 0.6000180
900.5035, 0.6986690
900.9856, 0.8658450
901.4677, 1.059765
901.9498, 1.327045
902.4319, 1.513153
902.9141, 1.599319
903.3962, 1.632317
903.8783, 1.636177
904.3604, 1.617386
904.8425, 1.662582
905.3246, 1.781940
905.8068, 1.853127
906.2889, 1.717842
906.7710, 1.527664
907.2531, 1.418621
907.7352, 1.409580
908.2173, 1.426373
908.6995, 1.509651
909.1816, 1.542564
909.6637, 1.449799
910.1458, 1.259171
910.6279, 1.176411
911.1100, 1.196007
911.5922, 1.210056
912.0743, 1.122799
912.5564, 1.025867
913.0385, 1.090813
913.5206, 1.230061
914.0027, 1.177368
914.4849, 0.5465470
914.9670, 0.1383710
915.4491, 0.2901500
915.9312, 0.6096000
916.4133, 5.3341001E-02
916.8954, 1.351803
917.3776, 2.008728
917.8597, 1.291897
918.3418, 0.4612460
918.8239, 1.233639
919.3060, 2.653072
919.7881, 3.323738
920.2703, 2.383896
920.7524, 1.765411
921.2345, 1.868572
921.7166, 2.257107
922.1987, 2.621227
922.6808, 2.961750
923.1630, 3.236591
923.6451, 3.440376
924.1272, 3.644634
924.6093, 3.829178
925.0914, 4.097801
925.5735, 4.663834
926.0557, 5.524040
926.5378, 6.191933
927.0199, 6.284908
927.5020, 6.433220
927.9841, 6.904350
928.4662, 7.623135
928.9484, 8.164021
929.4305, 8.530792
929.9126, 8.757576
930.3947, 8.736652
930.8768, 8.712059
931.3589, 8.973095
931.8411, 9.450840
932.3232, 9.986900
932.8053, 10.67841
933.2874, 11.21792
933.7695, 11.44190
934.2516, 11.59673
934.7338, 12.08426
935.2159, 12.90747
935.6980, 13.66510
936.1801, 14.30121
936.6622, 14.82599
937.1443, 15.05738
937.6265, 15.28065
938.1086, 15.93229
938.5907, 17.29420
939.0728, 18.21042
939.5549, 18.19527
940.0370, 18.05552
940.5192, 18.19077
941.0013, 18.59888
941.4834, 19.34414
941.9655, 20.42461
942.4476, 21.41528
942.9297, 21.95489
943.4119, 22.33285
943.8940, 22.82707
944.3761, 23.41174
944.8582, 23.93066
945.3403, 24.23319
945.8224, 24.63194
946.3046, 25.22322
946.7867, 25.91970
947.2688, 26.41787
947.7509, 26.77313
948.2330, 27.47202
948.7151, 28.76757
949.1973, 30.12823
949.6794, 31.04204
950.1615, 31.75500
950.6436, 32.56115
951.1257, 33.47906
951.6078, 34.56401
952.0900, 35.82183
952.5721, 37.22236
953.0542, 38.77840
953.5363, 40.46560
954.0184, 42.09024
954.5005, 43.64333
954.9827, 45.27110
955.4648, 46.91592
955.9469, 48.77195
956.4290, 51.03604
956.9111, 53.71166
957.3932, 56.42538
957.8754, 59.19504
958.3575, 61.94855
958.8396, 64.61258
959.3217, 67.25974
959.8038, 69.93884
960.2859, 72.69152
960.7681, 75.64101
961.2502, 79.01534
961.7323, 82.31487
962.2144, 85.20208
962.6965, 87.87281
963.1786, 90.60494
963.6608, 93.52643
964.1429, 96.10875
964.6250, 98.24492
965.1071, 100.2714
965.5892, 102.6890
966.0714, 105.1770
966.5535, 107.2336
967.0356, 108.7955
967.5177, 109.7443
967.9998, 109.8185
968.4819, 109.4348
968.9641, 108.7662
969.4462, 107.8382
969.9283, 106.7141
970.4104, 105.3981
970.8925, 103.8553
971.3746, 102.1261
971.8568, 100.0721
972.3389, 97.19006
972.8210, 93.82958
973.3031, 90.73260
973.7852, 88.27082
974.2673, 85.98823
974.7495, 83.80414
975.2316, 81.67859
975.7137, 79.62326
976.1958, 77.63352
976.6779, 75.33530
977.1600, 72.65842
977.6422, 70.06879
978.1243, 67.88315
978.6064, 65.99440
979.0885, 64.34496
979.5706, 62.93504
980.0527, 61.48273
980.5349, 59.90279
981.0170, 58.33984
981.4991, 56.79887
981.9812, 55.31850
982.4633, 54.11398
982.9454, 53.12967
983.4276, 52.03899
983.9097, 50.70655
984.3918, 49.19572
984.8739, 47.38352
985.3560, 45.46336
985.8381, 43.74813
986.3203, 42.34876
986.8024, 40.92850
987.2845, 39.44160
987.7666, 38.02032
988.2487, 36.79809
988.7308, 35.75420
989.2130, 34.84225
989.6951, 34.06055
990.1772, 33.24990
990.6593, 32.15269
991.1414, 31.16881
991.6235, 30.51143
992.1057, 30.15482
992.5878, 29.98547
993.0699, 30.01152
993.5520, 30.16195
994.0341, 30.43430
994.5162, 30.77785
994.9984, 31.13891
995.4805, 31.51402
995.9626, 31.89801
996.4447, 32.28635
996.9268, 32.69534
997.4089, 33.09010
997.8911, 33.54372
998.3732, 34.13219
998.8553, 34.84954
999.3374, 35.61812
999.8195, 36.43267
1000.302, 37.30839
1000.784, 38.37036
1001.266, 39.41490
1001.748, 40.14618
1002.230, 40.63023
1002.712, 41.59174
1003.194, 43.31730
1003.676, 44.94482
1004.159, 46.26532
1004.641, 47.35114
1005.123, 48.31213
1005.605, 49.18369
1006.087, 50.11101
1006.569, 51.23958
1007.051, 52.18266
1007.533, 52.74615
1008.016, 53.06816
1008.498, 53.27042
1008.980, 53.32880
1009.462, 53.43085
1009.944, 53.60722
1010.426, 53.62614
1010.908, 53.24731
1011.390, 52.66224
1011.872, 52.10307
1012.355, 51.56313
1012.837, 50.97705
1013.319, 50.25874
1013.801, 49.54075
1014.283, 48.81786
1014.765, 48.09706
1015.247, 47.33625
1015.729, 46.55720
1016.211, 45.92292
1016.694, 45.45550
1017.176, 45.16131
1017.658, 45.22932
1018.140, 45.37997
1018.622, 45.30938
1019.104, 44.90934
1019.586, 44.83055
1020.068, 45.19044
1020.551, 45.41737
1021.033, 45.09838
1021.515, 44.51369
1021.997, 44.28040
1022.479, 44.31629
1022.961, 44.37961
1023.443, 44.53022
1023.925, 44.48039
1024.407, 43.98934
1024.890, 43.35331
1025.372, 42.92056
1025.854, 42.70061
1026.336, 42.54860
1026.818, 42.44430
1027.300, 42.48626
1027.782, 42.73769
1028.264, 43.18877
1028.746, 43.76918
1029.229, 44.49297
1029.711, 45.74487
1030.193, 47.73755
1030.675, 49.78559
1031.157, 51.62667
1031.639, 53.44300
1032.121, 55.70612
1032.603, 58.35267
1033.086, 61.06776
1033.568, 63.66499
1034.050, 66.60207
1034.532, 70.31594
1035.014, 74.27332
1035.496, 77.94505
1035.978, 81.20138
1036.460, 85.04034
1036.943, 89.44777
1037.425, 93.75311
1037.907, 97.39123
1038.389, 100.6673
1038.871, 104.0133
1039.353, 107.2910
1039.835, 109.7977
1040.317, 111.5259
1040.799, 112.2607
1041.281, 111.9291
1041.764, 110.6403
1042.246, 108.5652
1042.728, 105.6754
1043.210, 101.8700
1043.692, 97.02151
1044.174, 91.75413
1044.656, 86.16956
1045.138, 80.43204
1045.621, 74.64994
1046.103, 68.86303
1046.585, 63.08182
1047.067, 57.29313
1047.549, 52.08783
1048.031, 48.04712
1048.513, 44.38360
1048.995, 40.09864
1049.478, 35.63432
1049.960, 31.74260
1050.442, 28.89455
1050.924, 26.24903
1051.406, 23.73925
1051.888, 21.47133
1052.370, 19.61523
1052.852, 18.04255
1053.334, 16.24141
1053.817, 14.23403
1054.299, 12.43463
1054.781, 11.08620
1055.263, 9.988869
1055.745, 9.097420
1056.227, 8.358158
1056.709, 7.709080
1057.191, 7.159943
1057.673, 6.474594
1058.156, 5.561554
1058.638, 4.672112
1059.120, 4.075668
1059.602, 3.623554
1060.084, 3.147011
1060.566, 2.602577
1061.048, 2.163898
1061.530, 1.837620
1062.013, 1.612576
1062.495, 1.559410
1062.977, 1.546314
1063.459, 1.181717
1063.941, 0.5757140
1064.423, 2.9289000E-02
1064.905, 0.3910450
1065.387, 0.6587520
1065.870, 0.6708150
1066.352, 0.5923160
1066.834, 0.5490490
1067.316, 0.5401570
1067.798, 0.5928840
1068.280, 0.7090570
1068.762, 0.8635030
1069.244, 1.029015
1069.726, 1.238750
1070.208, 1.618328
1070.691, 2.076466
1071.173, 2.181244
1071.655, 1.760445
1072.137, 1.556267
1072.619, 1.772560
1073.101, 2.048592
1073.583, 1.784260
1074.065, 1.296200
1074.548, 1.112247
1075.030, 1.347977
1075.512, 1.633057
1075.994, 2.038544
1076.476, 2.248531
1076.958, 2.080029
1077.440, 1.634834
1077.922, 1.240730
1078.405, 0.9039570
1078.887, 0.6577490
1079.369, 0.5225830
1079.851, 0.4634250
1080.333, 0.5301930
1080.815, 0.6193730
1081.297, 0.6192050
1081.779, 0.5210690
1082.261, 0.3617020
1082.744, 0.1327360
1083.226, 5.5298001E-02
1083.708, 6.7955002E-02
1084.190, 4.1526999E-02
1084.672, 0.1013110
1085.154, 0.2427520
1085.636, 0.4535260
1086.118, 0.8519710
1086.601, 1.025974
1087.083, 0.8274610
1087.565, 0.6306300
1088.047, 1.062874
1088.529, 1.806808
1089.011, 2.167469
1089.493, 2.068363
1089.975, 1.949856
1090.458, 1.916416
1090.940, 1.986168
1091.422, 2.152893
1091.904, 2.427982
1092.386, 2.920364
1092.868, 3.581184
1093.350, 4.086517
1093.832, 4.321423
1094.314, 4.450630
1094.797, 4.553204
1095.279, 4.625378
1095.761, 4.621609
1096.243, 4.523933
1096.725, 4.702343
1097.207, 5.178280
1097.689, 5.694550
1098.171, 6.171059
1098.653, 6.552067
1099.136, 6.683838
1099.618, 6.696091
1100.100, 6.848343
1100.582, 7.268906
1101.064, 7.701614
1101.546, 8.171520
1102.028, 8.570702
1102.510, 8.718819
1102.993, 8.755173
1103.475, 8.980938
1103.957, 9.390079
1104.439, 9.861984
1104.921, 10.61145
1105.403, 11.04059
1105.885, 10.85455
1106.367, 10.44497
1106.849, 10.52711
1107.332, 11.01588
1107.814, 11.46576
1108.296, 11.81102
1108.778, 12.13866
1109.260, 12.53151
1109.742, 12.90214
1110.224, 13.15569
1110.706, 13.33343
1111.188, 13.69709
1111.671, 14.25304
1112.153, 14.77552
1112.635, 15.20631
1113.117, 15.55112
1113.599, 15.63929
1114.081, 15.74467
1114.563, 16.24871
1115.045, 17.31369
1115.528, 18.08487
1116.010, 18.49865
1116.492, 18.91183
1116.974, 19.52557
1117.456, 20.26270
1117.938, 21.04451
1118.420, 21.84706
1118.902, 22.61837
1119.385, 23.43815
1119.867, 24.03812
1120.349, 24.26793
1120.831, 24.55265
1121.313, 25.34015
1121.795, 26.47313
1122.277, 27.58377
1122.759, 28.62906
1123.241, 29.50145
1123.724, 29.95464
1124.206, 30.49912
1124.688, 31.27356
1125.170, 32.20871
1125.652, 33.23661
1126.134, 34.33362
1126.616, 35.35282
1127.098, 36.27782
1127.580, 37.04591
1128.063, 37.53323
1128.545, 37.90757
1129.027, 38.29699
1129.509, 38.71024
1129.991, 39.07135
1130.473, 39.36114
1130.955, 39.30482
1131.437, 38.78475
1131.920, 38.26359
1132.402, 38.40311
1132.884, 38.53419
1133.366, 37.89580
1133.848, 36.37881
1134.330, 35.21597
1134.812, 34.54257
1135.294, 33.61802
1135.776, 31.98145
1136.259, 30.14851
1136.741, 28.62442
1137.223, 27.42636
1137.705, 26.59588
1138.187, 26.49406
1138.669, 25.93066
1139.151, 24.71720
1139.633, 23.48143
1140.115, 22.70172
1140.598, 22.18291
1141.080, 21.43921
1141.562, 20.54016
1142.044, 19.66796
1142.526, 19.05411
1143.008, 18.35727
1143.490, 17.40557
1143.972, 16.59448
1144.455, 16.51524
1144.937, 16.87020
1145.419, 16.51276
1145.901, 15.54259
1146.383, 14.88387
1146.865, 15.38514
1147.347, 15.81507
1147.829, 15.86056
1148.312, 15.58474
1148.794, 14.88237
1149.276, 13.87522
1149.758, 13.54057
1150.240, 14.00065
1150.722, 14.43543
1151.204, 14.23112
1151.686, 13.94070
1152.168, 13.86074
1152.651, 13.93444
1153.133, 14.03632
1153.615, 14.16021
1154.097, 14.13260
1154.579, 13.89256
1155.061, 13.61679
1155.543, 13.39782
1156.025, 13.24358
1156.507, 13.18798
1156.990, 13.21547
1157.472, 13.20786
1157.954, 13.16193
1158.436, 13.14711
1158.918, 13.23689
1159.400, 13.24501
1159.882, 12.88173
1160.364, 12.38924
1160.847, 12.06669
1161.329, 11.97474
1161.811, 11.79099
1162.293, 11.49876
1162.775, 11.23079
1163.257, 11.05909
1163.739, 10.94272
1164.221, 10.88055
1164.703, 10.81679
1165.186, 10.63530
1165.668, 10.10646
1166.150, 10.03559
1166.632, 10.57681
1167.114, 11.00981
1167.596, 10.62217
1168.078, 9.909523
1168.560, 9.667591
1169.042, 9.775043
1169.525, 9.909679
1170.007, 10.10672
1170.489, 10.09420
1170.971, 9.773224
1171.453, 9.457417
1171.935, 9.515690
1172.417, 9.759834
1172.899, 9.827755
1173.382, 9.731144
1173.864, 9.606453
1174.346, 9.386230
1174.828, 9.328430
1175.310, 9.550793
1175.792, 9.791157
1176.274, 9.662872
1176.756, 9.306515
1177.239, 9.027958
1177.721, 8.856319
1178.203, 8.735336
1178.685, 8.748081
1179.167, 8.671017
1179.649, 8.439388
1180.131, 8.104420
1180.613, 7.701298
1181.095, 7.275337
1181.578, 6.967205
1182.060, 6.798733
1182.542, 6.682716
1183.024, 6.728966
1183.506, 6.623402
1183.988, 6.212307
1184.470, 5.619221
1184.952, 5.119556
1185.434, 4.712971
1185.917, 4.426250
1186.399, 4.311073
1186.881, 4.079773
1187.363, 3.458504
1187.845, 2.817654
1188.327, 2.286274
1188.809, 1.895855
1189.291, 1.898609
1189.774, 2.183857
1190.256, 2.156654
1190.738, 1.486126
1191.220, 0.8323330
1191.702, 0.5019910
1192.184, 0.3227200
1192.666, 0.2093350
1193.148, 0.1547890
1193.630, 7.8277998E-02
1194.113, 2.0733001E-02
1194.595, 0.1262320
1195.077, 0.1964300
1195.559, 0.3307000
1196.041, 0.7540590
1196.523, 1.108589
1197.005, 1.031921
1197.487, 0.5611380
1197.969, 0.5424610
1198.452, 0.8950960
1198.934, 1.004223
1199.416, 0.2235370
1199.898, 0.4659120
1200.380, 0.5179820
1200.862, 0.2944450
1201.344, 0.1031340
1201.826, 5.0274000E-02
1202.309, 3.3859000E-02
1202.791, 0.1380840
1203.273, 0.3842580
1203.755, 0.7512170
1204.237, 1.072689
1204.719, 1.274929
1205.201, 1.371536
1205.683, 1.317459
1206.166, 1.124794
1206.648, 1.220741
1207.130, 1.581425
1207.612, 1.860840
1208.094, 1.616631
1208.576, 1.467304
1209.058, 1.930008
1209.540, 2.592716
1210.022, 2.855938
1210.505, 2.735809
1210.987, 2.688427
1211.469, 2.746723
1211.951, 2.826717
1212.433, 2.875366
1212.915, 2.922794
1213.397, 3.018806
1213.879, 3.108051
1214.361, 3.061497
1214.844, 2.894871
1215.326, 2.827679
1215.808, 2.884216
1216.290, 3.005886
1216.772, 3.283733
1217.254, 3.471649
1217.736, 3.353741
1218.218, 3.102604
1218.701, 3.089890
1219.183, 3.288311
1219.665, 3.372059
1220.147, 3.286114
1220.629, 3.220753
1221.111, 3.336060
1221.593, 3.471386
1222.075, 3.570202
1222.557, 3.607845
1223.040, 3.480202
1223.522, 3.214199
1224.004, 3.023136
1224.486, 2.948051
1224.968, 2.924904
1225.450, 2.955898
1225.932, 2.989120
1226.414, 3.032806
1226.896, 3.041473
1227.379, 2.790794
1227.861, 2.355316
1228.343, 2.143015
1228.825, 2.270851
1229.307, 2.440935
1229.789, 2.551136
1230.271, 2.584263
1230.753, 2.503344
1231.236, 2.362238
1231.718, 2.440428
1232.200, 2.635422
1232.682, 2.458059
1233.164, 1.683363
1233.646, 1.058149
1234.128, 0.9628260
1234.610, 1.115574
1235.093, 1.493246
1235.575, 1.947451
1236.057, 1.881485
1236.539, 1.470560
1237.021, 1.338837
1237.503, 1.776089
1237.985, 2.058098
1238.467, 1.844963
1238.949, 1.482439
1239.432, 1.037989
1239.914, 0.6017570
1240.396, 0.4593830
1240.878, 0.5571710
1241.360, 0.7915900
1241.842, 1.243423
1242.324, 1.468046
1242.806, 1.265871
1243.288, 0.9940300
1243.771, 0.7919240
1244.253, 0.6907620
1244.735, 1.015305
1245.217, 1.522736
1245.699, 1.601717
1246.181, 0.8744850
1246.663, 0.2947940
1247.145, 5.4958001E-02
1247.628, 0.2167280
1248.110, 0.1855720
1248.592, 6.7656003E-02
1249.074, 2.5764000E-02
1249.556, 0.1862580
1250.038, 0.1644440
1250.520, 2.6440000E-02
1251.002, 0.1188430
1251.484, 0.7448900
1251.967, 1.156324
1252.449, 0.8089810
1252.931, 0.1659580
1253.413, 5.1236998E-02
1253.895, 9.7800000E-04
1254.377, 3.7416000E-02
1254.859, 6.1583001E-02
1255.341, 9.9319004E-02
1255.823, 0.6109370
1256.306, 0.9431740
1256.788, 0.6516780
1257.270, 0.1726460
1257.752, 1.6130000E-02
1258.234, 4.1714001E-02
1258.716, 1.9133000E-02
1259.198, 0.1183870
1259.680, 0.1058580
1260.163, 7.1074001E-02
1260.645, 0.2665600
1261.127, 0.4159950
1261.609, 0.5278680
1262.091, 0.6739880
1262.573, 0.7479690
1263.055, 0.5545980
1263.537, 1.5829001E-02
1264.020, 0.1322980
1264.502, 0.1036620
1264.984, 0.3508890
1265.466, 0.3987940
1265.948, 0.3798690
1266.430, 0.2815990
1266.912, 0.2340640
1267.394, 0.4367180
1267.876, 0.8946630
1268.359, 0.9547230
1268.841, 0.6601330
1269.323, 0.4251790
1269.805, 0.5289060
1270.287, 0.6666370
1270.769, 0.7482300
1271.251, 0.7607900
1271.733, 0.6217710
1272.215, 0.3594280
1272.698, 0.3630890
1273.180, 0.5990980
1273.662, 0.8195020
1274.144, 0.9606690
1274.626, 0.8262560
1275.108, 0.3612290
1275.590, 8.6329998E-03
1276.072, 9.6974999E-02
1276.555, 0.5399680
1277.037, 0.7469690
1277.519, 0.7283920
1278.001, 0.5980090
1278.483, 0.2300070
1278.965, 7.4597999E-02
1279.447, 0.1618520
1279.929, 0.3205930
1280.411, 0.3425060
1280.894, 0.4059100
1281.376, 0.7579590
1281.858, 1.212370
1282.340, 1.330021
1282.822, 0.7158780
1283.304, 0.4637150
1283.786, 0.5803470
1284.268, 0.7175290
1284.750, 0.6112270
1285.233, 0.4255770
1285.715, 0.4232030
1286.197, 0.5186940
1286.679, 0.5197830
1287.161, 0.3519310
1287.643, 0.5143590
1288.125, 1.009472
1288.607, 1.315870
1289.090, 1.103630
1289.572, 0.7321850
1290.054, 0.2817960
1290.536, 5.6731999E-02
1291.018, 7.1567997E-02
1291.500, 0.2515510
1291.982, 0.4423770
1292.464, 0.5033840
1292.947, 0.4979210
1293.429, 0.3631150
1293.911, 0.2857460
1294.393, 0.3897720
1294.875, 0.5329490
1295.357, 0.6227260
1295.839, 0.5966760
1296.321, 0.4243470
1296.803, 0.2319600
1297.286, 8.2190000E-02
1297.768, 9.9900004E-04
1298.250, 2.9026000E-02
1298.732, 0.2756140
1299.214, 0.4716300
1299.696, 0.3644430
1300.178, 0.1223140
1300.660, 0.0000000E+00
##END=



