##NAMES=Axinite-(Mn)
##RRUFFID=R160079
##IDEAL CHEMISTRY=Ca_4_Mn^2+^_2_Al_4_[B_2_Si_8_O_30_](OH)_2_
##LOCALITY=Huachuca Mountains, Cochise County, Arizona, USA
##OWNER=RRUFF
##SOURCE=Carl Richardson
##DESCRIPTION=Orange-yellow aggregates of flattened crystals on quartz. This sample was donated to UAMM as tinzenite (#13189). X-ray diffraction data show that it is axinite-(Mn).
##STATUS=The identification of this mineral has been confirmed only by single crystal X-ray diffraction.
##URL=rruff.info/R160079
114.1710, 0.0000000E+00
114.6531, 0.5058290
115.1353, 1.398926
115.6174, 2.039398
116.0995, 0.9004520
116.5816, 0.7541810
117.0637, 1.009186
117.5458, 1.014069
118.0280, 0.9078060
118.5101, 2.2705000E-02
118.9922, 0.8043820
119.4743, 0.8830570
119.9564, 0.2015380
120.4385, 0.9310610
120.9207, 1.933929
121.4028, 3.266876
121.8849, 5.727600
122.3670, 11.57513
122.8491, 17.96237
123.3312, 21.58221
123.8134, 21.61371
124.2955, 20.65833
124.7776, 20.76181
125.2597, 21.81439
125.7418, 23.43250
126.2239, 25.48032
126.7061, 27.96429
127.1882, 30.81003
127.6703, 34.10263
128.1524, 37.67853
128.6345, 41.39334
129.1166, 45.23151
129.5988, 49.04965
130.0809, 52.90674
130.5630, 56.69434
131.0451, 59.93091
131.5272, 62.26120
132.0093, 64.11227
132.4915, 66.47577
132.9736, 69.36075
133.4557, 72.63620
133.9378, 76.00723
134.4199, 79.49216
134.9020, 83.68439
135.3842, 88.88068
135.8663, 94.84061
136.3484, 100.8406
136.8305, 106.7277
137.3126, 113.0578
137.7947, 120.7243
138.2769, 130.1815
138.7590, 138.8405
139.2411, 146.1911
139.7232, 152.3115
140.2053, 156.0219
140.6874, 157.2815
141.1696, 156.2939
141.6517, 152.9998
142.1338, 146.4213
142.6159, 139.7828
143.0980, 133.8815
143.5801, 128.7799
144.0623, 124.3518
144.5444, 120.6672
145.0265, 117.6494
145.5086, 115.3658
145.9907, 114.9523
146.4728, 113.7816
146.9550, 110.9554
147.4371, 105.9872
147.9192, 100.4869
148.4013, 94.01514
148.8834, 87.08258
149.3655, 80.69974
149.8477, 74.72504
150.3298, 69.46118
150.8119, 65.09842
151.2940, 62.30331
151.7761, 59.39923
152.2583, 55.93097
152.7404, 52.29062
153.2225, 49.58688
153.7046, 48.68710
154.1867, 48.20535
154.6688, 47.51981
155.1510, 46.57834
155.6331, 45.40872
156.1152, 43.72559
156.5973, 41.72861
157.0794, 40.22784
157.5615, 39.64185
158.0437, 39.45230
158.5258, 39.34344
159.0079, 39.71692
159.4900, 39.67862
159.9721, 38.67975
160.4542, 36.90552
160.9364, 35.42715
161.4185, 34.72699
161.9006, 34.43469
162.3827, 34.25150
162.8648, 34.16272
163.3469, 34.09848
163.8291, 33.97723
164.3112, 33.81287
164.7933, 33.79105
165.2754, 33.87695
165.7575, 34.19287
166.2396, 34.86746
166.7218, 36.19623
167.2039, 37.70935
167.6860, 39.09641
168.1681, 40.34476
168.6502, 41.70050
169.1323, 43.59735
169.6145, 45.80157
170.0966, 47.88788
170.5787, 50.00659
171.0608, 51.84042
171.5429, 53.09671
172.0250, 53.39084
172.5072, 53.24622
172.9893, 52.95395
173.4714, 52.33246
173.9535, 51.06195
174.4356, 48.66815
174.9177, 45.62054
175.3999, 42.20895
175.8820, 38.38486
176.3641, 34.85162
176.8462, 32.09100
177.3283, 30.06967
177.8104, 28.63528
178.2926, 28.14139
178.7747, 28.03406
179.2568, 27.35663
179.7389, 26.00778
180.2210, 24.43451
180.7031, 22.96387
181.1853, 21.64178
181.6674, 20.68710
182.1495, 20.52484
182.6316, 20.79852
183.1137, 20.57773
183.5958, 19.73386
184.0780, 18.75940
184.5601, 18.25378
185.0422, 18.19046
185.5243, 18.35965
186.0064, 18.75455
186.4885, 19.32306
186.9707, 19.78656
187.4528, 20.09558
187.9349, 20.44223
188.4170, 21.10547
188.8991, 22.07983
189.3812, 23.26059
189.8634, 24.61783
190.3455, 26.14255
190.8276, 27.94019
191.3097, 30.18344
191.7918, 32.37927
192.2739, 33.55371
192.7561, 33.68546
193.2382, 33.65695
193.7203, 34.21008
194.2024, 35.24033
194.6845, 35.22021
195.1666, 33.73178
195.6488, 31.63318
196.1309, 30.64777
196.6130, 30.87296
197.0951, 31.40845
197.5772, 31.80319
198.0593, 32.05762
198.5415, 32.24512
199.0236, 32.22357
199.5057, 32.31754
199.9878, 33.38321
200.4699, 35.58435
200.9520, 37.95612
201.4342, 39.90234
201.9163, 41.39444
202.3984, 42.92871
202.8805, 44.48215
203.3626, 46.14175
203.8447, 48.24280
204.3269, 50.94196
204.8090, 53.52271
205.2911, 55.45148
205.7732, 56.61426
206.2553, 57.99765
206.7374, 59.74057
207.2196, 61.69064
207.7017, 63.46710
208.1838, 65.09891
208.6659, 66.49002
209.1480, 67.61700
209.6301, 68.55133
210.1123, 69.00220
210.5944, 69.07135
211.0765, 68.60229
211.5586, 67.03256
212.0407, 64.07074
212.5228, 60.65778
213.0050, 57.29691
213.4871, 54.02704
213.9692, 50.69785
214.4513, 47.25653
214.9334, 43.76947
215.4155, 40.35315
215.8977, 37.02048
216.3798, 33.70367
216.8619, 30.36304
217.3440, 26.94919
217.8261, 23.66000
218.3082, 20.49780
218.7904, 17.48026
219.2725, 14.70273
219.7546, 12.21530
220.2367, 9.913147
220.7188, 7.751617
221.2009, 5.652618
221.6831, 3.899902
222.1652, 2.641815
222.6473, 1.703796
223.1294, 0.5491640
223.6115, 1.065887
224.0936, 2.482330
224.5758, 3.341522
225.0579, 3.360168
225.5400, 3.496094
226.0221, 3.816193
226.5042, 4.244049
226.9863, 4.581390
227.4685, 4.811188
227.9506, 4.977142
228.4327, 5.113251
228.9148, 5.274841
229.3969, 5.271149
229.8790, 5.018585
230.3612, 4.631226
230.8433, 4.454865
231.3254, 4.838043
231.8075, 4.908691
232.2896, 4.198578
232.7717, 2.209167
233.2539, 0.6971130
233.7360, 0.1347960
234.2181, 0.5218810
234.7002, 1.004272
235.1823, 1.616119
235.6644, 2.247192
236.1466, 2.839691
236.6287, 3.333344
237.1108, 3.941498
237.5929, 4.694611
238.0750, 5.534210
238.5571, 6.329895
239.0393, 7.047943
239.5214, 7.781830
240.0035, 8.561371
240.4856, 9.404449
240.9677, 10.33072
241.4498, 11.55765
241.9320, 12.76920
242.4141, 13.34814
242.8962, 12.79309
243.3783, 12.44919
243.8604, 12.85248
244.3425, 14.29376
244.8247, 15.42435
245.3068, 16.09561
245.7889, 16.55472
246.2710, 17.20639
246.7531, 18.10965
247.2352, 19.09808
247.7174, 20.14337
248.1995, 21.24866
248.6816, 22.25928
249.1637, 22.92828
249.6458, 23.68387
250.1279, 25.19238
250.6101, 27.94055
251.0922, 30.55023
251.5743, 32.63892
252.0564, 34.18790
252.5385, 35.42126
253.0206, 36.20789
253.5028, 36.80737
253.9849, 37.56531
254.4670, 38.76486
254.9491, 39.55960
255.4312, 39.71558
255.9133, 39.20850
256.3955, 38.45831
256.8776, 37.29681
257.3597, 36.07745
257.8418, 35.19269
258.3239, 34.77155
258.8061, 34.34314
259.2882, 33.73608
259.7703, 32.95660
260.2524, 32.57751
260.7345, 32.68616
261.2166, 33.06952
261.6988, 33.60724
262.1809, 34.39832
262.6630, 35.00311
263.1451, 35.23419
263.6272, 35.16980
264.1093, 35.51569
264.5915, 36.46246
265.0736, 37.50391
265.5557, 38.21826
266.0378, 38.45056
266.5199, 38.85999
267.0020, 39.53540
267.4842, 40.46045
267.9663, 41.44684
268.4484, 42.36511
268.9305, 43.62439
269.4126, 45.66077
269.8947, 48.79919
270.3769, 51.35968
270.8590, 53.04199
271.3411, 54.12885
271.8232, 55.53998
272.3053, 57.44611
272.7874, 59.14246
273.2696, 60.17999
273.7517, 60.46497
274.2338, 60.66608
274.7159, 60.85785
275.1980, 60.96503
275.6801, 60.90643
276.1623, 60.77765
276.6444, 60.07861
277.1265, 58.40698
277.6086, 55.66888
278.0907, 52.98889
278.5728, 50.36865
279.0550, 47.84283
279.5371, 45.31915
280.0192, 42.72168
280.5013, 40.74493
280.9834, 39.93341
281.4655, 40.20087
281.9477, 40.04504
282.4298, 39.37018
282.9119, 38.61719
283.3940, 38.26135
283.8761, 38.28687
284.3582, 38.73773
284.8404, 39.99005
285.3225, 41.78558
285.8046, 42.36206
286.2867, 41.52356
286.7688, 40.33746
287.2509, 40.24719
287.7331, 41.15515
288.2152, 41.48773
288.6973, 40.61340
289.1794, 38.80627
289.6615, 36.98779
290.1436, 35.18811
290.6258, 33.54187
291.1079, 32.05591
291.5900, 30.70819
292.0721, 29.50696
292.5542, 28.46753
293.0363, 27.59180
293.5185, 26.82098
294.0006, 26.16016
294.4827, 25.83313
294.9648, 26.16699
295.4469, 26.98663
295.9290, 27.71893
296.4112, 28.21185
296.8933, 28.65448
297.3754, 29.38397
297.8575, 30.34515
298.3396, 31.25757
298.8217, 31.77795
299.3039, 32.14679
299.7860, 32.85474
300.2681, 33.98474
300.7502, 35.34949
301.2323, 36.80981
301.7144, 38.34406
302.1966, 39.81250
302.6787, 40.94983
303.1608, 42.06287
303.6429, 43.76624
304.1250, 46.19775
304.6071, 48.49231
305.0893, 49.77448
305.5714, 50.32947
306.0535, 50.72577
306.5356, 51.07776
307.0177, 51.41925
307.4998, 51.80487
307.9820, 52.25500
308.4641, 52.68018
308.9462, 52.73993
309.4283, 52.73029
309.9104, 53.02783
310.3925, 53.83649
310.8747, 55.13611
311.3568, 57.00385
311.8389, 59.39893
312.3210, 61.97546
312.8031, 64.74670
313.2852, 67.60602
313.7674, 70.32300
314.2495, 72.43414
314.7316, 74.95630
315.2137, 78.54706
315.6958, 82.96576
316.1779, 87.43317
316.6601, 91.64062
317.1422, 95.79938
317.6243, 100.0315
318.1064, 104.3934
318.5885, 108.6378
319.0706, 113.1289
319.5528, 117.4076
320.0349, 120.5892
320.5170, 122.5366
320.9991, 123.2343
321.4812, 122.5526
321.9633, 120.2812
322.4455, 117.3717
322.9276, 114.1348
323.4097, 110.3173
323.8918, 105.6099
324.3739, 98.76721
324.8560, 92.21777
325.3382, 86.55322
325.8203, 81.82050
326.3024, 77.59991
326.7845, 73.99414
327.2666, 70.78967
327.7487, 67.80823
328.2309, 65.03174
328.7130, 62.53265
329.1951, 60.34906
329.6772, 58.46838
330.1593, 56.74017
330.6414, 54.90350
331.1236, 53.47870
331.6057, 52.77191
332.0878, 53.19238
332.5699, 53.56683
333.0520, 53.70331
333.5341, 53.78381
334.0163, 54.36310
334.4984, 55.68542
334.9805, 57.07642
335.4626, 58.23676
335.9447, 59.05658
336.4268, 60.12000
336.9090, 61.54730
337.3911, 63.11896
337.8732, 64.52167
338.3553, 65.81146
338.8374, 66.77185
339.3195, 67.42847
339.8017, 67.76782
340.2838, 67.39069
340.7659, 66.28284
341.2480, 64.50677
341.7301, 61.98218
342.2122, 58.68134
342.6944, 55.12518
343.1765, 51.27380
343.6586, 47.30878
344.1407, 44.06519
344.6228, 41.59955
345.1049, 39.27631
345.5871, 36.57281
346.0692, 33.53955
346.5513, 30.77563
347.0334, 28.33893
347.5155, 26.20251
347.9977, 24.49988
348.4798, 23.16852
348.9619, 21.81976
349.4440, 20.06293
349.9261, 18.14233
350.4082, 16.67737
350.8904, 15.75446
351.3725, 14.97626
351.8546, 13.86060
352.3367, 12.54706
352.8188, 11.39099
353.3009, 11.01520
353.7831, 10.63208
354.2652, 9.047607
354.7473, 6.318604
355.2294, 3.694946
355.7115, 2.124329
356.1936, 1.192200
356.6758, 0.3595580
357.1579, 0.5969850
357.6400, 1.426880
358.1221, 1.900085
358.6042, 2.078186
359.0863, 2.204346
359.5685, 2.406311
360.0506, 2.592285
360.5327, 2.666565
361.0148, 2.541809
361.4969, 2.490417
361.9790, 2.663757
362.4612, 2.978333
362.9433, 3.294373
363.4254, 3.853760
363.9075, 4.165955
364.3896, 3.898254
364.8717, 2.932373
365.3539, 2.206604
365.8360, 2.489258
366.3181, 2.826660
366.8002, 2.352417
367.2823, 0.2797850
367.7644, 1.840210
368.2466, 4.389160
368.7287, 7.170349
369.2108, 8.024231
369.6929, 5.084656
370.1750, 1.856262
370.6571, 0.1649780
371.1393, 1.072083
371.6214, 1.634705
372.1035, 1.596558
372.5856, 1.289917
373.0677, 1.514282
373.5498, 2.603149
374.0320, 3.599365
374.5141, 4.098633
374.9962, 4.023438
375.4783, 4.150269
375.9604, 4.535522
376.4425, 5.025879
376.9247, 5.400757
377.4068, 5.609375
377.8889, 6.000427
378.3710, 6.726501
378.8531, 7.679382
379.3352, 8.342529
379.8174, 8.646851
380.2995, 9.081055
380.7816, 10.06281
381.2637, 11.55176
381.7458, 13.14581
382.2279, 14.85706
382.7101, 16.56409
383.1922, 18.13959
383.6743, 19.59552
384.1564, 20.89520
384.6385, 22.13989
385.1206, 23.20685
385.6028, 23.75287
386.0849, 23.72644
386.5670, 23.62518
387.0491, 24.05225
387.5312, 24.73248
388.0133, 25.12866
388.4955, 25.05609
388.9776, 24.60132
389.4597, 23.79962
389.9418, 22.66296
390.4239, 21.27197
390.9060, 19.13342
391.3882, 17.04028
391.8703, 15.84076
392.3524, 16.18451
392.8345, 16.39563
393.3166, 15.26782
393.7987, 13.44910
394.2809, 12.25439
394.7630, 12.78546
395.2451, 13.44946
395.7272, 13.48859
396.2093, 12.70935
396.6914, 12.08820
397.1736, 11.81097
397.6557, 11.77197
398.1378, 11.87909
398.6199, 12.22961
399.1020, 12.60956
399.5841, 12.91406
400.0663, 13.18353
400.5484, 13.62054
401.0305, 14.44556
401.5126, 15.31842
401.9947, 15.99011
402.4768, 16.39911
402.9590, 16.61066
403.4411, 16.51746
403.9232, 16.34467
404.4053, 16.51306
404.8874, 17.11975
405.3695, 17.80786
405.8517, 18.31458
406.3338, 18.70190
406.8159, 19.95380
407.2980, 22.24231
407.7801, 24.82709
408.2622, 26.91089
408.7444, 28.52911
409.2265, 30.40320
409.7086, 32.73676
410.1907, 35.32141
410.6728, 37.82367
411.1549, 40.24005
411.6371, 42.48151
412.1192, 44.32001
412.6013, 45.94122
413.0834, 47.91693
413.5655, 50.36707
414.0476, 52.43573
414.5298, 53.33710
415.0119, 53.21576
415.4940, 52.45721
415.9761, 50.70538
416.4582, 48.82080
416.9403, 47.63715
417.4225, 47.04681
417.9046, 46.42535
418.3867, 45.13873
418.8688, 43.85913
419.3509, 43.25262
419.8330, 43.89484
420.3152, 44.20923
420.7973, 43.24707
421.2794, 41.59167
421.7615, 40.33899
422.2436, 40.20459
422.7257, 40.22260
423.2079, 39.93860
423.6900, 39.18054
424.1721, 38.85718
424.6542, 39.38739
425.1363, 40.33411
425.6184, 41.27112
426.1006, 41.89728
426.5827, 42.78235
427.0648, 44.08551
427.5469, 45.66614
428.0290, 47.03284
428.5111, 48.24896
428.9933, 49.07806
429.4754, 49.20441
429.9575, 48.46191
430.4396, 48.20404
430.9217, 48.71625
431.4038, 49.14062
431.8860, 48.22119
432.3681, 45.90631
432.8502, 43.51562
433.3323, 41.43964
433.8144, 39.50598
434.2965, 37.04150
434.7787, 34.06970
435.2608, 31.46198
435.7429, 30.07092
436.2250, 29.52271
436.7071, 28.76208
437.1892, 27.60590
437.6714, 26.61328
438.1535, 26.49817
438.6356, 27.00433
439.1177, 27.57025
439.5998, 27.95166
440.0819, 28.28296
440.5641, 28.70331
441.0462, 29.19049
441.5283, 29.57605
442.0104, 29.77490
442.4925, 29.80756
442.9746, 29.72308
443.4568, 29.74725
443.9389, 29.24841
444.4210, 27.78351
444.9031, 25.68378
445.3852, 23.57800
445.8673, 21.83997
446.3495, 19.90314
446.8316, 17.43146
447.3137, 14.27826
447.7958, 11.65765
448.2779, 9.797546
448.7600, 8.319275
449.2422, 6.952209
449.7243, 5.625732
450.2064, 4.590942
450.6885, 3.980530
451.1706, 3.608582
451.6527, 2.900146
452.1349, 1.700562
452.6170, 0.6885380
453.0991, 0.2033690
453.5812, 0.2215580
454.0633, 0.3262330
454.5454, 0.5469360
455.0276, 0.6994630
455.5097, 0.4047240
455.9918, 0.2178340
456.4739, 0.3530880
456.9560, 0.4722900
457.4381, 1.450317
457.9203, 1.042358
458.4024, 0.4649660
458.8845, 1.748535
459.3666, 1.831543
459.8488, 1.316711
460.3309, 0.8439330
460.8130, 0.4603880
461.2951, 0.2772220
461.7772, 0.5361330
462.2593, 0.9104000
462.7415, 0.9616090
463.2236, 0.3681640
463.7057, 0.2282710
464.1878, 0.5878300
464.6699, 0.7962040
465.1520, 1.084473
465.6342, 1.179199
466.1163, 1.499634
466.5984, 2.372742
467.0805, 4.265686
467.5626, 5.471008
468.0447, 5.569519
468.5269, 5.264404
469.0090, 5.250732
469.4911, 5.630188
469.9732, 6.017944
470.4553, 6.440063
470.9374, 6.824280
471.4196, 6.713623
471.9017, 5.845764
472.3838, 5.269653
472.8659, 5.738281
473.3480, 7.251587
473.8301, 8.333740
474.3123, 8.909119
474.7944, 9.257019
475.2765, 9.720642
475.7586, 10.25824
476.2407, 10.62372
476.7228, 10.56769
477.2050, 10.50446
477.6871, 11.26904
478.1692, 12.69397
478.6513, 13.93182
479.1334, 14.34827
479.6155, 14.37000
480.0977, 14.37665
480.5798, 14.39117
481.0619, 14.60919
481.5440, 15.45984
482.0261, 16.46991
482.5082, 17.09656
482.9904, 17.14355
483.4725, 16.82153
483.9546, 16.15289
484.4367, 15.15015
484.9188, 13.88849
485.4009, 11.98822
485.8831, 10.15735
486.3652, 8.657410
486.8473, 7.575684
487.3294, 6.505188
487.8115, 5.379578
488.2936, 4.307068
488.7758, 3.361694
489.2579, 2.488892
489.7400, 1.904236
490.2221, 1.703796
490.7042, 1.768738
491.1863, 1.808167
491.6685, 1.840088
492.1506, 1.700500
492.6327, 1.098755
493.1148, 0.2086790
493.5969, 7.1044996E-02
494.0790, 0.3227540
494.5612, 0.8779300
495.0433, 1.007263
495.5254, 0.9382930
496.0075, 1.197449
496.4896, 2.084167
496.9717, 3.118347
497.4539, 3.832825
497.9360, 4.324707
498.4181, 4.801392
498.9002, 5.209412
499.3823, 5.755066
499.8644, 6.733215
500.3466, 8.221130
500.8287, 9.246521
501.3108, 8.947083
501.7929, 8.379944
502.2750, 8.347290
502.7571, 9.534607
503.2393, 10.48987
503.7214, 10.97620
504.2035, 11.22070
504.6856, 11.73859
505.1677, 12.70856
505.6498, 13.62763
506.1320, 14.39850
506.6141, 15.02783
507.0962, 15.34991
507.5783, 15.33185
508.0604, 15.15350
508.5425, 15.03149
509.0247, 14.94397
509.5068, 14.47467
509.9889, 13.52429
510.4710, 12.35577
510.9531, 11.24152
511.4352, 10.21460
511.9174, 9.372314
512.3995, 9.075928
512.8816, 8.768005
513.3637, 7.528259
513.8458, 5.522217
514.3279, 3.860168
514.8101, 3.568359
515.2922, 3.677307
515.7743, 3.370605
516.2564, 2.345886
516.7385, 1.300842
517.2206, 0.4434200
517.7028, 0.1437380
518.1849, 0.4058840
518.6670, 0.3191530
519.1491, 0.5844730
519.6312, 0.1522830
520.1133, 1.591003
520.5955, 2.397278
521.0776, 2.133728
521.5597, 1.842285
522.0418, 2.078735
522.5239, 2.938843
523.0060, 3.113342
523.4882, 2.452026
523.9703, 1.501892
524.4524, 0.7325440
524.9345, 0.1573490
525.4166, 7.4463002E-02
525.8987, 0.2326050
526.3809, 0.5650020
526.8630, 6.7261003E-02
527.3451, 1.443665
527.8272, 2.653870
528.3093, 2.976868
528.7914, 3.043640
529.2736, 3.512634
529.7557, 4.382813
530.2378, 5.435303
530.7199, 6.853638
531.2020, 8.226624
531.6841, 9.174805
532.1663, 9.496460
532.6484, 9.717407
533.1305, 9.995605
533.6126, 10.26025
534.0947, 10.41461
534.5768, 10.02698
535.0590, 10.08307
535.5411, 10.95996
536.0232, 12.48834
536.5053, 13.52374
536.9874, 13.87885
537.4695, 14.16113
537.9517, 14.70184
538.4338, 15.53271
538.9159, 16.15741
539.3980, 16.53351
539.8801, 16.86047
540.3622, 17.35846
540.8444, 17.98846
541.3265, 18.57324
541.8086, 19.00317
542.2907, 19.51660
542.7728, 20.61353
543.2549, 22.07764
543.7371, 23.26355
544.2192, 23.65814
544.7013, 23.78351
545.1834, 24.09247
545.6655, 24.57758
546.1476, 24.82520
546.6298, 24.25592
547.1119, 23.67651
547.5940, 23.64038
548.0761, 24.45959
548.5582, 25.36621
549.0403, 26.52728
549.5225, 27.64709
550.0046, 28.33478
550.4867, 28.41290
550.9688, 28.35333
551.4509, 28.03351
551.9330, 27.71301
552.4152, 28.36456
552.8973, 30.15448
553.3794, 31.85034
553.8615, 32.75800
554.3436, 33.00684
554.8257, 33.29065
555.3079, 33.60254
555.7900, 33.85492
556.2721, 33.94666
556.7542, 33.92444
557.2363, 33.86603
557.7184, 33.78339
558.2006, 33.69385
558.6827, 33.74567
559.1648, 33.78363
559.6469, 33.54706
560.1290, 32.32465
560.6111, 31.42505
561.0933, 31.63239
561.5754, 32.76001
562.0575, 33.51251
562.5396, 34.34692
563.0217, 34.14966
563.5038, 31.94867
563.9860, 26.72437
564.4681, 24.59174
564.9502, 27.01648
565.4323, 30.25494
565.9144, 30.18158
566.3965, 26.40625
566.8787, 24.24176
567.3608, 24.79999
567.8429, 26.55597
568.3250, 26.73932
568.8071, 25.64740
569.2892, 24.86194
569.7714, 25.44818
570.2535, 26.49048
570.7356, 26.66595
571.2177, 26.10638
571.6998, 25.55762
572.1819, 25.51245
572.6641, 25.60736
573.1462, 25.55518
573.6283, 25.29327
574.1104, 25.00531
574.5925, 24.69519
575.0746, 24.40192
575.5568, 24.15039
576.0389, 23.83606
576.5210, 23.76630
577.0031, 24.16046
577.4852, 24.67297
577.9673, 24.48712
578.4495, 23.43457
578.9316, 22.45190
579.4137, 21.73022
579.8958, 21.27814
580.3779, 21.36993
580.8600, 22.07886
581.3422, 22.76855
581.8243, 22.81384
582.3064, 22.53204
582.7885, 22.73486
583.2706, 23.49261
583.7527, 24.16998
584.2349, 24.28479
584.7170, 24.05481
585.1991, 23.65790
585.6812, 23.03497
586.1633, 22.41010
586.6454, 21.84955
587.1276, 21.34326
587.6097, 20.88379
588.0918, 20.73358
588.5739, 20.31989
589.0560, 19.51147
589.5381, 18.33911
590.0203, 16.95013
590.5024, 15.15833
590.9845, 13.53687
591.4666, 12.49438
591.9487, 12.04272
592.4308, 11.14484
592.9130, 9.719849
593.3951, 8.337708
593.8772, 7.702026
594.3593, 7.575500
594.8414, 7.177734
595.3235, 6.239563
595.8057, 5.535034
596.2878, 6.186523
596.7699, 7.529602
597.2520, 8.381042
597.7341, 7.901001
598.2162, 7.234985
598.6984, 6.858643
599.1805, 6.730835
599.6626, 6.665588
600.1447, 6.576050
600.6268, 6.493164
601.1089, 6.359253
601.5911, 6.160278
602.0732, 6.613464
602.5553, 8.094177
603.0374, 9.554688
603.5195, 10.09735
604.0016, 9.596802
604.4838, 9.536255
604.9659, 10.06067
605.4480, 10.94806
605.9301, 12.19794
606.4122, 13.58502
606.8943, 14.27856
607.3765, 13.83691
607.8586, 13.01593
608.3407, 12.44910
608.8228, 12.14624
609.3049, 12.14215
609.7870, 13.26208
610.2692, 13.96582
610.7513, 13.00452
611.2334, 10.54315
611.7155, 8.746948
612.1976, 8.413635
612.6797, 8.514465
613.1619, 8.645081
613.6440, 8.864502
614.1261, 8.866516
614.6082, 8.619019
615.0903, 8.215820
615.5724, 7.608154
616.0546, 6.773071
616.5367, 6.479980
617.0188, 6.933472
617.5009, 7.651855
617.9830, 8.004150
618.4651, 8.037231
618.9473, 7.911255
619.4294, 7.673401
619.9115, 7.306885
620.3936, 6.685608
620.8757, 5.904724
621.3578, 5.246033
621.8400, 4.817078
622.3221, 4.558167
622.8042, 4.602783
623.2863, 4.960327
623.7684, 4.871887
624.2505, 3.866211
624.7327, 2.792908
625.2148, 2.076904
625.6969, 1.810059
626.1790, 1.503296
626.6611, 1.068481
627.1432, 0.7854000
627.6254, 1.066162
628.1075, 1.867737
628.5896, 2.503357
629.0717, 2.829468
629.5538, 3.002747
630.0359, 3.193298
630.5181, 3.387024
631.0002, 3.565918
631.4823, 3.731506
631.9644, 3.862244
632.4465, 3.786438
632.9286, 3.636230
633.4108, 3.823547
633.8929, 4.803101
634.3750, 5.847778
634.8571, 6.708191
635.3392, 7.377075
635.8214, 7.904968
636.3035, 8.244202
636.7856, 8.534851
637.2677, 8.821472
637.7498, 9.079834
638.2319, 9.653809
638.7141, 10.66107
639.1962, 11.59454
639.6783, 11.84650
640.1604, 11.57532
640.6425, 11.38464
641.1246, 11.41986
641.6068, 11.45819
642.0889, 11.24182
642.5710, 10.87506
643.0531, 10.53473
643.5352, 10.48279
644.0173, 10.25867
644.4995, 9.586548
644.9816, 8.582947
645.4637, 7.579590
645.9458, 6.589417
646.4279, 5.653687
646.9100, 4.814392
647.3922, 4.052612
647.8743, 3.154602
648.3564, 1.992981
648.8385, 1.047485
649.3206, 0.7203370
649.8027, 0.9230960
650.2849, 0.8104250
650.7670, 0.3552860
651.2491, 5.0232001E-02
651.7312, 0.1630860
652.2133, 0.5949710
652.6954, 0.5119020
653.1776, 0.3597410
653.6597, 1.137268
654.1418, 1.136902
654.6239, 0.8046260
655.1060, 0.6591190
655.5881, 0.9871220
656.0703, 1.311523
656.5524, 1.671326
657.0345, 1.955200
657.5166, 1.904602
657.9987, 1.283142
658.4808, 0.9403080
658.9630, 1.171082
659.4451, 1.771240
659.9272, 2.065491
660.4093, 2.053345
660.8914, 1.837891
661.3735, 1.292114
661.8557, 0.6427610
662.3378, 0.3826900
662.8199, 0.4597170
663.3020, 0.4263310
663.7841, 2.0569000E-02
664.2662, 0.6906740
664.7484, 1.450073
665.2305, 2.276428
665.7126, 3.186096
666.1947, 4.268188
666.6768, 5.374451
667.1589, 6.383545
667.6411, 7.144958
668.1232, 8.141052
668.6053, 9.474854
669.0874, 10.88904
669.5695, 11.96655
670.0516, 12.71252
670.5338, 13.80341
671.0159, 15.47772
671.4980, 17.29755
671.9801, 18.58807
672.4622, 19.48193
672.9443, 20.29553
673.4265, 21.14874
673.9086, 22.00525
674.3907, 22.80151
674.8728, 23.59686
675.3549, 24.53644
675.8370, 25.92230
676.3192, 27.23718
676.8013, 28.35443
677.2834, 29.28058
677.7655, 29.80591
678.2476, 29.92731
678.7297, 29.64722
679.2119, 28.96844
679.6940, 27.88733
680.1761, 26.23657
680.6582, 23.96875
681.1403, 21.67468
681.6224, 19.72675
682.1046, 18.12115
682.5867, 16.99969
683.0688, 16.42731
683.5509, 15.82751
684.0330, 14.73035
684.5151, 13.43140
684.9973, 12.21857
685.4794, 11.12524
685.9615, 10.15997
686.4436, 9.255432
686.9257, 8.510864
687.4078, 8.085938
687.8900, 8.138184
688.3721, 8.078003
688.8542, 7.739807
689.3363, 7.357178
689.8184, 7.492310
690.3005, 8.096863
690.7827, 8.590210
691.2648, 8.644714
691.7469, 8.578979
692.2290, 8.764771
692.7111, 9.195374
693.1932, 9.844482
693.6754, 10.63861
694.1575, 11.68152
694.6396, 13.08917
695.1217, 14.82904
695.6038, 16.63654
696.0859, 18.58411
696.5681, 20.40955
697.0502, 21.91266
697.5323, 23.06506
698.0144, 24.69104
698.4965, 26.85992
698.9786, 29.26959
699.4608, 31.64709
699.9429, 34.08252
700.4250, 36.91351
700.9071, 40.18518
701.3892, 43.71289
701.8713, 47.34961
702.3535, 51.14661
702.8356, 55.15637
703.3177, 59.39471
703.7998, 63.87811
704.2819, 68.62555
704.7640, 73.64825
705.2462, 78.99890
705.7283, 84.72009
706.2104, 90.57471
706.6925, 96.57666
707.1746, 102.6779
707.6567, 108.7720
708.1389, 114.8076
708.6210, 121.1330
709.1031, 127.8797
709.5852, 134.9449
710.0673, 142.3483
710.5494, 149.8759
711.0316, 157.1133
711.5137, 164.0031
711.9958, 170.3481
712.4779, 176.1651
712.9600, 181.3976
713.4421, 185.7638
713.9243, 189.6206
714.4064, 192.1888
714.8885, 193.3966
715.3706, 193.2369
715.8527, 191.4556
716.3348, 188.1951
716.8170, 182.7780
717.2991, 174.3807
717.7812, 163.4958
718.2633, 152.8003
718.7454, 142.1823
719.2275, 131.8344
719.7097, 121.6761
720.1918, 111.7189
720.6739, 101.5957
721.1560, 91.37433
721.6381, 81.99603
722.1202, 74.35498
722.6024, 67.45502
723.0845, 60.52411
723.5666, 53.03552
724.0487, 47.13660
724.5308, 43.45892
725.0129, 40.46173
725.4951, 36.72058
725.9772, 32.12012
726.4593, 28.51892
726.9414, 26.16205
727.4235, 24.28717
727.9056, 22.05951
728.3878, 19.62445
728.8699, 17.40680
729.3520, 15.50513
729.8341, 13.80780
730.3162, 12.05548
730.7983, 10.55768
731.2805, 9.688232
731.7626, 10.24982
732.2447, 10.59668
732.7268, 10.61414
733.2089, 10.19873
733.6910, 9.062927
734.1732, 6.876160
734.6553, 5.611389
735.1374, 6.016296
735.6195, 7.215149
736.1016, 7.285217
736.5837, 6.369873
737.0659, 5.470093
737.5480, 5.202515
738.0301, 5.030884
738.5122, 4.297791
738.9943, 3.259949
739.4764, 2.590759
739.9586, 2.867126
740.4407, 3.181824
740.9228, 3.257019
741.4049, 3.125061
741.8870, 2.910034
742.3691, 2.561157
742.8513, 2.362488
743.3334, 2.385315
743.8155, 2.488708
744.2976, 2.309937
744.7797, 1.885315
745.2618, 1.557800
745.7440, 1.751160
746.2261, 2.031616
746.7082, 1.701843
747.1903, 0.8504640
747.6724, 0.4084470
748.1545, 1.174316
748.6367, 2.125732
749.1188, 2.843689
749.6009, 3.331909
750.0830, 3.118896
750.5651, 1.696167
751.0472, 0.4876100
751.5294, 0.5156860
752.0115, 1.730164
752.4936, 2.424683
752.9757, 2.581116
753.4578, 2.605225
753.9399, 2.780396
754.4221, 3.069031
754.9042, 3.480408
755.3863, 4.050781
755.8684, 4.402954
756.3505, 4.212585
756.8326, 3.833374
757.3148, 3.491882
757.7969, 3.076050
758.2790, 3.120117
758.7611, 3.797913
759.2432, 4.712402
759.7253, 5.610291
760.2075, 6.504883
760.6896, 6.935181
761.1717, 6.777954
761.6538, 6.633789
762.1359, 7.298462
762.6180, 8.405029
763.1002, 9.293274
763.5823, 9.814575
764.0644, 10.13940
764.5465, 10.16388
765.0286, 10.15228
765.5107, 10.39325
765.9929, 11.64612
766.4750, 12.02759
766.9571, 11.07849
767.4392, 9.744446
767.9213, 9.271240
768.4034, 9.694214
768.8856, 10.13293
769.3677, 10.48401
769.8498, 10.66235
770.3319, 10.47107
770.8140, 10.02655
771.2961, 9.586792
771.7783, 9.265747
772.2604, 8.876404
772.7425, 8.242554
773.2246, 7.494995
773.7067, 6.829956
774.1888, 6.219482
774.6710, 5.803223
775.1531, 5.739502
775.6352, 5.763245
776.1173, 5.341187
776.5994, 4.463562
777.0815, 3.613098
777.5637, 2.864929
778.0458, 2.282043
778.5279, 1.944031
779.0100, 1.840210
779.4921, 1.958069
779.9742, 2.671814
780.4564, 3.149292
780.9385, 2.803650
781.4206, 1.985046
781.9027, 1.457275
782.3848, 1.415283
782.8669, 1.428894
783.3491, 1.526855
783.8312, 1.577759
784.3133, 1.096375
784.7954, 0.1079710
785.2775, 0.4834590
785.7596, 0.1776730
786.2418, 0.4069820
786.7239, 0.4541630
787.2060, 9.5092997E-02
787.6881, 0.3413090
788.1702, 0.7006840
788.6523, 1.124146
789.1345, 1.929871
789.6166, 2.844177
790.0987, 3.065674
790.5808, 2.274780
791.0629, 1.396423
791.5450, 0.5073850
792.0272, 0.2230220
792.5093, 0.1031490
792.9914, 1.344299
793.4735, 1.836426
793.9556, 0.9470830
794.4377, 1.099915
794.9199, 5.737854
795.4020, 11.42444
795.8841, 13.88013
796.3662, 8.051392
796.8483, 2.434814
797.3304, 0.1709590
797.8126, 0.4084470
798.2947, 0.6213990
798.7768, 0.9270020
799.2589, 0.8251950
799.7410, 6.4696997E-02
800.2231, 1.236206
800.7053, 1.182251
801.1874, 0.1091310
801.6695, 0.8209230
802.1516, 0.8392940
802.6337, 0.6368410
803.1158, 0.8500980
803.5980, 1.335449
804.0801, 1.721252
804.5622, 1.705322
805.0443, 1.769165
805.5264, 2.033081
806.0085, 2.464661
806.4907, 3.043823
806.9728, 3.869934
807.4549, 4.247681
807.9370, 3.724304
808.4191, 2.852417
808.9012, 2.833984
809.3834, 3.497498
809.8655, 4.213440
810.3476, 4.933289
810.8297, 5.358948
811.3118, 5.057007
811.7939, 4.299927
812.2761, 3.891724
812.7582, 4.282593
813.2403, 4.575928
813.7224, 4.591980
814.2045, 4.402039
814.6866, 4.179565
815.1688, 3.920593
815.6509, 3.711304
816.1330, 3.551147
816.6151, 3.490906
817.0972, 3.674255
817.5793, 4.012512
818.0615, 4.298218
818.5436, 4.166016
819.0257, 4.241272
819.5078, 5.165833
819.9899, 6.447327
820.4720, 6.663208
820.9542, 5.167419
821.4363, 4.183533
821.9184, 4.368286
822.4005, 5.143433
822.8826, 5.122559
823.3647, 4.458435
823.8469, 4.026794
824.3290, 4.413879
824.8111, 4.799377
825.2932, 4.148193
825.7753, 2.999084
826.2574, 2.415100
826.7396, 3.147461
827.2217, 3.941589
827.7038, 4.772156
828.1859, 5.446289
828.6681, 5.481384
829.1502, 4.725037
829.6323, 4.438965
830.1144, 5.059692
830.5966, 5.935303
831.0787, 5.887146
831.5608, 5.328491
832.0429, 5.331787
832.5250, 6.862061
833.0071, 8.049255
833.4893, 7.560730
833.9714, 6.257263
834.4535, 5.524475
834.9356, 5.795288
835.4177, 5.921387
835.8998, 5.740234
836.3820, 5.464111
836.8641, 5.267883
837.3462, 5.202148
837.8283, 5.876892
838.3104, 7.649292
838.7925, 9.273376
839.2747, 9.383484
839.7568, 8.630127
840.2389, 7.898499
840.7210, 7.385193
841.2031, 6.956726
841.6852, 6.495972
842.1674, 6.180786
842.6495, 6.238953
843.1316, 6.739258
843.6137, 7.180847
844.0958, 7.551575
844.5779, 7.794556
845.0601, 7.870056
845.5422, 7.760254
846.0243, 7.375549
846.5064, 6.611511
846.9885, 6.048157
847.4706, 6.049194
847.9528, 6.402832
848.4349, 7.009827
848.9170, 8.008301
849.3991, 8.757690
849.8812, 9.167664
850.3633, 9.372131
850.8455, 9.366577
851.3276, 9.230530
851.8097, 9.477905
852.2918, 10.16388
852.7739, 10.40472
853.2560, 8.902527
853.7382, 7.101990
854.2203, 6.458862
854.7024, 7.206116
855.1845, 7.948303
855.6666, 8.704102
856.1487, 9.054993
856.6309, 8.616028
857.1130, 7.433167
857.5951, 7.068481
858.0772, 7.511475
858.5593, 8.257080
859.0414, 9.130615
859.5236, 9.952698
860.0057, 10.45410
860.4878, 10.63330
860.9699, 10.76062
861.4520, 11.20276
861.9341, 11.49536
862.4163, 11.22632
862.8984, 10.53455
863.3805, 10.45020
863.8626, 11.23370
864.3447, 11.73291
864.8268, 11.29608
865.3090, 10.43689
865.7911, 10.60388
866.2732, 11.54358
866.7553, 12.19348
867.2374, 11.75598
867.7195, 11.10120
868.2017, 10.72516
868.6838, 10.53473
869.1659, 10.25073
869.6480, 9.686340
870.1301, 9.340759
870.6122, 9.444397
871.0944, 9.675354
871.5765, 9.339417
872.0586, 8.489319
872.5407, 7.432251
873.0228, 6.175476
873.5049, 4.986206
873.9871, 3.981018
874.4692, 3.270630
874.9513, 3.009399
875.4334, 4.103271
875.9155, 4.449524
876.3976, 3.439209
876.8798, 2.081482
877.3619, 1.549744
877.8440, 1.894226
878.3261, 2.185608
878.8082, 2.292786
879.2903, 2.422119
879.7725, 2.764160
880.2546, 3.273926
880.7367, 4.035645
881.2188, 5.226135
881.7009, 5.776001
882.1830, 4.576355
882.6652, 3.162903
883.1473, 2.664307
883.6294, 3.287415
884.1115, 3.344849
884.5936, 2.674622
885.0757, 2.294922
885.5579, 3.342041
886.0400, 5.145081
886.5221, 6.515381
887.0042, 7.375854
887.4863, 7.640503
887.9684, 6.430786
888.4506, 5.374329
888.9327, 5.535400
889.4148, 6.850708
889.8969, 8.034058
890.3790, 9.093323
890.8611, 9.932068
891.3433, 10.40063
891.8254, 10.68573
892.3075, 11.33838
892.7896, 12.28662
893.2717, 13.22388
893.7538, 14.22504
894.2360, 14.94098
894.7181, 14.76221
895.2002, 14.13269
895.6823, 14.24585
896.1644, 15.39313
896.6465, 16.82208
897.1287, 18.62909
897.6108, 20.34094
898.0929, 21.07867
898.5750, 20.92596
899.0571, 20.13275
899.5392, 18.52936
900.0214, 17.01990
900.5035, 16.66272
900.9856, 16.65271
901.4677, 16.02081
901.9498, 13.98053
902.4319, 12.40198
902.9141, 11.38916
903.3962, 10.70245
903.8783, 10.22601
904.3604, 9.921143
904.8425, 9.393616
905.3246, 8.609802
905.8068, 7.696777
906.2889, 6.492859
906.7710, 5.380493
907.2531, 4.849243
907.7352, 4.998047
908.2173, 4.760986
908.6995, 3.722473
909.1816, 2.655396
909.6637, 1.928040
910.1458, 1.469727
910.6279, 0.7399900
911.1100, 0.2381590
911.5922, 1.055359
912.0743, 1.465271
912.5564, 1.610046
913.0385, 1.481995
913.5206, 1.195557
914.0027, 1.085388
914.4849, 1.356567
914.9670, 1.685669
915.4491, 2.101868
915.9312, 2.477661
916.4133, 2.570618
916.8954, 2.379028
917.3776, 1.839844
917.8597, 0.8065800
918.3418, 0.1835330
918.8239, 0.4666750
919.3060, 0.3530270
919.7881, 0.2579960
920.2703, 0.1948850
920.7524, 0.3422850
921.2345, 0.8403320
921.7166, 1.414246
922.1987, 1.883545
922.6808, 2.251038
923.1630, 2.284790
923.6451, 1.944275
924.1272, 1.700256
924.6093, 1.968567
925.0914, 2.543335
925.5735, 3.260925
926.0557, 4.088196
926.5378, 4.852417
927.0199, 5.923096
927.5020, 6.415466
927.9841, 5.825073
928.4662, 4.379333
928.9484, 3.432190
929.4305, 2.979126
929.9126, 2.724792
930.3947, 2.566223
930.8768, 2.507568
931.3589, 2.686157
931.8411, 2.961670
932.3232, 3.004639
932.8053, 2.647339
933.2874, 2.095459
933.7695, 0.9110720
934.2516, 2.8137000E-02
934.7338, 0.9695430
935.2159, 3.906189
935.6980, 5.967468
936.1801, 6.644470
936.6622, 6.737122
937.1443, 6.784119
937.6265, 6.852661
938.1086, 6.995483
938.5907, 7.197693
939.0728, 7.559143
939.5549, 7.898254
940.0370, 8.607056
940.5192, 10.15631
941.0013, 12.45270
941.4834, 13.48303
941.9655, 13.28210
942.4476, 13.24310
942.9297, 14.49811
943.4119, 16.20551
943.8940, 17.55908
944.3761, 18.63214
944.8582, 19.86670
945.3403, 21.68451
945.8224, 23.20178
946.3046, 24.00830
946.7867, 24.59760
947.2688, 26.44592
947.7509, 29.33618
948.2330, 31.21552
948.7151, 31.13507
949.1973, 30.92328
949.6794, 32.56213
950.1615, 34.89807
950.6436, 36.49323
951.1257, 36.36487
951.6078, 36.89966
952.0900, 38.31445
952.5721, 40.10028
953.0542, 41.77563
953.5363, 43.42194
954.0184, 45.61395
954.5005, 48.33502
954.9827, 51.21179
955.4648, 53.85583
955.9469, 56.63733
956.4290, 59.94269
956.9111, 63.73450
957.3932, 67.25415
957.8754, 70.55975
958.3575, 73.36829
958.8396, 75.40570
959.3217, 77.02393
959.8038, 79.14001
960.2859, 81.54510
960.7681, 83.48425
961.2502, 84.71307
961.7323, 85.34253
962.2144, 85.40155
962.6965, 84.92804
963.1786, 83.95007
963.6608, 82.41425
964.1429, 80.55981
964.6250, 78.27380
965.1071, 76.17181
965.5892, 75.00024
966.0714, 74.48962
966.5535, 73.95978
967.0356, 73.29028
967.5177, 72.77100
967.9998, 72.62885
968.4819, 72.62549
968.9641, 72.40796
969.4462, 72.08081
969.9283, 72.81732
970.4104, 74.74182
970.8925, 76.91345
971.3746, 79.05664
971.8568, 81.12610
972.3389, 83.08289
972.8210, 84.93579
973.3031, 86.72949
973.7852, 88.78375
974.2673, 90.54822
974.7495, 91.84253
975.2316, 92.63458
975.7137, 93.09808
976.1958, 93.35724
976.6779, 92.82117
977.1600, 91.29102
977.6422, 89.34906
978.1243, 87.83722
978.6064, 85.99329
979.0885, 82.51465
979.5706, 77.24500
980.0527, 73.17865
980.5349, 71.66620
981.0170, 70.18860
981.4991, 67.95801
981.9812, 65.05621
982.4633, 61.31885
982.9454, 56.98602
983.4276, 53.59033
983.9097, 52.35620
984.3918, 51.35297
984.8739, 48.98071
985.3560, 45.99829
985.8381, 43.57684
986.3203, 41.79517
986.8024, 40.66846
987.2845, 40.41461
987.7666, 40.29480
988.2487, 39.29437
988.7308, 37.87970
989.2130, 37.35559
989.6951, 37.80621
990.1772, 38.29584
990.6593, 38.23932
991.1414, 38.14551
991.6235, 38.32562
992.1057, 38.69806
992.5878, 38.83215
993.0699, 38.64227
993.5520, 38.76227
994.0341, 39.62323
994.5162, 40.55011
994.9984, 40.42896
995.4805, 39.68658
995.9626, 39.12811
996.4447, 38.94946
996.9268, 39.11487
997.4089, 39.95917
997.8911, 40.79529
998.3732, 41.10846
998.8553, 40.90344
999.3374, 39.71729
999.8195, 37.53192
1000.302, 35.70648
1000.784, 35.84998
1001.266, 36.30933
1001.748, 35.60059
1002.230, 33.77063
1002.712, 32.18665
1003.194, 31.01843
1003.676, 29.84125
1004.159, 28.42883
1004.641, 27.05444
1005.123, 26.51093
1005.605, 26.47443
1006.087, 25.97986
1006.569, 24.70026
1007.051, 23.04700
1007.533, 20.98816
1008.016, 18.82288
1008.498, 16.78308
1008.980, 14.88684
1009.462, 13.13287
1009.944, 11.49396
1010.426, 10.18103
1010.908, 9.369080
1011.390, 8.958008
1011.872, 9.251770
1012.355, 9.926514
1012.837, 9.658142
1013.319, 6.393005
1013.801, 4.261353
1014.283, 4.491211
1014.765, 5.870300
1015.247, 6.267517
1015.729, 5.761658
1016.211, 4.815674
1016.694, 3.420593
1017.176, 2.169617
1017.658, 1.442749
1018.140, 1.168762
1018.622, 1.467590
1019.104, 2.527344
1019.586, 2.859863
1020.068, 2.288330
1020.551, 1.632690
1021.033, 1.353882
1021.515, 1.289856
1021.997, 1.145508
1022.479, 0.9090580
1022.961, 0.5322880
1023.443, 0.5646970
1023.925, 1.110229
1024.407, 0.3045650
1024.890, 0.9186400
1025.372, 1.330505
1025.854, 0.8842160
1026.336, 0.8576660
1026.818, 1.399902
1027.300, 1.988403
1027.782, 2.122070
1028.264, 2.112976
1028.746, 2.420227
1029.229, 3.055725
1029.711, 2.953308
1030.193, 1.841309
1030.675, 0.4306030
1031.157, 1.350708
1031.639, 2.936157
1032.121, 2.592712
1032.603, 0.9441530
1033.086, 5.0781000E-02
1033.568, 1.064453
1034.050, 1.782898
1034.532, 0.5535280
1035.014, 0.9413450
1035.496, 1.086792
1035.978, 0.4129640
1036.460, 1.070374
1036.943, 0.8387450
1037.425, 0.3718260
1037.907, 0.2015990
1038.389, 3.9059999E-03
1038.871, 0.6372680
1039.353, 1.625061
1039.835, 2.515015
1040.317, 3.221191
1040.799, 3.778442
1041.281, 4.170044
1041.764, 4.441284
1042.246, 4.469116
1042.728, 4.442993
1043.210, 5.193604
1043.692, 7.030518
1044.174, 8.338623
1044.656, 7.713623
1045.138, 6.707764
1045.621, 6.188232
1046.103, 6.161255
1046.585, 6.917969
1047.067, 8.532471
1047.549, 9.861450
1048.031, 10.19287
1048.513, 10.21619
1048.995, 10.72522
1049.478, 11.49463
1049.960, 12.14343
1050.442, 12.44275
1050.924, 12.81958
1051.406, 13.30786
1051.888, 13.84131
1052.370, 14.44556
1052.852, 15.06348
1053.334, 15.42334
1053.817, 15.55579
1054.299, 15.78931
1054.781, 16.56433
1055.263, 17.20374
1055.745, 17.27148
1056.227, 17.01245
1056.709, 17.08215
1057.191, 17.52124
1057.673, 17.49646
1058.156, 16.74036
1058.638, 15.82056
1059.120, 15.47559
1059.602, 15.20190
1060.084, 14.25940
1060.566, 12.30078
1061.048, 11.43298
1061.530, 12.28101
1062.013, 12.85938
1062.495, 12.12439
1062.977, 10.55383
1063.459, 8.879883
1063.941, 7.379517
1064.423, 6.879639
1064.905, 8.651733
1065.387, 10.01428
1065.870, 9.661377
1066.352, 8.864624
1066.834, 8.661011
1067.316, 9.030151
1067.798, 10.06982
1068.280, 11.81519
1068.762, 12.99414
1069.244, 11.84473
1069.726, 10.51221
1070.208, 10.92114
1070.691, 12.76050
1071.173, 14.04150
1071.655, 14.44482
1072.137, 14.90210
1072.619, 15.59900
1073.101, 16.35474
1073.583, 16.83301
1074.065, 17.28528
1074.548, 18.25366
1075.030, 19.84106
1075.512, 21.13342
1075.994, 21.87048
1076.476, 22.30762
1076.958, 22.36243
1077.440, 22.25061
1077.922, 22.84998
1078.405, 24.04565
1078.887, 25.30005
1079.369, 26.57288
1079.851, 27.60559
1080.333, 28.48047
1080.815, 28.87866
1081.297, 28.30542
1081.779, 26.44080
1082.261, 25.68311
1082.744, 26.09497
1083.226, 26.38770
1083.708, 25.49084
1084.190, 24.09412
1084.672, 22.75403
1085.154, 21.52429
1085.636, 20.56384
1086.118, 20.37756
1086.601, 19.30933
1087.083, 16.83069
1087.565, 14.21545
1088.047, 13.13391
1088.529, 13.09985
1089.011, 13.17053
1089.493, 13.21106
1089.975, 12.98853
1090.458, 11.82483
1090.940, 11.14697
1091.422, 11.65906
1091.904, 12.79932
1092.386, 12.73718
1092.868, 11.60437
1093.350, 10.30530
1093.832, 8.943115
1094.314, 7.919678
1094.797, 7.933105
1095.279, 8.239868
1095.761, 8.128296
1096.243, 7.570190
1096.725, 6.942139
1097.207, 6.213013
1097.689, 5.838989
1098.171, 6.466187
1098.653, 7.195801
1099.136, 6.754761
1099.618, 5.696411
1100.100, 5.127563
1100.582, 5.619751
1101.064, 5.939209
1101.546, 6.053589
1102.028, 5.972046
1102.510, 5.448730
1102.993, 4.813477
1103.475, 5.055298
1103.957, 6.012451
1104.439, 6.453735
1104.921, 5.065796
1105.403, 4.160278
1105.885, 4.556641
1106.367, 5.484131
1106.849, 5.545654
1107.332, 4.899048
1107.814, 4.269653
1108.296, 3.751831
1108.778, 3.564331
1109.260, 4.140503
1109.742, 4.817993
1110.224, 5.257446
1110.706, 5.438354
1111.188, 5.224976
1111.671, 4.600220
1112.153, 4.077515
1112.635, 3.702759
1113.117, 3.762085
1113.599, 5.249878
1114.081, 6.940308
1114.563, 7.117554
1115.045, 5.115356
1115.528, 4.371704
1116.010, 5.192139
1116.492, 5.986816
1116.974, 5.858032
1117.456, 5.182007
1117.938, 4.419067
1118.420, 3.604980
1118.902, 2.807251
1119.385, 1.886353
1119.867, 1.319702
1120.349, 1.334961
1120.831, 1.307007
1121.313, 0.4567870
1121.795, 0.8563230
1122.277, 1.613525
1122.759, 1.820679
1123.241, 1.744263
1123.724, 1.457275
1124.206, 0.9599610
1124.688, 0.1505130
1125.170, 0.7226560
1125.652, 1.319458
1126.134, 1.635498
1126.616, 1.591187
1127.098, 1.171875
1127.580, 0.5374760
1128.063, 0.6439210
1128.545, 1.576294
1129.027, 1.656494
1129.509, 1.080444
1129.991, 0.2935790
1130.473, 0.7315670
1130.955, 1.102051
1131.437, 0.4461670
1131.920, 0.2971190
1132.402, 0.1867680
1132.884, 0.2441410
1133.366, 0.4755860
1133.848, 0.4407960
1134.330, 0.4787600
1134.812, 0.5615230
1135.294, 0.8549800
1135.776, 1.563232
1136.259, 2.264404
1136.741, 2.330566
1137.223, 2.022583
1137.705, 1.738525
1138.187, 1.360352
1138.669, 1.552002
1139.151, 2.574707
1139.633, 3.483521
1140.115, 3.512329
1140.598, 3.054443
1141.080, 3.008301
1141.562, 3.188232
1142.044, 3.092041
1142.526, 2.235596
1143.008, 1.546997
1143.490, 1.186035
1143.972, 0.9705810
1144.455, 0.7286380
1144.937, 0.4853520
1145.419, 0.3121340
1145.901, 0.2258300
1146.383, 0.2741700
1146.865, 0.7218020
1147.347, 0.9919430
1147.829, 0.8708500
1148.312, 0.5587160
1148.794, 0.1456300
1149.276, 0.2442630
1149.758, 0.5328370
1150.240, 2.628052
1150.722, 4.224243
1151.204, 3.521606
1151.686, 2.633057
1152.168, 2.953735
1152.651, 3.931641
1153.133, 3.747681
1153.615, 2.464966
1154.097, 1.843994
1154.579, 2.405029
1155.061, 2.998779
1155.543, 2.444946
1156.025, 1.722656
1156.507, 1.700684
1156.990, 2.319824
1157.472, 3.088989
1157.954, 4.061768
1158.436, 4.456543
1158.918, 3.764771
1159.400, 3.020508
1159.882, 3.499268
1160.364, 4.382690
1160.847, 4.587769
1161.329, 3.810791
1161.811, 3.993042
1162.293, 5.276245
1162.775, 6.527588
1163.257, 7.149170
1163.739, 7.449463
1164.221, 8.036743
1164.703, 8.506470
1165.186, 8.105591
1165.668, 5.875122
1166.150, 4.770752
1166.632, 5.062500
1167.114, 5.468750
1167.596, 4.508057
1168.078, 3.415283
1168.560, 4.901123
1169.042, 7.910522
1169.525, 9.580322
1170.007, 8.388062
1170.489, 6.959351
1170.971, 5.215698
1171.453, 3.801147
1171.935, 3.437622
1172.417, 3.776367
1172.899, 4.310181
1173.382, 4.964844
1173.864, 5.428223
1174.346, 5.456177
1174.828, 5.520386
1175.310, 5.803223
1175.792, 5.932861
1176.274, 5.126343
1176.756, 3.893555
1177.239, 3.586060
1177.721, 4.237305
1178.203, 4.692383
1178.685, 3.764282
1179.167, 3.639526
1179.649, 5.265503
1180.131, 7.271240
1180.613, 6.844116
1181.095, 4.812866
1181.578, 3.567139
1182.060, 3.495728
1182.542, 3.840820
1183.024, 4.551270
1183.506, 5.235474
1183.988, 5.766602
1184.470, 6.199829
1184.952, 6.876709
1185.434, 7.505615
1185.917, 7.314697
1186.399, 6.008911
1186.881, 4.628052
1187.363, 3.064087
1187.845, 2.334595
1188.327, 3.147095
1188.809, 4.971558
1189.291, 6.151855
1189.774, 6.684692
1190.256, 6.746216
1190.738, 6.263672
1191.220, 5.660522
1191.702, 4.554443
1192.184, 4.010620
1192.666, 4.961426
1193.148, 7.076416
1193.630, 8.144531
1194.113, 8.279541
1194.595, 8.168213
1195.077, 8.153564
1195.559, 7.838989
1196.041, 6.491455
1196.523, 5.248169
1197.005, 5.105835
1197.487, 5.985840
1197.969, 6.611572
1198.452, 6.950073
1198.934, 6.818848
1199.416, 5.891968
1199.898, 4.761475
1200.380, 3.355713
1200.862, 2.149780
1201.344, 1.560547
1201.826, 1.591064
1202.309, 2.575073
1202.791, 4.399048
1203.273, 5.638184
1203.755, 4.909790
1204.237, 4.049072
1204.719, 3.797974
1205.201, 4.034180
1205.683, 4.818115
1206.166, 6.100708
1206.648, 6.821289
1207.130, 6.906860
1207.612, 6.410522
1208.094, 4.229492
1208.576, 2.610718
1209.058, 3.436768
1209.540, 5.211670
1210.022, 5.948730
1210.505, 5.685547
1210.987, 4.861206
1211.469, 3.533081
1211.951, 2.613892
1212.433, 3.128662
1212.915, 3.814575
1213.397, 3.988770
1213.879, 3.872925
1214.361, 3.771851
1214.844, 3.687378
1215.326, 3.586792
1215.808, 3.464600
1216.290, 3.289307
1216.772, 2.787598
1217.254, 2.487183
1217.736, 2.858521
1218.218, 3.571289
1218.701, 3.982788
1219.183, 4.162842
1219.665, 4.052368
1220.147, 3.605103
1220.629, 3.430908
1221.111, 4.224365
1221.593, 5.091553
1222.075, 5.672729
1222.557, 5.917725
1223.040, 5.479492
1223.522, 4.497314
1224.004, 4.140381
1224.486, 4.715332
1224.968, 5.033081
1225.450, 3.947510
1225.932, 2.871094
1226.414, 2.607666
1226.896, 2.879272
1227.379, 2.855591
1227.861, 2.580811
1228.343, 2.218872
1228.825, 1.750122
1229.307, 1.557129
1229.789, 2.196533
1230.271, 2.790161
1230.753, 2.826172
1231.236, 2.512573
1231.718, 2.579590
1232.200, 2.914551
1232.682, 3.068481
1233.164, 2.918701
1233.646, 2.611572
1234.128, 1.950928
1234.610, 1.463623
1235.093, 1.526978
1235.575, 1.881592
1236.057, 1.585938
1236.539, 0.8320310
1237.021, 0.1971440
1237.503, 0.1997070
1237.985, 0.2233890
1238.467, 0.4456790
1238.949, 1.111694
1239.432, 1.434082
1239.914, 1.558838
1240.396, 2.170044
1240.878, 2.912598
1241.360, 2.590698
1241.842, 0.2352290
1242.324, 1.121460
1242.806, 0.2756350
1243.288, 0.7833250
1243.771, 1.157715
1244.253, 1.047241
1244.735, 0.8061520
1245.217, 0.6107180
1245.699, 0.8820800
1246.181, 2.035645
1246.663, 2.807373
1247.145, 3.010010
1247.628, 2.967773
1248.110, 2.660278
1248.592, 2.411743
1249.074, 3.436035
1249.556, 4.878296
1250.038, 4.988525
1250.520, 2.363525
1251.002, 0.8621830
1251.484, 0.8416750
1251.967, 1.296631
1252.449, 1.672974
1252.931, 2.091553
1253.413, 2.949341
1253.895, 3.951660
1254.377, 4.521484
1254.859, 4.330688
1255.341, 4.282471
1255.823, 4.405518
1256.306, 4.481445
1256.788, 4.295654
1257.270, 4.082031
1257.752, 4.273560
1258.234, 4.571655
1258.716, 4.425537
1259.198, 3.607422
1259.680, 3.447021
1260.163, 4.078247
1260.645, 4.220581
1261.127, 2.472656
1261.609, 0.7946780
1262.091, 1.459961
1262.573, 3.037964
1263.055, 3.520264
1263.537, 2.704712
1264.020, 1.813599
1264.502, 0.8430180
1264.984, 0.3022460
1265.466, 0.4256590
1265.948, 1.140625
1266.430, 3.150757
1266.912, 5.153442
1267.394, 5.604614
1267.876, 4.445435
1268.359, 3.603027
1268.841, 3.071045
1269.323, 2.848755
1269.805, 3.519165
1270.287, 3.819336
1270.769, 2.639404
1271.251, 1.296143
1271.733, 0.7609860
1272.215, 1.143188
1272.698, 1.390137
1273.180, 1.468018
1273.662, 1.301880
1274.144, 0.6776120
1274.626, 1.4160000E-02
1275.108, 1.014282
1275.590, 1.434814
1276.072, 8.4839001E-02
1276.555, 2.707031
1277.037, 3.475586
1277.519, 2.809937
1278.001, 2.006348
1278.483, 1.107666
1278.965, 0.8167720
1279.447, 1.316895
1279.929, 1.969727
1280.411, 1.981567
1280.894, 1.974121
1281.376, 3.698608
1281.858, 6.248901
1282.340, 7.541626
1282.822, 6.441650
1283.304, 5.428955
1283.786, 4.548462
1284.268, 3.886841
1284.750, 3.381348
1285.233, 3.251343
1285.715, 4.260132
1286.197, 5.608643
1286.679, 5.736328
1287.161, 4.016846
1287.643, 3.974365
1288.125, 5.346680
1288.607, 5.884888
1289.090, 3.658569
1289.572, 1.337769
1290.054, 0.9307860
1290.536, 1.909668
1291.018, 3.777710
1291.500, 6.619019
1291.982, 6.847534
1292.464, 4.757813
1292.947, 3.112427
1293.429, 4.272461
1293.911, 4.940918
1294.393, 2.954224
1294.875, 0.6922610
1295.357, 0.1278080
1295.839, 0.2073970
1296.321, 0.6069340
1296.803, 1.042236
1297.286, 1.301270
1297.768, 1.074219
1298.250, 0.7459720
1298.732, 1.250854
1299.214, 1.687012
1299.696, 0.9935300
1300.178, 3.5399999E-03
1300.660, 0.0000000E+00
##END=



