##NAMES=Axinite-(Mn)
##RRUFFID=R160079
##IDEAL CHEMISTRY=Ca_4_Mn^2+^_2_Al_4_[B_2_Si_8_O_30_](OH)_2_
##LOCALITY=Huachuca Mountains, Cochise County, Arizona, USA
##OWNER=RRUFF
##SOURCE=Carl Richardson
##DESCRIPTION=Orange-yellow aggregates of flattened crystals on quartz. This sample was donated to UAMM as tinzenite (#13189). X-ray diffraction data show that it is axinite-(Mn).
##STATUS=The identification of this mineral has been confirmed only by single crystal X-ray diffraction.
##URL=rruff.info/R160079
93.36774, 0.0000000E+00
93.84985, 5.371094
94.33197, 5.800110
94.81409, 5.785492
95.29620, 4.490814
95.77832, 3.491425
96.26044, 2.515991
96.74255, 1.691772
97.22467, 1.268616
97.70679, 0.6460270
98.18890, 0.2885740
98.67102, 0.5338750
99.15314, 1.103699
99.63525, 1.734436
100.1174, 2.198578
100.5995, 2.578888
101.0816, 3.702850
101.5637, 6.388855
102.0458, 8.938080
102.5280, 11.28683
103.0101, 13.62811
103.4922, 15.85596
103.9743, 17.95605
104.4564, 20.06219
104.9385, 22.45853
105.4207, 25.34201
105.9028, 28.79715
106.3849, 32.34930
106.8670, 35.48969
107.3491, 37.64465
107.8312, 38.54828
108.3134, 38.60963
108.7955, 38.40221
109.2776, 38.14709
109.7597, 37.37692
110.2418, 35.63257
110.7239, 32.73988
111.2061, 29.27882
111.6882, 25.56787
112.1703, 21.68837
112.6524, 18.26144
113.1345, 15.77896
113.6166, 14.14018
114.0988, 12.39801
114.5809, 10.26205
115.0630, 8.089844
115.5451, 6.080231
116.0272, 4.336929
116.5093, 2.829208
116.9915, 1.494263
117.4736, 0.2974090
117.9557, 0.6044460
118.4378, 1.216690
118.9199, 1.589310
119.4020, 1.732315
119.8842, 1.655304
120.3663, 1.389389
120.8484, 0.9512330
121.3305, 0.1397860
121.8126, 0.6714320
122.2947, 1.657532
122.7769, 2.588486
123.2590, 3.058029
123.7411, 2.767792
124.2232, 1.945755
124.7053, 1.698578
125.1874, 2.047012
125.6696, 2.623642
126.1517, 3.398651
126.6338, 4.361984
127.1159, 5.444382
127.5980, 6.621948
128.0801, 7.792419
128.5623, 8.795013
129.0444, 9.569427
129.5265, 10.16125
130.0086, 10.64432
130.4907, 11.03362
130.9728, 11.22211
131.4550, 10.87039
131.9371, 10.31221
132.4192, 10.04543
132.9013, 10.32521
133.3834, 11.03453
133.8655, 11.80986
134.3477, 12.55652
134.8298, 13.58496
135.3119, 14.91649
135.7940, 16.56200
136.2761, 18.54138
136.7582, 20.91716
137.2404, 23.68646
137.7225, 26.58716
138.2046, 30.05937
138.6867, 33.24226
139.1688, 35.97302
139.6509, 38.16765
140.1331, 39.79825
140.6152, 40.85643
141.0973, 41.41811
141.5794, 40.83434
142.0615, 38.58661
142.5436, 35.83781
143.0258, 32.99820
143.5079, 30.25139
143.9900, 27.92351
144.4721, 26.51698
144.9542, 26.47810
145.4363, 26.33524
145.9185, 26.36591
146.4006, 26.12938
146.8827, 25.02936
147.3648, 22.82834
147.8469, 20.01865
148.3290, 17.26030
148.8112, 14.49364
149.2933, 11.99127
149.7754, 9.929672
150.2575, 8.224762
150.7396, 6.592407
151.2217, 5.604279
151.7039, 4.667709
152.1860, 3.860657
152.6681, 3.170197
153.1502, 2.646652
153.6323, 2.409988
154.1144, 2.480484
154.5966, 2.419250
155.0787, 1.772705
155.5608, 1.170090
156.0429, 1.126953
156.5250, 1.764648
157.0071, 2.687897
157.4893, 3.366745
157.9714, 3.761749
158.4535, 3.982697
158.9356, 4.098145
159.4177, 4.071030
159.8998, 3.750137
160.3820, 3.088684
160.8641, 2.327133
161.3462, 2.074646
161.8283, 2.889999
162.3104, 3.450272
162.7925, 3.405930
163.2747, 3.137711
163.7568, 3.036682
164.2389, 3.300415
164.7210, 3.874283
165.2031, 4.542175
165.6852, 5.334656
166.1674, 6.199493
166.6495, 7.147461
167.1316, 8.178207
167.6137, 9.280792
168.0958, 10.45407
168.5779, 11.70261
169.0601, 13.01958
169.5422, 14.64700
170.0243, 16.03174
170.5064, 16.90544
170.9885, 17.33328
171.4706, 17.58093
171.9528, 17.81532
172.4349, 17.95439
172.9170, 17.82454
173.3991, 17.50903
173.8812, 16.88426
174.3633, 15.71082
174.8455, 13.96622
175.3276, 12.18663
175.8097, 10.69115
176.2918, 9.401901
176.7739, 8.168396
177.2560, 6.934128
177.7382, 5.801697
178.2203, 4.955460
178.7024, 4.479309
179.1845, 4.093170
179.6666, 3.622009
180.1487, 3.125000
180.6309, 2.672119
181.1130, 2.257065
181.5951, 1.899139
182.0772, 1.674408
182.5593, 1.658188
183.0414, 1.707794
183.5236, 1.712448
184.0057, 1.749237
184.4878, 1.952911
184.9699, 2.452591
185.4520, 3.168991
185.9341, 3.593811
186.4163, 3.248581
186.8984, 3.133194
187.3805, 3.499908
187.8626, 4.248383
188.3447, 5.187653
188.8268, 6.193665
189.3090, 7.262482
189.7911, 8.458115
190.2732, 10.08917
190.7553, 11.54372
191.2374, 12.65855
191.7195, 13.46539
192.2017, 14.10580
192.6838, 14.71721
193.1659, 15.32649
193.6480, 15.28212
194.1301, 14.07318
194.6122, 12.86824
195.0944, 12.22697
195.5765, 12.05705
196.0586, 11.88408
196.5407, 11.27666
197.0228, 10.22031
197.5049, 9.691574
197.9871, 9.858444
198.4692, 10.34164
198.9513, 10.96896
199.4334, 11.71581
199.9155, 12.56635
200.3976, 13.54616
200.8798, 14.64214
201.3619, 15.64919
201.8440, 16.33766
202.3261, 17.07234
202.8082, 18.26892
203.2903, 19.96262
203.7725, 21.66867
204.2546, 23.00047
204.7367, 24.03333
205.2188, 24.96463
205.7009, 25.68326
206.1830, 26.37201
206.6652, 27.34828
207.1473, 28.71167
207.6294, 29.99171
208.1115, 30.86073
208.5936, 31.43794
209.0757, 31.86945
209.5579, 32.29967
210.0400, 32.57407
210.5221, 32.33635
211.0042, 31.43254
211.4863, 30.34969
211.9685, 29.34195
212.4506, 28.32988
212.9327, 27.18367
213.4148, 25.78970
213.8969, 24.24297
214.3790, 22.86737
214.8612, 21.84969
215.3433, 20.67476
215.8254, 19.09842
216.3075, 17.30101
216.7896, 15.51132
217.2717, 13.85864
217.7539, 12.31567
218.2360, 10.79829
218.7181, 9.263336
219.2002, 7.830048
219.6823, 6.510376
220.1644, 5.314011
220.6466, 4.268829
221.1287, 3.404160
221.6108, 2.695892
222.0929, 2.014847
222.5750, 1.376389
223.0571, 0.7546540
223.5393, 5.9218999E-02
224.0214, 0.6023100
224.5035, 1.039413
224.9856, 1.115891
225.4677, 0.9171300
225.9498, 0.9840090
226.4320, 1.802917
226.9141, 2.359451
227.3962, 2.322327
227.8783, 1.939087
228.3604, 1.620117
228.8425, 1.613098
229.3247, 1.835403
229.8068, 1.799347
230.2889, 1.199707
230.7710, 0.7103580
231.2531, 0.5508120
231.7352, 0.5894170
232.2174, 0.5932160
232.6995, 0.4398350
233.1816, 0.1586000
233.6637, 0.1287080
234.1458, 0.4219510
234.6279, 0.7211460
235.1101, 1.050659
235.5922, 1.385376
236.0743, 1.667084
236.5564, 1.856506
237.0385, 1.993195
237.5206, 2.202087
238.0028, 2.513565
238.4849, 2.831711
238.9670, 3.100693
239.4491, 3.351395
239.9312, 3.654251
240.4133, 4.033829
240.8955, 4.490814
241.3776, 5.047073
241.8597, 5.761276
242.3418, 6.412796
242.8239, 6.907043
243.3060, 7.266815
243.7882, 7.541672
244.2703, 7.718018
244.7524, 7.848648
245.2345, 8.040482
245.7166, 8.321899
246.1987, 8.534164
246.6809, 8.528107
247.1630, 8.376907
247.6451, 8.300858
248.1272, 8.304443
248.6093, 8.505051
249.0914, 9.069885
249.5736, 9.996384
250.0557, 10.93484
250.5378, 11.63539
251.0199, 12.16991
251.5020, 12.86443
251.9841, 13.89796
252.4663, 14.94330
252.9484, 15.74631
253.4305, 16.31689
253.9126, 16.74579
254.3947, 17.10593
254.8768, 17.37384
255.3590, 17.45126
255.8411, 17.34245
256.3232, 16.99644
256.8053, 16.27730
257.2874, 15.29231
257.7695, 14.43025
258.2516, 13.96674
258.7338, 13.84041
259.2159, 13.74501
259.6980, 13.68723
260.1801, 13.64224
260.6622, 13.56288
261.1443, 13.48184
261.6265, 13.47023
262.1086, 13.56485
262.5907, 13.76270
263.0728, 14.07387
263.5549, 14.62874
264.0370, 15.09180
264.5192, 15.24184
265.0013, 15.23491
265.4834, 15.33362
265.9655, 15.71251
266.4476, 16.27922
266.9297, 16.71217
267.4119, 16.96428
267.8940, 17.14284
268.3761, 17.13318
268.8582, 17.12671
269.3403, 17.38515
269.8224, 18.06230
270.3046, 19.01099
270.7867, 19.82655
271.2688, 20.44119
271.7509, 21.03528
272.2330, 21.71225
272.7151, 22.36652
273.1973, 22.89709
273.6794, 23.26324
274.1615, 23.49771
274.6436, 23.68460
275.1257, 23.89717
275.6078, 23.89389
276.0900, 23.68343
276.5721, 23.27077
277.0542, 22.62425
277.5363, 21.74345
278.0184, 20.71460
278.5005, 19.67738
278.9827, 18.60388
279.4648, 17.59215
279.9469, 16.59796
280.4290, 15.68623
280.9111, 14.89728
281.3932, 14.24152
281.8754, 13.69961
282.3575, 13.25513
282.8396, 12.87117
283.3217, 12.77974
283.8038, 13.13867
284.2859, 13.56807
284.7681, 13.97488
285.2502, 14.33076
285.7323, 14.56059
286.2144, 14.52148
286.6965, 14.10106
287.1786, 13.96634
287.6608, 14.50792
288.1429, 14.98785
288.6250, 15.10472
289.1071, 14.86723
289.5892, 14.42523
290.0714, 13.88899
290.5535, 13.26530
291.0356, 12.63742
291.5177, 11.83060
291.9998, 11.19582
292.4819, 10.85974
292.9641, 10.76672
293.4462, 10.80963
293.9283, 10.92609
294.4104, 11.11018
294.8925, 11.32541
295.3746, 11.48308
295.8568, 11.77817
296.3389, 12.26198
296.8210, 12.89394
297.3031, 13.66211
297.7852, 14.56757
298.2673, 15.51985
298.7495, 16.24017
299.2316, 16.41994
299.7137, 16.74895
300.1958, 17.34767
300.6779, 18.07057
301.1600, 18.81316
301.6422, 19.52063
302.1243, 20.15331
302.6064, 20.64842
303.0885, 20.86861
303.5706, 21.23907
304.0527, 21.93443
304.5349, 22.65283
305.0170, 23.18184
305.4991, 23.46750
305.9812, 23.55609
306.4633, 23.50174
306.9454, 23.27414
307.4276, 23.05403
307.9097, 22.87859
308.3918, 22.64752
308.8739, 22.20984
309.3560, 21.65276
309.8381, 21.26057
310.3203, 21.27841
310.8024, 21.72043
311.2845, 22.17732
311.7666, 22.51608
312.2487, 23.00839
312.7308, 23.79828
313.2130, 24.82582
313.6951, 25.95636
314.1772, 27.10931
314.6593, 28.28656
315.1414, 29.45630
315.6235, 30.24840
316.1057, 31.46227
316.5878, 33.40242
317.0699, 35.79735
317.5520, 38.34506
318.0341, 40.90752
318.5162, 43.42657
318.9984, 45.73502
319.4805, 48.11574
319.9626, 49.83612
320.4447, 50.75348
320.9268, 51.10152
321.4089, 51.14182
321.8911, 50.92551
322.3732, 50.23676
322.8553, 48.70131
323.3374, 45.92180
323.8195, 43.24106
324.3016, 40.61101
324.7838, 38.11842
325.2659, 35.82401
325.7480, 33.72664
326.2301, 31.81613
326.7122, 30.05379
327.1943, 28.42439
327.6765, 27.15187
328.1586, 26.58330
328.6407, 25.97845
329.1228, 24.92627
329.6049, 23.60893
330.0870, 22.46193
330.5692, 21.78249
331.0513, 21.52356
331.5334, 21.33678
332.0155, 21.19666
332.4976, 21.16351
332.9797, 21.16974
333.4619, 21.31456
333.9440, 21.75133
334.4261, 22.55078
334.9082, 23.59709
335.3904, 24.63918
335.8725, 25.80162
336.3546, 26.74057
336.8367, 27.24538
337.3188, 27.67035
337.8009, 28.37158
338.2831, 29.38977
338.7652, 30.42676
339.2473, 31.09532
339.7294, 31.37167
340.2115, 31.32590
340.6936, 30.96846
341.1758, 30.33063
341.6579, 29.32822
342.1400, 28.03130
342.6221, 26.64203
343.1042, 25.33664
343.5863, 24.11401
344.0685, 22.75359
344.5506, 20.95049
345.0327, 19.32584
345.5148, 18.12810
345.9969, 17.18295
346.4790, 16.19113
346.9612, 14.96768
347.4433, 13.65359
347.9254, 12.68465
348.4075, 12.29408
348.8896, 11.90308
349.3717, 11.44492
349.8539, 10.94443
350.3360, 10.44063
350.8181, 9.943024
351.3002, 9.382782
351.7823, 8.609909
352.2644, 7.499298
352.7466, 6.592926
353.2287, 6.188675
353.7108, 5.767273
354.1929, 4.976700
354.6750, 3.872238
355.1571, 2.808105
355.6393, 2.118683
356.1214, 1.798370
356.6035, 1.449890
357.0856, 1.070496
357.5677, 0.6665040
358.0498, 0.1555940
358.5320, 0.3643800
359.0141, 0.7116390
359.4962, 0.7483060
359.9783, 0.6070710
360.4604, 0.6494900
360.9425, 0.9575810
361.4247, 1.263016
361.9068, 1.553070
362.3889, 1.772385
362.8710, 1.834488
363.3531, 1.711945
363.8352, 1.538635
364.3174, 1.509460
364.7995, 1.651764
365.2816, 1.654144
365.7637, 1.310776
366.2458, 0.9446260
366.7279, 0.7962800
367.2101, 0.8416750
367.6922, 0.8669280
368.1743, 0.6949620
368.6564, 0.3711240
369.1385, 0.1031040
369.6206, 9.4192997E-02
370.1028, 0.2520750
370.5849, 0.3814240
371.0670, 0.4890440
371.5491, 0.5739900
372.0312, 0.5765990
372.5133, 0.6168210
372.9955, 0.9424130
373.4776, 1.596390
373.9597, 2.106003
374.4418, 2.170166
374.9239, 2.037888
375.4060, 2.026443
375.8882, 2.181458
376.3703, 2.369095
376.8524, 2.498276
377.3345, 2.582825
377.8166, 2.671066
378.2987, 2.753891
378.7809, 2.881851
379.2630, 3.100632
379.7451, 3.403168
380.2272, 3.802231
380.7093, 4.306534
381.1914, 4.906372
381.6736, 5.590149
382.1557, 6.352951
382.6378, 7.214890
383.1199, 8.274559
383.6020, 9.443558
384.0841, 10.35858
384.5663, 10.89175
385.0484, 11.29343
385.5305, 11.70045
386.0126, 12.09221
386.4947, 12.39347
386.9768, 12.55518
387.4590, 12.64600
387.9411, 12.87336
388.4232, 13.43803
388.9053, 13.55852
389.3874, 12.46255
389.8695, 11.13660
390.3517, 10.96425
390.8338, 12.14735
391.3159, 13.39195
391.7980, 13.33279
392.2801, 11.76464
392.7622, 10.49599
393.2444, 9.579681
393.7265, 8.881691
394.2086, 8.431213
394.6907, 8.150764
395.1728, 7.848312
395.6549, 7.404678
396.1371, 6.882469
396.6192, 6.550270
397.1013, 6.638794
397.5834, 6.635017
398.0655, 6.388557
398.5476, 6.091408
399.0298, 5.914658
399.5119, 5.912216
399.9940, 6.072479
400.4761, 6.434593
400.9582, 7.183540
401.4403, 7.473373
401.9225, 6.890923
402.4046, 6.292809
402.8867, 6.030266
403.3688, 6.084473
403.8509, 6.300400
404.3330, 6.582733
404.8152, 6.933075
405.2973, 7.346535
405.7794, 7.761024
406.2615, 8.249672
406.7436, 8.903458
407.2257, 9.655701
407.7079, 10.43106
408.1900, 11.21025
408.6721, 12.02209
409.1542, 12.89429
409.6363, 13.82425
410.1184, 14.86837
410.6006, 16.13471
411.0827, 17.43130
411.5648, 18.67908
412.0469, 19.87768
412.5290, 21.04213
413.0111, 22.27710
413.4933, 23.47187
413.9754, 24.25993
414.4575, 24.59537
414.9396, 24.64172
415.4217, 24.24155
415.9038, 23.67541
416.3860, 23.27981
416.8681, 23.19468
417.3502, 23.14042
417.8323, 22.81836
418.3144, 22.24939
418.7965, 21.70293
419.2787, 21.25491
419.7608, 20.84026
420.2429, 20.38398
420.7250, 19.90006
421.2071, 19.45543
421.6892, 19.00923
422.1714, 18.63446
422.6535, 18.53660
423.1356, 18.74055
423.6177, 18.78495
424.0998, 18.20029
424.5819, 17.20409
425.0641, 16.79407
425.5462, 17.39960
426.0283, 18.04971
426.5104, 18.27518
426.9925, 18.26293
427.4746, 18.39601
427.9568, 18.81096
428.4389, 19.32352
428.9210, 19.67725
429.4031, 19.85637
429.8852, 19.85966
430.3673, 19.61024
430.8495, 19.25394
431.3316, 18.87186
431.8137, 18.46807
432.2958, 18.02288
432.7779, 17.52901
433.2600, 16.97465
433.7422, 16.27799
434.2243, 15.22875
434.7064, 14.28269
435.1885, 13.50616
435.6706, 12.85623
436.1527, 12.27752
436.6349, 11.75661
437.1170, 11.34101
437.5991, 11.08493
438.0812, 10.96737
438.5633, 11.09001
439.0454, 11.75556
439.5276, 12.37812
440.0097, 12.68640
440.4918, 12.76440
440.9739, 12.85660
441.4560, 13.13982
441.9381, 13.50397
442.4203, 13.61241
442.9024, 13.38250
443.3845, 13.11668
443.8666, 12.98717
444.3487, 12.81259
444.8308, 12.45913
445.3130, 11.90381
445.7951, 11.14488
446.2772, 10.07288
446.7593, 8.760498
447.2414, 7.598640
447.7235, 6.660210
448.2057, 5.822395
448.6878, 4.965103
449.1699, 4.127434
449.6520, 3.443489
450.1341, 2.980972
450.6162, 2.647987
451.0984, 2.411118
451.5805, 2.250572
452.0626, 2.028664
452.5447, 1.656975
453.0268, 1.240417
453.5089, 0.9873890
453.9911, 0.9032820
454.4732, 0.8778080
454.9553, 0.9653700
455.4374, 1.053856
455.9195, 1.013481
456.4016, 0.8373260
456.8838, 0.6195220
457.3659, 0.4313280
457.8480, 0.2703860
458.3301, 8.5074998E-02
458.8122, 0.2286300
459.2943, 0.4421310
459.7765, 0.4258960
460.2586, 0.2980190
460.7407, 0.1993790
461.2228, 0.2287670
461.7049, 0.3383480
462.1870, 0.5066600
462.6692, 0.8301390
463.1513, 0.7955860
463.6334, 1.8608000E-02
464.1155, 0.6932300
464.5976, 0.8927150
465.0797, 0.7266920
465.5619, 0.6080090
466.0440, 0.8008960
466.5261, 1.205109
467.0082, 1.516548
467.4903, 1.693825
467.9724, 1.896141
468.4546, 2.227036
468.9367, 2.559860
469.4188, 2.767677
469.9009, 2.845047
470.3830, 2.942696
470.8651, 3.278725
471.3473, 3.726936
471.8294, 3.784348
472.3115, 3.276260
472.7936, 2.831573
473.2757, 2.992226
473.7578, 3.477859
474.2400, 3.761406
474.7221, 3.665558
475.2042, 3.520035
475.6863, 3.456398
476.1684, 3.516357
476.6505, 3.862808
477.1327, 4.580803
477.6148, 5.441658
478.0969, 6.190010
478.5790, 6.813904
479.0611, 7.353279
479.5432, 7.830620
480.0254, 8.204315
480.5075, 8.426994
480.9896, 8.522980
481.4717, 8.548294
481.9538, 8.526802
482.4359, 8.483398
482.9181, 8.498795
483.4002, 8.880089
483.8823, 8.844452
484.3644, 8.105095
484.8465, 7.177956
485.3286, 6.378685
485.8108, 5.759567
486.2929, 5.259468
486.7750, 4.844658
487.2571, 4.504066
487.7392, 4.120659
488.2213, 3.649162
488.7035, 3.208122
489.1856, 2.777130
489.6677, 2.412491
490.1498, 2.195282
490.6319, 2.143730
491.1140, 2.138519
491.5962, 2.024460
492.0783, 1.828751
492.5604, 1.806389
493.0425, 2.065872
493.5246, 2.338493
494.0067, 2.445969
494.4889, 2.420097
494.9710, 2.298553
495.4531, 1.931671
495.9352, 1.655624
496.4173, 1.831230
496.8994, 2.343292
497.3816, 2.765099
497.8637, 2.944557
498.3458, 3.007668
498.8279, 3.103508
499.3100, 3.211006
499.7921, 3.479858
500.2743, 4.126549
500.7564, 4.758904
501.2385, 5.100700
501.7206, 5.199341
502.2027, 5.210831
502.6848, 5.211082
503.1670, 5.245361
503.6491, 5.458008
504.1312, 6.031006
504.6133, 6.489937
505.0954, 6.742836
505.5775, 6.950584
506.0597, 7.256180
506.5418, 7.635017
507.0239, 7.928802
507.5060, 7.984352
507.9881, 7.865257
508.4702, 7.907501
508.9524, 8.250694
509.4345, 8.437035
509.9166, 8.274849
510.3987, 7.914696
510.8808, 7.443199
511.3629, 6.874069
511.8451, 6.299698
512.3271, 5.833366
512.8093, 5.416397
513.2914, 4.854889
513.7735, 4.098740
514.2556, 3.374557
514.7377, 2.830231
515.2198, 2.449654
515.7020, 2.147110
516.1841, 2.069763
516.6662, 1.844505
517.1483, 1.056374
517.6304, 0.1002350
518.1125, 0.2916490
518.5947, 4.2908002E-02
519.0768, 0.5136260
519.5589, 0.4668880
520.0410, 0.1730580
520.5231, 0.6596680
521.0052, 1.024193
521.4874, 1.145660
521.9695, 0.8909760
522.4516, 0.4718700
522.9337, 0.1683430
523.4158, 8.3480999E-02
523.8979, 0.1303250
524.3801, 0.1883390
524.8622, 0.2528920
525.3443, 0.3511890
525.8264, 0.5394060
526.3085, 0.6997990
526.7906, 0.8454820
527.2728, 0.9193340
527.7549, 0.7993770
528.2370, 0.3879470
528.7191, 0.1290740
529.2012, 0.5411220
529.6833, 0.8494340
530.1655, 1.071625
530.6476, 1.200890
531.1297, 1.262535
531.6118, 1.236450
532.0939, 1.140137
532.5760, 1.132111
533.0582, 1.302361
533.5403, 1.521767
534.0224, 1.702858
534.5045, 1.850922
534.9866, 1.968170
535.4688, 2.043785
535.9509, 2.159691
536.4330, 2.481407
536.9151, 3.141327
537.3972, 3.694710
537.8793, 4.189842
538.3615, 4.547165
538.8436, 4.605621
539.3257, 4.494812
539.8078, 4.515137
540.2899, 4.846687
540.7720, 5.335396
541.2542, 5.600479
541.7363, 5.542183
542.2184, 5.593422
542.7005, 5.936714
543.1826, 6.307755
543.6647, 6.559418
544.1469, 6.702507
544.6290, 6.820404
545.1111, 6.946663
545.5932, 7.077278
546.0753, 7.257828
546.5574, 7.480827
547.0396, 7.509109
547.5217, 7.175911
548.0038, 6.712601
548.4859, 6.479721
548.9680, 6.481880
549.4501, 6.542274
549.9323, 6.638115
550.4144, 6.774002
550.8965, 6.975822
551.3786, 7.224487
551.8607, 7.463089
552.3428, 7.661827
552.8250, 7.829002
553.3071, 7.980721
553.7892, 8.077988
554.2713, 8.234688
554.7534, 8.429131
555.2355, 8.693817
555.7177, 9.151436
556.1998, 9.698502
556.6819, 10.07720
557.1640, 10.11535
557.6461, 9.932434
558.1282, 9.777763
558.6104, 9.658226
559.0925, 9.519623
559.5746, 9.357368
560.0567, 9.159660
560.5388, 8.896385
561.0209, 8.581146
561.5031, 8.302765
561.9852, 8.094421
562.4673, 7.940712
562.9494, 7.851837
563.4315, 7.811615
563.9136, 7.736237
564.3958, 7.578979
564.8779, 7.404579
565.3600, 7.316917
565.8421, 7.320999
566.3242, 7.421028
566.8063, 7.749184
567.2885, 8.046593
567.7706, 8.155235
568.2527, 8.121826
568.7348, 8.046936
569.2169, 7.976357
569.6990, 7.932091
570.1812, 7.965118
570.6633, 8.094025
571.1454, 8.231720
571.6275, 8.398689
572.1096, 8.542862
572.5917, 8.660019
573.0739, 8.734879
573.5560, 8.721016
574.0381, 8.551720
574.5202, 8.375839
575.0023, 8.464172
575.4844, 8.727043
575.9666, 8.612938
576.4487, 7.929672
576.9308, 7.216232
577.4129, 7.089493
577.8950, 7.549675
578.3771, 7.821793
578.8593, 7.819557
579.3414, 7.732010
579.8235, 7.609818
580.3056, 7.503502
580.7877, 7.441437
581.2698, 7.427002
581.7520, 7.505020
582.2341, 7.776520
582.7162, 8.284164
583.1984, 8.579163
583.6805, 8.501183
584.1626, 8.389366
584.6447, 8.316757
585.1268, 8.278885
585.6089, 8.295647
586.0911, 8.388626
586.5732, 8.473610
587.0553, 8.508209
587.5374, 8.449692
588.0195, 8.081581
588.5016, 7.326775
588.9838, 6.569252
589.4659, 6.084808
589.9480, 5.766663
590.4301, 5.268906
590.9122, 4.433342
591.3943, 3.736275
591.8765, 3.382797
592.3586, 3.202827
592.8407, 3.067230
593.3228, 2.930283
593.8049, 2.703957
594.2870, 2.303802
594.7692, 1.792213
595.2513, 1.453606
595.7334, 1.346413
596.2155, 1.320313
596.6976, 1.429871
597.1797, 1.538147
597.6619, 1.515381
598.1440, 1.394951
598.6261, 1.308960
599.1082, 1.354492
599.5903, 1.489700
600.0724, 1.648903
600.5546, 1.819275
601.0367, 1.926666
601.5188, 1.909805
602.0009, 1.844254
602.4830, 1.866974
602.9651, 2.006119
603.4473, 2.045906
603.9294, 1.817635
604.4115, 1.619751
604.8936, 1.668068
605.3757, 1.870750
605.8578, 2.132668
606.3400, 2.453529
606.8221, 2.721344
607.3042, 2.758987
607.7863, 2.522591
608.2684, 2.348930
608.7505, 2.287117
609.2327, 2.236450
609.7148, 2.176529
610.1969, 2.108940
610.6790, 2.015411
611.1611, 1.888924
611.6432, 1.823288
612.1254, 1.960480
612.6075, 2.223526
613.0896, 2.349220
613.5717, 2.300056
614.0538, 2.255852
614.5359, 2.327972
615.0181, 2.479752
615.5002, 2.600479
615.9823, 2.665359
616.4644, 2.756378
616.9465, 2.943062
617.4286, 3.121994
617.9108, 3.201683
618.3929, 3.188225
618.8750, 3.144218
619.3571, 3.111763
619.8392, 3.058563
620.3214, 2.883911
620.8035, 2.536133
621.2856, 2.225998
621.7677, 1.961746
622.2498, 1.757584
622.7319, 1.666817
623.2141, 1.641808
623.6962, 1.564445
624.1783, 1.384964
624.6604, 1.149048
625.1425, 0.8277050
625.6246, 0.4792860
626.1068, 0.3432310
626.5889, 0.4916000
627.0710, 0.6669460
627.5531, 0.6102370
628.0352, 0.3369060
628.5173, 0.2080150
628.9995, 0.3451160
629.4816, 0.4502030
629.9637, 0.3699260
630.4458, 0.2868730
630.9279, 0.4213180
631.4100, 0.7675480
631.8922, 1.113518
632.3743, 1.277496
632.8564, 1.310966
633.3385, 1.399460
633.8206, 1.544128
634.3027, 1.739090
634.7849, 2.009804
635.2670, 2.306137
635.7491, 2.565895
636.2312, 2.797539
636.7133, 3.076462
637.1954, 3.518822
637.6776, 3.936348
638.1597, 4.165909
638.6418, 4.252716
639.1239, 4.299240
639.6060, 4.339798
640.0881, 4.386513
640.5703, 4.454773
641.0524, 4.546234
641.5345, 4.647934
642.0166, 4.852509
642.4987, 4.954597
642.9808, 4.888939
643.4630, 4.716667
643.9451, 4.486992
644.4272, 4.215347
644.9093, 3.914055
645.3914, 3.591400
645.8735, 3.245979
646.3557, 2.856308
646.8378, 2.415207
647.3199, 2.046181
647.8020, 1.835373
648.2841, 1.667381
648.7662, 1.321457
649.2484, 0.7388230
649.7305, 0.3102340
650.2126, 0.1516570
650.6947, 6.9762997E-02
651.1768, 1.3603000E-02
651.6589, 0.1037370
652.1411, 0.1950840
652.6232, 0.2853930
653.1053, 0.3716280
653.5874, 0.4765700
654.0695, 0.6019970
654.5516, 0.5422820
655.0338, 0.1499560
655.5159, 0.1322330
655.9980, 6.7916997E-02
656.4801, 0.1904300
656.9622, 0.5605850
657.4443, 1.063148
657.9265, 1.371597
658.4086, 1.281334
658.8907, 0.9638980
659.3728, 0.4838030
659.8549, 7.6355003E-02
660.3370, 0.4363170
660.8192, 0.4615780
661.3013, 0.2718580
661.7834, 9.9640004E-03
662.2655, 0.5169600
662.7476, 0.3917160
663.2297, 1.345589
663.7119, 2.682915
664.1940, 2.765419
664.6761, 2.191208
665.1582, 1.689644
665.6403, 1.453453
666.1224, 1.470932
666.6046, 1.866096
667.0867, 2.476952
667.5688, 2.906982
668.0509, 3.131241
668.5330, 3.357635
669.0151, 3.705948
669.4973, 4.089935
669.9794, 4.316483
670.4615, 4.253403
670.9436, 4.401726
671.4257, 4.892670
671.9078, 5.469307
672.3900, 6.012459
672.8721, 6.545128
673.3542, 7.162537
673.8363, 7.891388
674.3184, 8.569778
674.8005, 8.938782
675.2827, 9.042679
675.7648, 9.361549
676.2469, 9.981712
676.7290, 10.54117
677.2111, 10.86619
677.6932, 11.02506
678.1754, 11.18440
678.6575, 11.39253
679.1396, 11.35182
679.6217, 10.85950
680.1038, 10.21192
680.5859, 9.581787
681.0681, 8.984291
681.5502, 8.430901
682.0323, 7.925369
682.5144, 7.415909
682.9965, 6.809212
683.4786, 6.090584
683.9608, 5.532730
684.4429, 5.226837
684.9250, 4.925644
685.4071, 4.476135
685.8892, 4.006622
686.3713, 3.690300
686.8535, 3.554192
687.3356, 3.350090
687.8177, 2.848740
688.2998, 2.319000
688.7819, 2.014595
689.2640, 1.923576
689.7462, 1.987221
690.2283, 2.184975
690.7104, 2.432243
691.1925, 2.595398
691.6746, 2.651909
692.1567, 2.847420
692.6389, 3.416618
693.1210, 3.801872
693.6031, 3.645470
694.0852, 3.381210
694.5673, 3.490326
695.0494, 4.014107
695.5316, 4.550766
696.0137, 4.781151
696.4958, 4.944397
696.9779, 5.331055
697.4600, 5.931496
697.9421, 6.720505
698.4243, 7.704948
698.9064, 8.727127
699.3885, 9.586906
699.8706, 10.27089
700.3527, 10.97013
700.8348, 11.66599
701.3170, 12.40448
701.7991, 13.11938
702.2812, 13.92761
702.7633, 14.98446
703.2454, 16.27203
703.7275, 17.55832
704.2097, 18.57964
704.6918, 19.62496
705.1739, 21.24232
705.6560, 23.34850
706.1381, 25.30199
706.6202, 26.90130
707.1024, 28.44694
707.5845, 30.21316
708.0666, 32.21313
708.5487, 34.39419
709.0308, 36.75269
709.5129, 39.28143
709.9951, 42.06644
710.4772, 44.96507
710.9593, 47.85309
711.4414, 50.73115
711.9235, 53.68464
712.4056, 56.92152
712.8878, 60.07568
713.3699, 62.55267
713.8520, 64.37814
714.3341, 65.75650
714.8162, 66.73531
715.2983, 67.21742
715.7805, 67.17526
716.2626, 66.61170
716.7447, 65.38762
717.2268, 63.61722
717.7089, 61.11576
718.1910, 57.34398
718.6732, 53.21939
719.1553, 49.25064
719.6374, 45.49802
720.1195, 41.85281
720.6016, 38.33205
721.0837, 34.96937
721.5659, 31.71954
722.0480, 28.60648
722.5301, 25.82346
723.0122, 23.39260
723.4943, 21.18884
723.9764, 19.13644
724.4586, 17.24000
724.9407, 15.49572
725.4228, 13.86731
725.9049, 12.47444
726.3870, 11.47630
726.8691, 10.56889
727.3513, 9.589439
727.8334, 8.587372
728.3155, 7.655571
728.7976, 6.839584
729.2797, 6.174591
729.7618, 5.744934
730.2440, 5.479515
730.7261, 5.138893
731.2082, 4.711365
731.6903, 4.282730
732.1724, 3.879936
732.6545, 3.520706
733.1367, 3.232155
733.6188, 3.030800
734.1009, 2.852318
734.5830, 2.657692
735.0651, 2.496246
735.5472, 2.487038
736.0294, 2.500343
736.5115, 2.328499
736.9936, 1.949776
737.4757, 1.640518
737.9578, 1.668015
738.4399, 1.847298
738.9221, 1.781425
739.4042, 1.479103
739.8863, 1.212196
740.3684, 1.061859
740.8505, 0.9545750
741.3326, 0.8206410
741.8148, 0.6706620
742.2969, 0.5790020
742.7790, 0.6129530
743.2611, 0.5848460
743.7432, 0.3338240
744.2253, 0.1350330
744.7075, 0.2666020
745.1896, 0.6252670
745.6717, 0.8935170
746.1538, 0.9115910
746.6359, 0.8297730
747.1180, 0.8371580
747.6002, 0.8970490
748.0823, 0.8514940
748.5644, 0.6772920
749.0465, 0.5331420
749.5286, 0.5144650
750.0107, 0.5819550
750.4929, 0.6399840
750.9750, 0.6564330
751.4571, 0.7463610
751.9392, 1.070198
752.4213, 1.282921
752.9034, 1.080360
753.3856, 0.7604520
753.8677, 0.7792430
754.3498, 1.225220
754.8319, 1.681274
755.3140, 1.830482
755.7961, 1.797569
756.2783, 1.719574
756.7604, 1.629051
757.2425, 1.710037
757.7246, 2.035309
758.2067, 2.433052
758.6888, 2.714859
759.1710, 2.881126
759.6531, 2.923210
760.1352, 2.629921
760.6173, 2.538017
761.0994, 2.882103
761.5815, 3.308510
762.0637, 3.540733
762.5458, 3.619316
763.0279, 3.766670
763.5100, 4.114555
763.9921, 4.471199
764.4742, 4.681732
764.9564, 4.790642
765.4385, 4.854561
765.9206, 4.892662
766.4027, 4.964096
766.8848, 5.112740
767.3669, 5.289902
767.8491, 5.389107
768.3312, 5.421593
768.8133, 5.328316
769.2954, 5.028862
769.7775, 4.715569
770.2596, 4.461205
770.7418, 4.245995
771.2239, 4.053909
771.7060, 3.884850
772.1881, 3.708328
772.6702, 3.592087
773.1523, 3.391922
773.6345, 2.875633
774.1166, 2.213814
774.5987, 1.753365
775.0808, 1.587433
775.5629, 1.571671
776.0450, 1.597168
776.5272, 1.633194
777.0093, 1.494347
777.4914, 1.126274
777.9735, 0.8930050
778.4556, 0.9574130
778.9377, 1.054375
779.4199, 0.9270860
779.9020, 0.6244510
780.3841, 0.3874740
780.8662, 0.1656110
781.3483, 9.7969003E-02
781.8304, 0.4060290
782.3126, 0.7244570
782.7947, 0.7157970
783.2768, 0.4580380
783.7589, 0.2061390
784.2410, 7.1938001E-02
784.7231, 8.0720000E-03
785.2053, 4.1809999E-03
785.6874, 2.4940001E-02
786.1695, 0.1080090
786.6516, 0.4120180
787.1337, 0.6559140
787.6158, 0.7351230
788.0980, 0.7068410
788.5801, 0.6456990
789.0622, 0.5423510
789.5443, 0.4648590
790.0264, 0.4183270
790.5085, 0.3892290
790.9907, 0.4349140
791.4728, 0.4533230
791.9549, 0.2848820
792.4370, 2.0369999E-02
792.9191, 0.1836400
793.4012, 5.2627999E-02
793.8834, 0.2991330
794.3655, 4.1069001E-02
794.8476, 0.4559250
795.3297, 0.5652240
795.8118, 0.2363280
796.2939, 7.8185998E-02
796.7761, 8.0696002E-02
797.2582, 0.1020580
797.7403, 0.1662220
798.2224, 8.0742002E-02
798.7045, 2.5790001E-03
799.1866, 0.1079640
799.6688, 0.1436540
800.1509, 2.5650000E-02
800.6330, 0.2572710
801.1151, 0.3406450
801.5972, 0.2435150
802.0793, 0.2858510
802.5615, 0.7735140
803.0436, 1.203926
803.5257, 1.162201
804.0078, 0.9059450
804.4899, 0.8141170
804.9720, 0.9576490
805.4542, 1.207527
805.9363, 1.500519
806.4184, 1.765167
806.9005, 1.815117
807.3826, 1.659378
807.8647, 1.476784
808.3469, 1.265854
808.8290, 1.183022
809.3111, 1.402992
809.7932, 1.787575
810.2753, 1.899376
810.7574, 1.471199
811.2396, 1.318199
811.7217, 1.729324
812.2038, 2.085922
812.6859, 2.140182
813.1680, 1.975258
813.6501, 1.627907
814.1323, 1.132317
814.6144, 0.8247150
815.0965, 1.105644
815.5786, 1.530647
816.0607, 1.580360
816.5428, 1.353264
817.0250, 1.080528
817.5071, 0.8292080
817.9892, 0.6596760
818.4713, 0.6310270
818.9534, 0.7052690
819.4355, 0.7381970
819.9177, 0.7072830
820.3998, 0.7447660
820.8819, 0.9161000
821.3640, 1.070610
821.8461, 1.094162
822.3282, 1.046906
822.8104, 1.060097
823.2925, 1.171425
823.7746, 1.209312
824.2567, 1.016022
824.7388, 0.8735120
825.2209, 1.027130
825.7031, 1.296608
826.1852, 1.409454
826.6673, 1.319565
827.1494, 1.180603
827.6315, 1.086136
828.1136, 1.039536
828.5958, 1.058052
829.0779, 1.131218
829.5600, 1.231209
830.0421, 1.354790
830.5242, 1.379295
831.0063, 1.167641
831.4885, 0.8690800
831.9706, 1.001236
832.4527, 1.909065
832.9348, 2.320190
833.4169, 1.801529
833.8990, 1.319260
834.3812, 1.319138
834.8633, 1.527657
835.3454, 1.580482
835.8275, 1.438141
836.3096, 1.409149
836.7917, 1.750137
837.2739, 2.067581
837.7560, 2.045944
838.2381, 1.882172
838.7202, 1.903534
839.2023, 2.113449
839.6844, 2.221214
840.1666, 2.000259
840.6487, 1.672104
841.1308, 1.666084
841.6129, 1.926575
842.0950, 2.038078
842.5771, 1.940865
843.0593, 1.901657
843.5414, 2.084473
844.0235, 2.362701
844.5056, 2.523048
844.9877, 2.575035
845.4698, 2.488777
845.9520, 2.024002
846.4341, 1.760422
846.9162, 2.006294
847.3983, 2.369949
847.8804, 2.538773
848.3625, 2.504272
848.8447, 2.361908
849.3268, 2.032722
849.8089, 1.791969
850.2910, 1.864204
850.7731, 2.050438
851.2552, 2.115051
851.7374, 2.069054
852.2195, 2.102158
852.7016, 2.278839
853.1837, 2.466621
853.6658, 2.478767
854.1479, 2.348579
854.6301, 2.285583
855.1122, 2.302376
855.5943, 2.321915
856.0764, 2.331886
856.5585, 2.388680
857.0406, 2.570442
857.5228, 2.844208
858.0049, 2.935677
858.4870, 2.695068
858.9691, 2.537132
859.4512, 2.522369
859.9333, 2.535873
860.4155, 2.551010
860.8976, 2.569695
861.3797, 2.562172
861.8618, 2.500702
862.3439, 2.448608
862.8260, 2.449852
863.3082, 2.472107
863.7903, 2.491478
864.2724, 2.512817
864.7545, 2.550072
865.2366, 2.603638
865.7188, 2.666252
866.2009, 2.739517
866.6830, 2.780022
867.1651, 2.710571
867.6472, 2.540504
868.1293, 2.296516
868.6115, 1.975510
869.0936, 1.739647
869.5757, 1.690117
870.0578, 1.776649
870.5399, 1.917938
871.0220, 2.158470
871.5042, 2.236069
871.9863, 2.017021
872.4684, 1.838142
872.9505, 1.858070
873.4326, 1.918991
873.9147, 1.869545
874.3969, 1.728760
874.8790, 1.640770
875.3611, 1.723114
875.8432, 1.735313
876.3253, 1.507080
876.8074, 1.246803
877.2896, 1.142693
877.7717, 1.158325
878.2538, 1.146141
878.7359, 1.053719
879.2180, 1.042503
879.7001, 1.417694
880.1823, 1.896294
880.6644, 1.850708
881.1465, 1.410027
881.6286, 1.177193
882.1107, 1.307831
882.5928, 1.546989
883.0750, 1.680534
883.5571, 1.731956
884.0392, 1.780983
884.5213, 1.831367
885.0034, 1.842926
885.4855, 1.763885
885.9677, 1.759872
886.4498, 1.945702
886.9319, 2.234718
887.4140, 2.485771
887.8961, 2.693764
888.3782, 2.897339
888.8604, 3.073456
889.3425, 3.276779
889.8246, 3.557961
890.3067, 3.846359
890.7888, 4.103683
891.2709, 4.313370
891.7531, 4.435951
892.2352, 4.429596
892.7173, 4.429848
893.1994, 4.491074
893.6815, 4.636208
894.1636, 4.962814
894.6458, 5.389168
895.1279, 5.684746
895.6100, 5.787163
896.0921, 5.863602
896.5742, 6.093040
897.0563, 6.397675
897.5385, 6.548988
898.0206, 6.561790
898.5027, 6.669968
898.9848, 6.933319
899.4669, 7.067627
899.9490, 6.859200
900.4312, 6.457924
900.9133, 6.213974
901.3954, 6.179085
901.8775, 6.068413
902.3596, 5.904083
902.8417, 5.621338
903.3239, 5.039688
903.8060, 4.460732
904.2881, 4.282219
904.7702, 4.408310
905.2523, 4.211823
905.7344, 3.239265
906.2166, 2.500107
906.6987, 2.401566
907.1808, 2.457520
907.6629, 2.345879
908.1450, 2.120430
908.6271, 1.960007
909.1093, 1.905975
909.5914, 1.767624
910.0735, 1.233696
910.5556, 0.7045210
911.0377, 0.7879790
911.5198, 1.164307
912.0020, 1.131058
912.4841, 0.6225590
912.9662, 3.8727000E-02
913.4483, 0.3844300
913.9304, 0.6338420
914.4125, 0.6100310
914.8947, 0.3628230
915.3768, 0.3386760
915.8589, 0.5688320
916.3410, 0.6964570
916.8231, 0.5684510
917.3052, 0.3914640
917.7874, 0.4222340
918.2695, 0.6196210
918.7516, 0.5785060
919.2337, 0.2161180
919.7158, 0.2001880
920.1979, 0.8250270
920.6801, 1.268211
921.1622, 1.230858
921.6443, 0.9085850
922.1264, 0.5577240
922.6085, 0.1589430
923.0906, 7.1517996E-02
923.5728, 6.9649003E-02
924.0549, 6.1675999E-02
924.5370, 0.4290160
925.0191, 0.7971950
925.5012, 0.9407880
925.9833, 0.8829730
926.4655, 0.7730100
926.9476, 0.6632770
927.4297, 0.5181500
927.9118, 0.2228010
928.3939, 5.0354000E-02
928.8760, 8.7067001E-02
929.3582, 5.4016002E-02
929.8403, 0.2528150
930.3224, 0.4582750
930.8045, 0.6023790
931.2866, 0.6270600
931.7687, 0.5656890
932.2509, 0.4089280
932.7330, 0.2123640
933.2151, 0.2779390
933.6972, 0.6257100
934.1793, 0.9485400
934.6614, 1.098785
935.1436, 1.117226
935.6257, 1.022232
936.1078, 0.8305820
936.5899, 0.9402310
937.0720, 1.466911
937.5541, 1.811493
938.0363, 1.794518
938.5184, 1.680550
939.0005, 1.605164
939.4826, 1.599571
939.9647, 1.768639
940.4468, 2.214706
940.9290, 2.552200
941.4111, 2.655495
941.8932, 2.814438
942.3753, 3.128914
942.8574, 3.520767
943.3395, 3.926567
943.8217, 4.343758
944.3038, 4.779297
944.7859, 5.240509
945.2680, 5.710205
945.7501, 6.274239
946.2322, 6.756958
946.7144, 6.917587
947.1965, 6.947678
947.6786, 7.183701
948.1607, 7.684174
948.6428, 8.232567
949.1249, 8.762901
949.6071, 9.185181
950.0892, 9.231049
950.5713, 9.187210
951.0534, 9.593864
951.5355, 10.41145
952.0176, 11.27521
952.4998, 12.01746
952.9819, 12.58650
953.4640, 12.82549
953.9461, 12.87917
954.4282, 13.20029
954.9103, 13.76395
955.3925, 14.35918
955.8746, 14.94453
956.3567, 15.62874
956.8388, 16.49747
957.3209, 17.48405
957.8030, 18.49348
958.2852, 19.54820
958.7673, 20.33142
959.2494, 20.76887
959.7315, 21.22835
960.2136, 21.85340
960.6957, 22.48093
961.1779, 22.96851
961.6600, 23.32276
962.1421, 23.57539
962.6242, 23.81142
963.1063, 23.77519
963.5884, 23.26770
964.0706, 22.73462
964.5527, 22.36739
965.0348, 22.04229
965.5169, 21.58719
965.9990, 21.01507
966.4811, 20.56544
966.9633, 20.24660
967.4454, 20.09048
967.9275, 20.20438
968.4096, 20.38303
968.8917, 20.51498
969.3738, 20.60336
969.8560, 20.61543
970.3381, 20.55730
970.8202, 20.69968
971.3023, 21.23538
971.7844, 21.90432
972.2665, 22.67951
972.7487, 23.44018
973.2308, 23.94512
973.7129, 24.25297
974.1950, 24.65635
974.6771, 25.28268
975.1592, 25.87910
975.6414, 26.24345
976.1235, 26.38367
976.6056, 26.33978
977.0877, 26.12913
977.5698, 25.60352
978.0519, 24.82713
978.5341, 24.37691
979.0162, 24.63728
979.4983, 24.93355
979.9804, 24.08276
980.4625, 22.42483
980.9446, 21.32146
981.4268, 20.74076
981.9089, 19.99567
982.3910, 18.89989
982.8731, 17.76032
983.3552, 16.81954
983.8373, 16.03471
984.3195, 15.29626
984.8016, 14.60254
985.2837, 14.00158
985.7658, 13.47950
986.2479, 13.18220
986.7300, 13.24483
987.2122, 13.31710
987.6943, 13.00899
988.1764, 12.39977
988.6585, 11.91165
989.1406, 11.51424
989.6227, 11.33745
990.1049, 11.51726
990.5870, 11.67901
991.0691, 11.65119
991.5512, 11.54906
992.0333, 11.51147
992.5154, 11.53609
992.9976, 11.52974
993.4797, 11.34569
993.9618, 11.35461
994.4439, 11.78253
994.9260, 12.17587
995.4081, 12.23358
995.8903, 12.17648
996.3724, 12.34084
996.8545, 12.74216
997.3366, 13.03233
997.8187, 13.06731
998.3008, 13.09025
998.7830, 13.24835
999.2651, 13.34191
999.7472, 13.15634
1000.229, 12.83080
1000.711, 12.63680
1001.194, 12.62326
1001.676, 12.54651
1002.158, 12.22300
1002.640, 11.90040
1003.122, 11.79314
1003.604, 11.70321
1004.086, 11.40018
1004.568, 10.93966
1005.050, 10.52286
1005.533, 10.21011
1006.015, 9.811394
1006.497, 9.094940
1006.979, 8.329109
1007.461, 7.773102
1007.943, 7.342087
1008.425, 6.949196
1008.907, 6.548164
1009.390, 6.053535
1009.872, 5.426971
1010.354, 4.807487
1010.836, 4.305130
1011.318, 3.908188
1011.800, 3.620239
1012.282, 3.419800
1012.764, 3.307999
1013.246, 3.243935
1013.729, 3.029320
1014.211, 2.554802
1014.693, 1.997871
1015.175, 1.543823
1015.657, 1.202820
1016.139, 1.050751
1016.621, 1.049461
1017.103, 0.9885710
1017.586, 0.8348080
1018.068, 0.7462690
1018.550, 0.8300550
1019.032, 0.9486920
1019.514, 0.8278810
1019.996, 0.5214390
1020.478, 0.4336620
1020.960, 0.5592580
1021.442, 0.7430420
1021.925, 0.9591830
1022.407, 1.048111
1022.889, 0.8748470
1023.371, 0.5950550
1023.853, 0.5317230
1024.335, 0.6871570
1024.817, 0.8210530
1025.299, 0.9428790
1025.781, 0.9494550
1026.264, 0.7887730
1026.746, 0.6232530
1027.228, 0.5879140
1027.710, 0.6059800
1028.192, 0.4861220
1028.674, 0.2085800
1029.156, 6.2011998E-02
1029.638, 0.3641890
1030.120, 0.5090030
1030.603, 0.3843770
1031.085, 0.2365420
1031.567, 0.2743450
1032.049, 0.4131160
1032.531, 0.4208300
1033.013, 0.2553100
1033.495, 0.1447600
1033.977, 8.1565998E-02
1034.460, 9.7542003E-02
1034.942, 0.2878420
1035.424, 0.4315870
1035.906, 0.3066710
1036.388, 2.0485001E-02
1036.870, 0.1093670
1037.352, 1.2177000E-02
1037.834, 7.3620002E-03
1038.317, 0.2034680
1038.799, 0.3233490
1039.281, 0.1877900
1039.763, 7.1700998E-02
1040.245, 0.2701340
1040.727, 0.6393970
1041.209, 0.7572560
1041.691, 0.5232620
1042.173, 0.3565750
1042.656, 0.2774730
1043.138, 0.2451630
1043.620, 0.2939910
1044.102, 0.3448490
1044.584, 0.2911830
1045.066, 0.2006380
1045.548, 0.2615130
1046.030, 0.5307620
1046.512, 0.7716060
1046.995, 0.9916760
1047.477, 1.136391
1047.959, 1.139229
1048.441, 1.106491
1048.923, 1.058167
1049.405, 1.053383
1049.887, 1.249817
1050.369, 1.722588
1050.852, 2.094963
1051.334, 2.243584
1051.816, 2.350777
1052.298, 2.445801
1052.780, 2.556625
1053.262, 2.730247
1053.744, 2.926628
1054.226, 3.042336
1054.708, 3.046165
1055.191, 3.104095
1055.673, 3.315582
1056.155, 3.517990
1056.637, 3.697243
1057.119, 3.796051
1057.601, 3.766884
1058.083, 3.622650
1058.565, 3.356552
1059.047, 2.957603
1059.530, 2.663345
1060.012, 2.683624
1060.494, 2.654350
1060.976, 2.377319
1061.458, 2.031082
1061.940, 1.663948
1062.422, 1.387726
1062.904, 1.430618
1063.387, 1.843491
1063.869, 2.016212
1064.351, 1.466644
1064.833, 0.9652400
1065.315, 0.8738020
1065.797, 0.9626620
1066.279, 1.149208
1066.761, 1.322464
1067.244, 1.264664
1067.726, 0.9566040
1068.208, 0.7857060
1068.690, 1.010445
1069.172, 1.307571
1069.654, 1.628914
1070.136, 1.876045
1070.618, 1.877846
1071.100, 1.775055
1071.583, 1.794052
1072.065, 1.964279
1072.547, 2.155396
1073.029, 2.277184
1073.511, 2.478142
1073.993, 2.925522
1074.475, 3.377037
1074.957, 3.641880
1075.439, 3.789146
1075.922, 3.911690
1076.404, 4.037903
1076.886, 4.210457
1077.368, 4.487099
1077.850, 4.748188
1078.332, 4.870876
1078.814, 4.976791
1079.297, 5.229584
1079.779, 5.535088
1080.261, 5.769634
1080.743, 5.925426
1081.225, 6.052822
1081.707, 6.183231
1082.189, 6.268288
1082.671, 6.303764
1083.153, 6.261883
1083.635, 6.092434
1084.118, 5.855927
1084.600, 5.644676
1085.082, 5.433880
1085.564, 5.105709
1086.046, 4.604008
1086.528, 4.115601
1087.010, 3.698483
1087.492, 3.320641
1087.975, 2.975895
1088.457, 2.691971
1088.939, 2.518105
1089.421, 2.393723
1089.903, 2.166203
1090.385, 1.795567
1090.867, 1.563320
1091.349, 1.749226
1091.832, 1.853786
1092.314, 1.467541
1092.796, 1.060207
1093.278, 1.150761
1093.760, 1.509239
1094.242, 1.621262
1094.724, 1.386276
1095.206, 1.132381
1095.688, 0.8352090
1096.171, 0.7175520
1096.653, 1.031071
1097.135, 1.365177
1097.617, 1.432018
1098.099, 1.341427
1098.581, 1.249542
1099.063, 1.183449
1099.545, 1.178852
1100.027, 1.294487
1100.510, 1.385174
1100.992, 1.441097
1101.474, 1.431393
1101.956, 1.248550
1102.438, 1.056385
1102.920, 1.084301
1103.402, 1.288532
1103.884, 1.378601
1104.367, 1.221081
1104.849, 1.170727
1105.331, 1.445843
1105.813, 1.637775
1106.295, 1.520500
1106.777, 1.313396
1107.259, 1.189625
1107.741, 1.141941
1108.224, 1.151493
1108.706, 1.274788
1109.188, 1.223354
1109.670, 0.7457240
1110.152, 0.4055440
1110.634, 0.3815840
1111.116, 0.4829710
1111.598, 0.6830290
1112.080, 0.8835790
1112.563, 0.8735160
1113.045, 0.6182370
1113.527, 0.4473990
1114.009, 0.4155350
1114.491, 0.3781780
1114.973, 0.3237650
1115.455, 0.2588270
1115.937, 0.1658210
1116.419, 8.3530001E-02
1116.902, 5.8665998E-02
1117.384, 8.9351997E-02
1117.866, 0.1730040
1118.348, 0.4171330
1118.830, 0.4478260
1119.312, 7.3792003E-02
1119.794, 0.1476360
1120.276, 7.6061003E-02
1120.759, 0.3734320
1121.241, 0.3953900
1121.723, 0.2086750
1122.205, 4.2507000E-02
1122.687, 0.1169050
1123.169, 0.1858410
1123.651, 0.1337890
1124.133, 0.1122890
1124.615, 0.1941300
1125.098, 0.1902540
1125.580, 7.8518003E-02
1126.062, 0.4169690
1126.544, 0.4123690
1127.026, 7.5976998E-02
1127.508, 5.0868999E-02
1127.990, 5.4279000E-02
1128.472, 0.2039340
1128.954, 0.3896940
1129.437, 0.4611130
1129.919, 0.3285900
1130.401, 0.1327510
1130.883, 3.9608002E-02
1131.365, 3.3829000E-02
1131.847, 5.7296999E-02
1132.329, 0.1092530
1132.811, 0.2090260
1133.294, 0.3531650
1133.776, 0.3464320
1134.258, 0.1232340
1134.740, 0.1403120
1135.222, 0.3386270
1135.704, 0.3075290
1136.186, 0.5781560
1136.668, 1.948044
1137.151, 2.204952
1137.633, 1.511074
1138.115, 0.7545280
1138.597, 0.1667630
1139.079, 0.1621930
1139.561, 0.1759190
1140.043, 5.5369999E-02
1140.525, 1.0246000E-02
1141.007, 1.6888000E-02
1141.490, 0.1597520
1141.972, 0.3610880
1142.454, 0.5157200
1142.936, 0.6007310
1143.418, 0.5707780
1143.900, 0.4264030
1144.382, 0.3141750
1144.864, 0.3610000
1145.346, 0.4588970
1145.829, 0.5003010
1146.311, 0.5175670
1146.793, 0.5984460
1147.275, 0.6692960
1147.757, 0.5179520
1148.239, 0.1822740
1148.721, 1.5950000E-03
1149.203, 0.1403850
1149.686, 0.3444370
1150.168, 0.4965020
1150.650, 0.5880200
1151.132, 0.5969580
1151.614, 0.5561710
1152.096, 0.4843640
1152.578, 0.3985900
1153.060, 0.3028110
1153.542, 0.1967510
1154.025, 0.2062340
1154.507, 0.5140420
1154.989, 0.7534940
1155.471, 0.7820630
1155.953, 0.7167700
1156.435, 0.5697480
1156.917, 0.4150850
1157.399, 0.3439600
1157.881, 0.3580020
1158.364, 0.4105610
1158.846, 0.5502200
1159.328, 0.6262740
1159.810, 0.5774080
1160.292, 0.5353130
1160.774, 0.5692180
1161.256, 0.5865290
1161.738, 0.4799390
1162.221, 0.3214650
1162.703, 0.2959140
1163.185, 0.4282910
1163.667, 0.4768180
1164.149, 0.3741760
1164.631, 0.4039960
1165.113, 0.6765210
1165.595, 0.8816870
1166.078, 0.8469430
1166.560, 0.7130010
1167.042, 0.6402240
1167.524, 0.6304630
1168.006, 0.7331390
1168.488, 0.9604800
1168.970, 0.9535680
1169.452, 0.6853750
1169.934, 0.4790120
1170.417, 0.4262470
1170.899, 0.5162580
1171.381, 0.7613950
1171.863, 1.013962
1172.345, 1.003956
1172.827, 0.7967030
1173.309, 0.5546040
1173.791, 0.3269120
1174.273, 0.3721050
1174.756, 0.6548040
1175.238, 0.8002620
1175.720, 0.6703910
1176.202, 0.5107840
1176.684, 0.5057490
1177.166, 0.6236690
1177.648, 0.9438020
1178.130, 1.291187
1178.613, 1.355373
1179.095, 1.205463
1179.577, 0.9510190
1180.059, 0.6709330
1180.541, 0.5439410
1181.023, 0.6750720
1181.505, 0.8565060
1181.987, 0.9824180
1182.469, 1.071167
1182.952, 1.174690
1183.434, 1.243229
1183.916, 1.179127
1184.398, 1.025963
1184.880, 0.8603780
1185.362, 0.6950800
1185.844, 0.5916980
1186.326, 0.5358850
1186.808, 0.5739360
1187.291, 0.8472900
1187.773, 1.054585
1188.255, 0.9905240
1188.737, 0.8451000
1189.219, 0.8263850
1189.701, 0.8886680
1190.183, 0.8819390
1190.665, 0.7815970
1191.148, 0.7526890
1191.630, 0.8546830
1192.112, 0.8445590
1192.594, 0.6345140
1193.076, 0.4003560
1193.558, 0.2285270
1194.040, 0.1753120
1194.522, 0.2786410
1195.005, 0.4891430
1195.487, 0.6054880
1195.969, 0.6296390
1196.451, 0.6092680
1196.933, 0.5378040
1197.415, 0.4547840
1197.897, 0.3766290
1198.379, 0.3284760
1198.861, 0.3074040
1199.344, 0.3098720
1199.826, 0.3086700
1200.308, 0.3227120
1200.790, 0.4524310
1201.272, 0.6043050
1201.754, 0.5025290
1202.236, 0.2329030
1202.718, 0.1617320
1203.200, 0.3606990
1203.683, 0.5061490
1204.165, 0.3738940
1204.647, 0.2199780
1205.129, 0.2341920
1205.611, 0.3084030
1206.093, 0.3750990
1206.575, 0.4259990
1207.057, 0.4891850
1207.540, 0.5365940
1208.022, 0.4744340
1208.504, 0.2692950
1208.986, 0.1510310
1209.468, 0.2911220
1209.950, 0.3468510
1210.432, 0.1207660
1210.914, 6.3023001E-02
1211.396, 2.0137999E-02
1211.879, 0.1303250
1212.361, 0.3030660
1212.843, 0.4749410
1213.325, 0.5449100
1213.807, 0.4812240
1214.289, 0.4675180
1214.771, 0.5163840
1215.253, 0.5776370
1215.735, 0.6594660
1216.218, 0.6553150
1216.700, 0.4916880
1217.182, 0.2906880
1217.664, 0.1997380
1218.146, 0.1947750
1218.628, 0.2046240
1219.110, 0.2271120
1219.592, 0.2441520
1220.075, 0.2580950
1220.557, 0.2825620
1221.039, 0.3178290
1221.521, 0.4080280
1222.003, 0.5801320
1222.485, 0.6951140
1222.967, 0.5476530
1223.449, 0.3335110
1223.932, 0.2500570
1224.414, 0.2578850
1224.896, 0.3116570
1225.378, 0.4144820
1225.860, 0.6475180
1226.342, 0.9651110
1226.824, 1.041954
1227.306, 0.6641920
1227.788, 0.3440170
1228.271, 0.2938390
1228.753, 0.2809830
1229.235, 0.1706730
1229.717, 9.0267003E-02
1230.199, 0.1705210
1230.681, 0.3475150
1231.163, 0.5213970
1231.645, 0.6887590
1232.127, 0.7723660
1232.610, 0.7686230
1233.092, 0.6684040
1233.574, 0.4155500
1234.056, 0.2664070
1234.538, 0.3074300
1235.020, 0.4339640
1235.502, 0.5832750
1235.984, 0.7074700
1236.467, 0.7267490
1236.949, 0.6462630
1237.431, 0.4378360
1237.913, 0.1473660
1238.395, 1.7273000E-02
1238.877, 4.4505998E-02
1239.359, 2.4380000E-02
1239.841, 1.7235000E-02
1240.323, 0.1429330
1240.806, 0.4198300
1241.288, 0.6509900
1241.770, 0.6167760
1242.252, 0.4787940
1242.734, 0.3410190
1243.216, 0.2344360
1243.698, 0.2107240
1244.180, 0.2223320
1244.662, 0.1255570
1245.145, 8.3995998E-02
1245.627, 0.1187670
1246.109, 0.2513500
1246.591, 0.5157850
1247.073, 0.5491370
1247.555, 0.5099680
1248.037, 0.3455770
1248.519, 0.2328680
1249.002, 0.3208050
1249.484, 0.5254590
1249.966, 0.7266390
1250.448, 0.9089470
1250.930, 0.7891770
1251.412, 0.3228070
1251.894, 3.9790999E-02
1252.376, 1.8005000E-02
1252.859, 6.6586003E-02
1253.341, 0.2659340
1253.823, 0.4803350
1254.305, 0.6518630
1254.787, 0.6980480
1255.269, 0.3264010
1255.751, 0.1105580
1256.233, 0.2330890
1256.715, 0.8940200
1257.198, 0.9322430
1257.680, 0.5270000
1258.162, 0.3139000
1258.644, 0.4205890
1259.126, 0.6588970
1259.608, 1.026836
1260.090, 1.208702
1260.572, 0.9227710
1261.054, 0.5803790
1261.537, 0.2760240
1262.019, 0.1207890
1262.501, 0.2933960
1262.983, 0.6040270
1263.465, 0.7617990
1263.947, 0.7617110
1264.429, 0.7243920
1264.911, 0.6746220
1265.394, 0.5972560
1265.876, 0.4605480
1266.358, 0.4670790
1266.840, 0.6927340
1267.322, 0.8198550
1267.804, 0.6591380
1268.286, 0.4520840
1268.768, 0.4785800
1269.250, 0.5760230
1269.733, 0.4827920
1270.215, 0.2775420
1270.697, 0.2654570
1271.179, 0.3790890
1271.661, 0.4029960
1272.143, 0.3167920
1272.625, 0.1925010
1273.107, 6.3354000E-02
1273.589, 1.4778000E-02
1274.072, 0.2007830
1274.554, 0.3347430
1275.036, 0.1528050
1275.518, 1.0250000E-02
1276.000, 0.2871700
1276.482, 0.6149790
1276.964, 0.4768520
1277.446, 5.4657001E-02
1277.929, 3.1592999E-02
1278.411, 0.2630650
1278.893, 0.4258460
1279.375, 0.3997080
1279.857, 0.3734250
1280.339, 0.2414280
1280.821, 0.1813850
1281.303, 9.3193002E-02
1281.786, 3.9097000E-02
1282.268, 0.0000000E+00
##END=



