##NAMES=Beusite
##RRUFFID=R160031
##IDEAL CHEMISTRY=Mn^2+^Mn^2+^_2_(PO_4_)_2_
##LOCALITY=Santa Ana Pegmatite, Argentina
##OWNER=RRUFF
##SOURCE=Jaroslav Hyr≈°l
##DESCRIPTION=Orange massive
##STATUS=The identification of this mineral has been confirmed only by single crystal X-ray diffraction.
##URL=rruff.info/R160031
89.01367, 0.0000000E+00
89.49579, 1.261353
89.97791, 0.1820680
90.46002, 1.131042
90.94214, 1.454529
91.42426, 12.97699
91.90637, 32.20435
92.38849, 48.78931
92.87061, 52.27386
93.35272, 46.78748
93.83484, 43.66510
94.31696, 46.40924
94.79907, 52.56848
95.28119, 57.76776
95.76331, 62.69360
96.24542, 66.58325
96.72754, 67.81348
97.20966, 66.43005
97.69177, 65.70374
98.17389, 66.19873
98.65601, 67.93982
99.13812, 72.57483
99.62024, 81.16461
100.1024, 90.45190
100.5845, 95.60480
101.0666, 96.02838
101.5487, 95.19604
102.0308, 94.12592
102.5129, 92.63550
102.9951, 91.97638
103.4772, 92.54102
103.9593, 93.76550
104.4414, 94.11896
104.9235, 92.35864
105.4056, 91.57080
105.8878, 93.15637
106.3699, 98.48694
106.8520, 104.0042
107.3341, 112.0950
107.8162, 121.3937
108.2983, 123.6815
108.7805, 113.8466
109.2626, 101.0645
109.7447, 90.26709
110.2268, 82.03192
110.7089, 74.93634
111.1910, 68.94330
111.6732, 64.00348
112.1553, 59.84888
112.6374, 56.61047
113.1195, 54.25244
113.6016, 52.60052
114.0837, 50.16693
114.5659, 49.38531
115.0480, 52.36328
115.5301, 59.74121
116.0122, 65.20996
116.4943, 64.86743
116.9764, 61.65015
117.4586, 59.32886
117.9407, 61.71411
118.4228, 63.92017
118.9049, 62.34253
119.3870, 55.75171
119.8691, 49.30396
120.3513, 45.86127
120.8334, 44.86865
121.3155, 45.31030
121.7976, 45.99951
122.2797, 48.13654
122.7618, 53.82983
123.2440, 64.97247
123.7261, 76.17865
124.2082, 81.99719
124.6903, 83.30603
125.1724, 83.59772
125.6545, 84.02936
126.1367, 84.34436
126.6188, 85.10693
127.1009, 86.45233
127.5830, 88.37958
128.0651, 90.91718
128.5472, 94.18497
129.0294, 97.59058
129.5115, 101.3840
129.9936, 104.8245
130.4757, 105.5182
130.9578, 103.5898
131.4399, 99.55585
131.9221, 94.06314
132.4042, 87.01935
132.8863, 79.32129
133.3684, 71.16125
133.8505, 62.55093
134.3326, 54.62796
134.8148, 47.84518
135.2969, 42.10663
135.7790, 36.93826
136.2611, 32.25058
136.7432, 28.31799
137.2253, 25.05411
137.7075, 22.25089
138.1896, 21.23251
138.6717, 22.98743
139.1538, 27.79822
139.6359, 31.46616
140.1180, 34.04276
140.6002, 35.39069
141.0823, 34.94910
141.5644, 31.74677
142.0465, 28.94266
142.5286, 27.64276
143.0107, 28.08286
143.4929, 29.36920
143.9750, 31.58414
144.4571, 34.63705
144.9392, 38.24875
145.4213, 42.44046
145.9034, 47.21371
146.3856, 52.71671
146.8677, 60.33350
147.3498, 67.03226
147.8319, 73.05475
148.3140, 78.21869
148.7961, 82.04504
149.2783, 84.31912
149.7604, 85.34760
150.2425, 85.23468
150.7246, 83.17896
151.2067, 80.94846
151.6888, 78.66208
152.1710, 76.25079
152.6531, 73.31119
153.1352, 69.48865
153.6173, 65.33298
154.0994, 61.14316
154.5815, 56.72385
155.0637, 52.51419
155.5458, 49.19922
156.0279, 46.53598
156.5100, 42.56339
156.9921, 35.48773
157.4742, 27.68268
157.9564, 20.86331
158.4385, 15.63711
158.9206, 11.24252
159.4027, 7.614197
159.8848, 4.727509
160.3669, 2.185974
160.8491, 0.3402400
161.3312, 2.483124
161.8133, 4.004974
162.2954, 4.222015
162.7775, 4.265381
163.2596, 4.625946
163.7418, 5.324921
164.2239, 6.154602
164.7060, 7.267334
165.1881, 8.404907
165.6702, 9.210938
166.1523, 9.304047
166.6345, 9.240051
167.1166, 9.491364
167.5987, 10.12207
168.0808, 10.44678
168.5629, 10.01257
169.0450, 8.981995
169.5272, 7.609528
170.0093, 6.165802
170.4914, 4.339935
170.9735, 1.466309
171.4556, 2.669891
171.9377, 6.338959
172.4199, 7.532684
172.9020, 7.170135
173.3841, 7.321838
173.8662, 9.370850
174.3483, 12.30276
174.8304, 14.94342
175.3126, 17.17200
175.7947, 19.19507
176.2768, 20.96167
176.7589, 22.62729
177.2410, 24.65793
177.7231, 27.64908
178.2053, 31.09543
178.6874, 34.13504
179.1695, 36.69946
179.6516, 38.88370
180.1337, 40.57870
180.6158, 41.90811
181.0980, 43.43753
181.5801, 45.69385
182.0622, 48.37775
182.5443, 50.81418
183.0264, 52.88431
183.5085, 54.78513
183.9907, 56.78348
184.4728, 58.86728
184.9549, 60.88422
185.4370, 62.71213
185.9191, 64.39209
186.4012, 66.17212
186.8834, 68.18460
187.3655, 70.07565
187.8476, 71.04224
188.3297, 71.11035
188.8118, 71.18198
189.2939, 71.90430
189.7761, 73.18082
190.2582, 74.44083
190.7403, 75.74426
191.2224, 76.81876
191.7045, 76.84418
192.1866, 75.77383
192.6688, 74.78006
193.1509, 74.71350
193.6330, 75.50980
194.1151, 76.45743
194.5972, 77.57318
195.0793, 78.69370
195.5615, 79.50153
196.0436, 80.02390
196.5257, 80.09991
197.0078, 79.38608
197.4899, 77.85229
197.9720, 76.66510
198.4542, 75.99457
198.9363, 75.73569
199.4184, 75.76361
199.9005, 76.17456
200.3826, 76.43143
200.8647, 76.02570
201.3469, 74.86633
201.8290, 74.07361
202.3111, 73.91696
202.7932, 74.16168
203.2753, 74.05750
203.7574, 73.53262
204.2396, 72.84613
204.7217, 72.05737
205.2038, 71.07150
205.6859, 70.60284
206.1680, 70.93658
206.6501, 71.79028
207.1323, 71.99136
207.6144, 71.32294
208.0965, 70.56720
208.5786, 70.37915
209.0607, 70.96631
209.5428, 71.14810
210.0250, 70.64731
210.5071, 69.68204
210.9892, 69.10611
211.4713, 69.03418
211.9534, 69.09238
212.4355, 69.02963
212.9176, 68.80698
213.3998, 68.58594
213.8819, 68.37314
214.3640, 68.15372
214.8461, 67.93497
215.3282, 67.67947
215.8103, 67.45010
216.2925, 67.30280
216.7746, 67.31561
217.2567, 67.16747
217.7388, 66.84058
218.2209, 66.30945
218.7030, 65.47757
219.1852, 64.23929
219.6673, 62.80853
220.1494, 61.36575
220.6315, 59.84036
221.1136, 58.52266
221.5957, 57.49167
222.0779, 56.66074
222.5600, 55.56407
223.0421, 53.99612
223.5242, 52.54059
224.0063, 51.64262
224.4884, 51.60803
224.9706, 51.43765
225.4527, 51.02734
225.9348, 50.40579
226.4169, 49.70566
226.8990, 48.96368
227.3811, 48.19247
227.8633, 47.38013
228.3454, 46.46252
228.8275, 45.86130
229.3096, 45.61383
229.7917, 45.57538
230.2738, 45.72818
230.7560, 46.19281
231.2381, 46.64267
231.7202, 46.88525
232.2023, 46.70868
232.6844, 46.82043
233.1665, 47.45700
233.6487, 48.41046
234.1308, 48.84494
234.6129, 48.26913
235.0950, 47.86073
235.5771, 48.31287
236.0592, 50.28479
236.5414, 51.61015
237.0235, 51.99097
237.5056, 51.70343
237.9877, 51.60124
238.4698, 51.70892
238.9520, 51.96613
239.4341, 52.31416
239.9162, 52.76178
240.3983, 53.15308
240.8804, 53.49577
241.3625, 53.90375
241.8447, 54.54697
242.3268, 55.41063
242.8089, 56.43607
243.2910, 57.69296
243.7731, 59.51674
244.2552, 60.70107
244.7374, 60.94022
245.2195, 60.62564
245.7016, 60.64116
246.1837, 61.10602
246.6658, 61.74197
247.1479, 62.43871
247.6301, 63.18230
248.1122, 64.04816
248.5943, 65.11771
249.0764, 66.27490
249.5585, 67.36371
250.0406, 68.63046
250.5228, 69.40442
251.0049, 69.31741
251.4870, 68.06766
251.9691, 67.27362
252.4512, 67.11159
252.9333, 67.28241
253.4155, 67.36092
253.8976, 67.47864
254.3797, 67.22261
254.8618, 66.33765
255.3439, 64.67461
255.8260, 63.42604
256.3082, 62.84448
256.7903, 62.44379
257.2724, 61.56964
257.7545, 60.11757
258.2366, 58.44052
258.7188, 56.58308
259.2009, 54.57309
259.6830, 52.50006
260.1651, 50.36331
260.6472, 48.20163
261.1293, 46.08926
261.6115, 44.12790
262.0936, 41.99745
262.5757, 39.56537
263.0578, 36.80573
263.5399, 34.40294
264.0220, 32.37994
264.5042, 30.61971
264.9863, 29.02335
265.4684, 27.67706
265.9505, 26.26285
266.4326, 24.71286
266.9147, 23.03461
267.3969, 21.14111
267.8790, 18.82938
268.3611, 16.72447
268.8432, 15.54427
269.3253, 15.57431
269.8074, 15.21890
270.2896, 14.09668
270.7717, 12.39893
271.2538, 11.02394
271.7359, 10.06483
272.2180, 9.232361
272.7001, 8.291779
273.1823, 7.183273
273.6644, 6.291428
274.1465, 5.669800
274.6286, 5.292068
275.1107, 5.098053
275.5928, 5.122269
276.0750, 5.225311
276.5571, 5.390564
277.0392, 5.639450
277.5213, 5.628845
278.0034, 5.260574
278.4855, 4.705276
278.9677, 4.392242
279.4498, 4.363129
279.9319, 4.301132
280.4140, 4.049667
280.8961, 3.608414
281.3782, 2.973068
281.8604, 2.060547
282.3425, 1.132233
282.8246, 0.6385650
283.3067, 0.5899960
283.7888, 0.7018740
284.2709, 0.9886170
284.7531, 1.397339
285.2352, 1.358871
285.7173, 0.7811280
286.1994, 4.9988002E-02
286.6815, 0.3126530
287.1636, 0.3227230
287.6458, 0.2743380
288.1279, 0.2942350
288.6100, 0.3484500
289.0921, 0.2537080
289.5742, 1.5579000E-02
290.0563, 0.2519840
290.5385, 0.1874690
291.0206, 0.1341090
291.5027, 0.4568020
291.9848, 0.6856540
292.4669, 0.8638760
292.9490, 1.108505
293.4312, 1.418304
293.9133, 1.703629
294.3954, 1.873520
294.8775, 1.949203
295.3596, 2.036636
295.8417, 2.264954
296.3239, 2.401367
296.8060, 1.845490
297.2881, 0.6742250
297.7702, 0.2617950
298.2523, 8.9400999E-02
298.7344, 0.7475590
299.2166, 1.280075
299.6987, 1.261566
300.1808, 0.9991150
300.6629, 0.8602750
301.1450, 0.8004910
301.6271, 0.6316220
302.1093, 4.0679999E-02
302.5914, 0.6835940
303.0735, 1.120316
303.5556, 1.112030
304.0377, 1.046173
304.5198, 1.281479
305.0020, 1.756668
305.4841, 2.341537
305.9662, 3.008560
306.4483, 3.677673
306.9304, 4.171738
307.4125, 4.440918
307.8947, 4.834061
308.3768, 5.818756
308.8589, 7.072052
309.3410, 8.122009
309.8231, 8.572189
310.3052, 8.803009
310.7874, 9.007919
311.2695, 9.196976
311.7516, 9.451462
312.2337, 9.861862
312.7158, 10.35600
313.1979, 10.86459
313.6801, 11.42168
314.1622, 11.90996
314.6443, 12.26297
315.1264, 12.48784
315.6085, 12.64854
316.0906, 12.59145
316.5728, 12.65411
317.0549, 13.09549
317.5370, 14.29080
318.0191, 15.41606
318.5012, 16.19229
318.9833, 16.68494
319.4655, 17.08052
319.9476, 17.15077
320.4297, 17.34071
320.9118, 17.93987
321.3939, 19.28519
321.8760, 20.34088
322.3582, 20.71391
322.8403, 20.69562
323.3224, 20.78360
323.8045, 20.79889
324.2866, 21.15965
324.7687, 22.15627
325.2509, 24.06740
325.7330, 25.50932
326.2151, 26.09244
326.6972, 26.29305
327.1793, 26.62846
327.6614, 27.31810
328.1436, 27.90436
328.6257, 28.21320
329.1078, 28.23300
329.5899, 28.62334
330.0720, 29.63878
330.5541, 30.80420
331.0363, 31.76761
331.5184, 32.31215
332.0005, 33.05421
332.4826, 34.30389
332.9647, 35.84091
333.4468, 36.48422
333.9290, 35.60043
334.4111, 34.79141
334.8932, 34.97659
335.3753, 36.51949
335.8574, 37.93581
336.3395, 39.22234
336.8216, 40.31850
337.3037, 41.04788
337.7859, 41.27432
338.2680, 41.54857
338.7501, 42.15572
339.2322, 43.11668
339.7143, 43.82913
340.1964, 44.23816
340.6786, 44.47072
341.1607, 44.68170
341.6428, 44.88556
342.1249, 44.96692
342.6070, 44.81496
343.0891, 44.50613
343.5713, 44.52415
344.0534, 44.90886
344.5355, 45.20316
345.0176, 44.98660
345.4997, 44.31343
345.9818, 43.48199
346.4640, 42.50313
346.9461, 41.47739
347.4282, 40.61789
347.9103, 39.91541
348.3924, 39.23135
348.8745, 38.56149
349.3567, 37.83290
349.8388, 36.85567
350.3209, 35.57660
350.8030, 34.14836
351.2851, 32.78683
351.7672, 31.42934
352.2494, 29.88815
352.7315, 27.96930
353.2136, 25.86411
353.6957, 23.75963
354.1778, 21.65182
354.6599, 19.67242
355.1421, 17.99872
355.6242, 16.49603
356.1063, 14.93587
356.5884, 13.17931
357.0705, 11.34003
357.5526, 9.511612
358.0348, 7.696930
358.5169, 5.895950
358.9990, 4.138702
359.4811, 2.372192
359.9632, 0.5261380
360.4453, 1.799393
360.9275, 3.618713
361.4096, 4.117447
361.8917, 3.817337
362.3738, 3.903824
362.8559, 5.266800
363.3380, 6.692703
363.8202, 7.605743
364.3023, 7.807114
364.7844, 7.920502
365.2665, 7.902664
365.7486, 7.904419
366.2307, 8.104202
366.7129, 9.017471
367.1950, 9.615677
367.6771, 9.599319
368.1592, 8.941147
368.6413, 8.257980
369.1234, 7.469574
369.6056, 6.708588
370.0877, 6.076996
370.5698, 5.781891
371.0519, 5.275482
371.5340, 4.518021
372.0161, 3.522476
372.4983, 2.295105
372.9804, 0.7128140
373.4625, 0.9001010
373.9446, 2.309464
374.4267, 3.375076
374.9088, 4.885162
375.3910, 6.908386
375.8731, 9.276749
376.3552, 11.70404
376.8373, 14.23737
377.3194, 16.69456
377.8015, 18.93433
378.2837, 21.02589
378.7658, 23.31448
379.2479, 25.83940
379.7300, 28.48341
380.2121, 31.12167
380.6942, 33.76018
381.1764, 36.58072
381.6585, 39.61346
382.1406, 42.81303
382.6227, 46.02237
383.1048, 49.27057
383.5869, 52.58932
384.0691, 56.09097
384.5512, 59.65439
385.0333, 62.78571
385.5154, 65.36815
385.9975, 68.05583
386.4796, 71.70183
386.9618, 75.99802
387.4439, 80.17322
387.9260, 83.75146
388.4081, 87.08131
388.8902, 90.61298
389.3723, 94.30815
389.8545, 97.65590
390.3366, 99.93201
390.8187, 101.9145
391.3008, 104.4478
391.7829, 108.0753
392.2650, 111.8638
392.7472, 115.3873
393.2293, 118.7786
393.7114, 122.4474
394.1935, 126.8827
394.6756, 131.3633
395.1577, 135.4572
395.6399, 138.9086
396.1220, 142.6366
396.6041, 146.6587
397.0862, 151.0927
397.5683, 156.0836
398.0504, 162.2352
398.5326, 168.3055
399.0147, 173.8206
399.4968, 178.7783
399.9789, 184.6231
400.4610, 191.6467
400.9431, 199.1867
401.4253, 206.7992
401.9074, 214.3192
402.3895, 222.2982
402.8716, 231.0324
403.3537, 240.0994
403.8358, 248.6126
404.3180, 256.2548
404.8001, 264.0307
405.2822, 272.2972
405.7643, 281.0596
406.2464, 290.4847
406.7285, 300.7820
407.2107, 310.9230
407.6928, 319.6331
408.1749, 326.9667
408.6570, 333.6791
409.1391, 339.7044
409.6212, 345.4603
410.1034, 352.1525
410.5855, 359.7719
411.0676, 366.9558
411.5497, 372.5068
412.0318, 376.9808
412.5139, 381.7296
412.9961, 386.9987
413.4782, 392.3917
413.9603, 397.4698
414.4424, 402.3139
414.9245, 406.9894
415.4066, 411.8131
415.8888, 416.3317
416.3709, 420.1367
416.8530, 423.2445
417.3351, 425.8182
417.8172, 428.4056
418.2993, 430.2084
418.7815, 430.5922
419.2636, 429.4264
419.7457, 426.8944
420.2278, 422.8317
420.7099, 417.3630
421.1920, 411.0871
421.6742, 404.3097
422.1563, 396.6491
422.6384, 387.8883
423.1205, 377.7763
423.6026, 367.2238
424.0847, 355.9845
424.5669, 344.4513
425.0490, 333.1011
425.5311, 321.7509
426.0132, 310.7704
426.4953, 300.0811
426.9774, 289.7950
427.4596, 280.2507
427.9417, 271.2581
428.4238, 263.4212
428.9059, 257.1928
429.3880, 252.9902
429.8701, 248.3296
430.3523, 242.7977
430.8344, 237.3717
431.3165, 233.4262
431.7986, 230.9796
432.2807, 229.6403
432.7628, 229.3026
433.2450, 229.9428
433.7271, 231.6090
434.2092, 234.3201
434.6913, 237.5935
435.1734, 240.9547
435.6555, 244.5972
436.1377, 249.0267
436.6198, 254.4101
437.1019, 260.4830
437.5840, 266.9396
438.0661, 273.8400
438.5482, 281.3493
439.0304, 289.6438
439.5125, 298.5574
439.9946, 307.8582
440.4767, 317.6045
440.9588, 327.7104
441.4409, 338.2498
441.9231, 349.1511
442.4052, 360.3476
442.8873, 371.8787
443.3694, 383.6624
443.8515, 395.4654
444.3336, 407.4740
444.8158, 419.8654
445.2979, 433.0360
445.7800, 446.3926
446.2621, 459.9354
446.7442, 474.1815
447.2263, 487.0511
447.7085, 498.3314
448.1906, 508.4963
448.6727, 518.2076
449.1548, 527.6932
449.6369, 536.1436
450.1190, 543.5687
450.6012, 549.8435
451.0833, 554.7791
451.5654, 558.5078
452.0475, 560.4844
452.5296, 560.2179
453.0117, 557.6595
453.4939, 554.1863
453.9760, 549.6968
454.4581, 544.5714
454.9402, 539.4153
455.4223, 534.0933
455.9044, 527.3721
456.3866, 518.5129
456.8687, 508.5561
457.3508, 499.4320
457.8329, 490.9764
458.3150, 482.7515
458.7971, 474.2777
459.2793, 465.7773
459.7614, 457.6451
460.2435, 450.1470
460.7256, 442.5142
461.2077, 434.0105
461.6898, 425.0497
462.1720, 416.1279
462.6541, 407.1903
463.1362, 398.7806
463.6183, 391.2953
464.1004, 384.7125
464.5826, 377.8448
465.0647, 370.3086
465.5468, 362.3455
466.0289, 354.0320
466.5110, 345.1245
466.9931, 336.4560
467.4753, 328.0352
467.9574, 319.9107
468.4395, 312.0908
468.9216, 304.7190
469.4037, 297.1313
469.8858, 289.0491
470.3680, 280.5896
470.8501, 272.6643
471.3322, 265.3226
471.8143, 258.4131
472.2964, 251.7822
472.7785, 245.4001
473.2607, 238.5428
473.7428, 231.1103
474.2249, 223.4694
474.7070, 215.9918
475.1891, 208.7171
475.6712, 201.8629
476.1534, 195.8411
476.6355, 190.1797
477.1176, 184.0304
477.5997, 177.4698
478.0818, 171.1595
478.5639, 165.7012
479.0461, 160.6735
479.5282, 155.6203
480.0103, 150.4357
480.4924, 145.3579
480.9745, 140.5063
481.4566, 135.8581
481.9388, 131.3816
482.4209, 126.9573
482.9030, 122.7794
483.3851, 119.1534
483.8672, 116.0294
484.3493, 112.5303
484.8315, 108.1098
485.3136, 103.5985
485.7957, 99.44934
486.2778, 95.74483
486.7599, 92.17438
487.2420, 88.89194
487.7242, 85.67641
488.2063, 82.08607
488.6884, 77.84879
489.1705, 74.04964
489.6526, 70.97823
490.1347, 68.52948
490.6169, 66.11063
491.0990, 63.71989
491.5811, 61.28961
492.0632, 58.75677
492.5453, 56.14977
493.0274, 53.48672
493.5096, 50.73306
493.9917, 48.07126
494.4738, 45.63457
494.9559, 43.41878
495.4380, 41.39194
495.9201, 39.75035
496.4023, 38.09279
496.8844, 36.00645
497.3665, 33.59169
497.8486, 31.17128
498.3307, 28.87869
498.8128, 26.68211
499.2950, 24.58174
499.7771, 22.48293
500.2592, 20.71678
500.7413, 19.74103
501.2234, 18.97212
501.7055, 17.84549
502.1877, 15.89384
502.6698, 14.04883
503.1519, 12.40207
503.6340, 10.95221
504.1161, 9.659058
504.5982, 8.620667
505.0804, 7.532761
505.5625, 6.203476
506.0446, 4.596039
506.5267, 3.368973
507.0088, 2.604645
507.4909, 1.949539
507.9731, 0.9410100
508.4552, 0.3850860
508.9373, 1.464478
509.4194, 2.158295
509.9015, 2.624496
510.3836, 3.029831
510.8658, 3.399933
511.3479, 3.827820
511.8300, 4.539902
512.3121, 5.252563
512.7943, 5.508789
513.2764, 5.327118
513.7585, 5.265854
514.2406, 5.865280
514.7227, 6.657196
515.2048, 7.203812
515.6870, 7.410416
516.1691, 7.385208
516.6512, 6.776077
517.1333, 6.030807
517.6154, 5.884674
518.0975, 7.378693
518.5797, 8.485657
519.0618, 8.629501
519.5439, 7.882477
520.0260, 7.376740
520.5081, 7.213135
520.9902, 7.144318
521.4724, 7.065552
521.9545, 7.007843
522.4366, 6.746201
522.9187, 6.195465
523.4008, 5.615265
523.8829, 5.436768
524.3651, 5.625290
524.8472, 5.630569
525.3293, 5.303589
525.8114, 4.704956
526.2935, 3.800079
526.7756, 2.654785
527.2578, 1.639267
527.7399, 1.038635
528.2220, 0.6456300
528.7041, 0.4615630
529.1862, 0.5130620
529.6683, 0.1335750
530.1505, 2.868073
530.6326, 6.184097
531.1147, 8.590927
531.5968, 9.222229
532.0789, 9.636368
532.5610, 9.927017
533.0432, 10.27420
533.5253, 11.05843
534.0074, 12.37030
534.4895, 14.06819
534.9716, 16.22957
535.4537, 18.83005
535.9359, 21.32086
536.4180, 23.62975
536.9001, 25.93704
537.3822, 28.30974
537.8643, 30.70457
538.3464, 33.53014
538.8286, 36.83496
539.3107, 40.47232
539.7928, 44.53006
540.2749, 48.89789
540.7570, 53.01900
541.2391, 56.57750
541.7213, 59.96426
542.2034, 63.69948
542.6855, 67.68918
543.1676, 71.67743
543.6497, 75.61095
544.1318, 79.45573
544.6140, 83.10924
545.0961, 86.54430
545.5782, 90.16806
546.0603, 94.53386
546.5424, 98.99301
547.0245, 102.9598
547.5067, 105.4528
547.9888, 108.7172
548.4709, 113.3326
548.9530, 118.6886
549.4351, 123.8090
549.9172, 128.7677
550.3994, 133.3428
550.8815, 137.3273
551.3636, 140.8405
551.8457, 144.6051
552.3278, 148.6971
552.8099, 152.6817
553.2921, 156.3647
553.7742, 159.7269
554.2563, 162.6470
554.7384, 165.1367
555.2205, 167.1492
555.7026, 168.6085
556.1848, 169.5889
556.6669, 170.1987
557.1490, 170.2810
557.6311, 170.3087
558.1132, 170.5972
558.5953, 171.1143
559.0775, 171.7940
559.5596, 172.4744
560.0417, 173.4212
560.5238, 174.6087
561.0059, 176.0347
561.4880, 178.2704
561.9702, 182.0864
562.4523, 186.1416
562.9344, 189.7609
563.4165, 192.5809
563.8986, 195.9698
564.3807, 200.1329
564.8629, 204.6487
565.3450, 209.0302
565.8271, 213.3426
566.3092, 217.1432
566.7913, 220.2901
567.2734, 222.9806
567.7556, 225.6275
568.2377, 228.1980
568.7198, 230.1655
569.2019, 230.9790
569.6840, 231.1441
570.1661, 231.1738
570.6483, 231.1488
571.1304, 231.6669
571.6125, 233.0743
572.0946, 235.1415
572.5767, 237.5945
573.0588, 240.2295
573.5410, 243.8372
574.0231, 248.6332
574.5052, 254.5885
574.9873, 261.6179
575.4694, 270.1326
575.9515, 279.0614
576.4337, 288.0478
576.9158, 297.5179
577.3979, 308.4504
577.8800, 320.8885
578.3621, 334.6103
578.8442, 349.7971
579.3264, 366.2918
579.8085, 382.6620
580.2906, 399.0271
580.7727, 415.7697
581.2548, 433.3577
581.7369, 451.6536
582.2190, 469.9531
582.7011, 488.4461
583.1832, 507.1050
583.6653, 526.4116
584.1475, 545.8282
584.6296, 564.5561
585.1117, 582.9937
585.5938, 599.9608
586.0759, 614.9872
586.5580, 628.1425
587.0402, 639.0081
587.5223, 648.1113
588.0044, 654.3536
588.4865, 657.3129
588.9686, 656.9293
589.4507, 654.1258
589.9329, 648.7099
590.4150, 641.2808
590.8971, 632.2413
591.3792, 621.5690
591.8613, 608.9895
592.3434, 594.4088
592.8256, 578.0457
593.3077, 559.9513
593.7898, 540.1824
594.2719, 519.3602
594.7540, 497.3958
595.2361, 474.5193
595.7183, 451.1134
596.2004, 427.1654
596.6825, 402.8622
597.1646, 377.4791
597.6467, 352.3871
598.1288, 328.2583
598.6110, 305.0060
599.0931, 282.5924
599.5752, 260.7130
600.0573, 239.9662
600.5394, 220.3450
601.0215, 201.7052
601.5037, 184.5101
601.9858, 168.9373
602.4679, 154.5777
602.9500, 141.2415
603.4321, 128.7849
603.9142, 117.7909
604.3964, 108.3604
604.8785, 100.1143
605.3606, 92.60883
605.8427, 85.85556
606.3248, 79.94830
606.8069, 75.07231
607.2891, 70.83884
607.7712, 66.33400
608.2533, 61.94539
608.7354, 58.89618
609.2175, 59.33301
609.6996, 60.13057
610.1818, 59.19209
610.6639, 56.25961
611.1460, 53.79543
611.6281, 52.29099
612.1102, 51.41162
612.5923, 50.96431
613.0745, 50.95462
613.5566, 51.54129
614.0387, 53.04646
614.5208, 54.65157
615.0029, 55.03999
615.4850, 54.12675
615.9672, 54.27405
616.4493, 56.16937
616.9314, 58.82758
617.4135, 60.55635
617.8956, 61.53154
618.3777, 62.44742
618.8599, 63.69475
619.3420, 65.05385
619.8241, 66.21992
620.3062, 67.19821
620.7883, 68.20108
621.2704, 69.48956
621.7526, 70.68527
622.2347, 71.50430
622.7168, 71.82990
623.1989, 72.47404
623.6810, 73.79749
624.1631, 75.19852
624.6453, 76.23256
625.1274, 76.62877
625.6095, 77.44344
626.0916, 78.84865
626.5737, 80.46638
627.0558, 81.73979
627.5380, 82.72012
628.0201, 83.80174
628.5022, 85.07101
628.9843, 86.43430
629.4664, 87.71454
629.9485, 88.95982
630.4307, 90.34125
630.9128, 91.88995
631.3949, 93.69875
631.8770, 95.80318
632.3591, 98.19345
632.8412, 100.7933
633.3234, 103.6135
633.8055, 106.6707
634.2876, 109.9257
634.7697, 113.4103
635.2518, 117.0372
635.7339, 120.7604
636.2161, 124.7932
636.6982, 129.2941
637.1803, 134.3933
637.6624, 138.8192
638.1445, 142.3890
638.6266, 145.4929
639.1088, 148.8604
639.5909, 152.2588
640.0730, 154.8415
640.5551, 156.2265
641.0372, 156.8093
641.5193, 157.2026
642.0015, 157.1786
642.4836, 156.1890
642.9657, 153.7439
643.4478, 150.5573
643.9299, 146.7928
644.4120, 142.5026
644.8942, 137.9341
645.3763, 133.1709
645.8584, 128.1002
646.3405, 122.4715
646.8226, 116.2653
647.3047, 110.5215
647.7869, 105.4688
648.2690, 100.4001
648.7511, 94.62253
649.2332, 88.29263
649.7153, 82.85294
650.1974, 78.51917
650.6796, 74.62752
651.1617, 70.70314
651.6438, 66.71111
652.1259, 62.63799
652.6080, 58.29498
653.0901, 54.12321
653.5723, 50.47665
654.0544, 47.14140
654.5365, 43.85283
655.0186, 40.36241
655.5007, 37.12123
655.9828, 34.29985
656.4650, 31.80016
656.9471, 29.33206
657.4292, 26.83386
657.9113, 24.50774
658.3934, 22.45575
658.8755, 20.63576
659.3577, 18.79660
659.8398, 16.91028
660.3219, 15.10326
660.8040, 13.29680
661.2861, 11.64290
661.7682, 10.57492
662.2504, 10.10948
662.7325, 9.623276
663.2146, 8.683151
663.6967, 7.504547
664.1788, 6.260010
664.6609, 4.881897
665.1431, 3.699860
665.6252, 2.783600
666.1073, 2.113998
666.5894, 1.671722
667.0715, 1.617493
667.5536, 1.467300
668.0358, 1.142227
668.5179, 0.7497250
669.0000, 0.5325780
669.4821, 0.4981540
669.9642, 0.2797390
670.4464, 0.3281560
670.9285, 1.041687
671.4106, 1.273727
671.8927, 1.157761
672.3748, 1.182846
672.8569, 1.878616
673.3391, 2.583023
673.8212, 2.739838
674.3033, 2.416733
674.7854, 2.139969
675.2675, 1.947922
675.7496, 1.949158
676.2318, 2.302292
676.7139, 3.072281
677.1960, 3.436478
677.6781, 3.278839
678.1602, 2.935211
678.6423, 2.550690
679.1245, 2.119904
679.6066, 2.026566
680.0887, 2.322327
680.5708, 2.705276
681.0529, 2.927307
681.5350, 2.998505
682.0172, 2.915466
682.4993, 2.631470
682.9814, 2.346512
683.4635, 2.127975
683.9456, 2.021454
684.4277, 2.092407
684.9099, 2.680588
685.3920, 3.061028
685.8741, 3.022629
686.3562, 2.717491
686.8383, 2.372192
687.3204, 1.918137
687.8026, 1.628860
688.2847, 1.643860
688.7668, 1.823196
689.2489, 1.721176
689.7310, 1.347855
690.2131, 0.9748540
690.6953, 0.8569950
691.1774, 0.7619630
691.6595, 8.0246001E-02
692.1416, 1.024933
692.6237, 1.647232
693.1058, 0.3571170
693.5880, 0.8415220
694.0701, 0.1777340
694.5522, 2.705460
695.0343, 4.184998
695.5164, 2.714096
695.9985, 0.7513890
696.4807, 0.5943300
696.9628, 1.291656
697.4449, 1.382614
697.9270, 0.7088470
698.4091, 0.1433260
698.8912, 0.6853180
699.3734, 0.9282230
699.8555, 0.8694150
700.3376, 0.4620360
700.8197, 1.3733000E-02
701.3018, 0.1481930
701.7839, 0.1608890
702.2661, 0.2339630
702.7482, 0.5527650
703.2303, 0.7464450
703.7124, 0.6647340
704.1945, 0.3630680
704.6766, 8.3159998E-02
705.1588, 0.8048400
705.6409, 1.466721
706.1230, 2.132187
706.6051, 2.652954
707.0872, 2.476791
707.5693, 1.514771
708.0515, 1.097626
708.5336, 1.963577
709.0157, 3.380615
709.4978, 3.843048
709.9799, 3.515854
710.4620, 3.066895
710.9442, 2.819244
711.4263, 2.619522
711.9084, 2.372025
712.3905, 2.074127
712.8726, 1.742706
713.3547, 1.050934
713.8369, 0.6555940
714.3190, 0.8898010
714.8011, 1.775772
715.2832, 2.564636
715.7653, 3.335159
716.2474, 3.827240
716.7296, 3.690048
717.2117, 3.043427
717.6938, 2.931046
718.1759, 3.398972
718.6580, 3.890747
719.1401, 3.857819
719.6223, 3.589432
720.1044, 3.481537
720.5865, 3.618225
721.0686, 3.748978
721.5507, 3.487045
722.0328, 3.322983
722.5150, 3.743423
722.9971, 5.758957
723.4792, 6.570572
723.9613, 5.562012
724.4434, 4.011368
724.9255, 3.386826
725.4077, 3.731064
725.8898, 4.436401
726.3719, 5.557663
726.8540, 6.560211
727.3361, 6.532761
727.8182, 5.794449
728.3004, 5.152542
728.7825, 4.874329
729.2646, 4.768143
729.7467, 4.830612
730.2288, 4.955627
730.7109, 4.930481
731.1931, 4.353668
731.6752, 4.093735
732.1573, 4.544144
732.6394, 5.382919
733.1215, 5.681442
733.6036, 5.299561
734.0858, 4.832977
734.5679, 4.380188
735.0500, 4.022675
735.5321, 4.072006
736.0142, 4.460526
736.4963, 4.707153
736.9785, 4.344559
737.4606, 3.853561
737.9427, 3.780151
738.4248, 4.009506
738.9069, 3.987167
739.3890, 3.084091
739.8712, 2.312668
740.3533, 2.227402
740.8354, 2.792831
741.3175, 3.200775
741.7996, 3.442490
742.2817, 3.522720
742.7639, 3.348557
743.2460, 2.974060
743.7281, 2.825989
744.2102, 2.922134
744.6923, 2.933121
745.1744, 2.385941
745.6566, 1.713409
746.1387, 1.581436
746.6208, 2.049652
747.1029, 2.271088
747.5850, 1.456238
748.0671, 0.5585630
748.5493, 0.2332460
749.0314, 0.6837920
749.5135, 1.178940
749.9956, 1.889313
750.4777, 2.340347
750.9598, 1.949539
751.4420, 0.6920320
751.9241, 0.1538090
752.4062, 0.4967650
752.8883, 1.094910
753.3704, 1.566132
753.8525, 1.803223
754.3347, 1.465454
754.8168, 0.3430630
755.2989, 0.5569920
755.7810, 0.4290770
756.2631, 0.1148830
756.7452, 0.4188840
757.2274, 0.1258240
757.7095, 2.1360000E-03
758.1916, 0.1635740
758.6737, 0.3343810
759.1558, 7.3196001E-02
759.6379, 0.6507870
760.1201, 0.8653720
760.6022, 0.3225710
761.0843, 0.3927760
761.5664, 0.5411070
762.0485, 0.3028870
762.5306, 2.2263000E-02
763.0128, 0.2613220
763.4949, 0.4729310
763.9770, 0.5379940
764.4591, 0.5047450
764.9412, 0.4448850
765.4233, 0.3675690
765.9055, 0.2647710
766.3876, 0.1057130
766.8697, 6.9472998E-02
767.3518, 0.1422730
767.8339, 9.4437003E-02
768.3160, 0.1983640
768.7982, 0.5929720
769.2803, 1.043869
769.7624, 1.189896
770.2445, 1.096542
770.7266, 0.9312590
771.2087, 0.5483250
771.6909, 0.3374630
772.1730, 0.6063840
772.6551, 1.194580
773.1372, 1.728882
773.6193, 2.265427
774.1014, 2.575882
774.5836, 2.486176
775.0657, 2.200729
775.5478, 2.427658
776.0299, 3.202591
776.5120, 3.714401
776.9941, 3.516098
777.4763, 3.046814
777.9584, 3.032745
778.4405, 3.380539
778.9226, 3.779999
779.4047, 4.245773
779.8868, 4.566391
780.3690, 4.532181
780.8511, 4.246490
781.3332, 4.128967
781.8153, 4.268448
782.2974, 4.454712
782.7795, 4.633652
783.2617, 4.825745
783.7438, 5.139633
784.2259, 5.581680
784.7080, 5.955139
785.1901, 6.124146
785.6722, 6.198685
786.1544, 6.323517
786.6365, 6.501633
787.1186, 6.739410
787.6007, 6.985825
788.0828, 7.339493
788.5649, 7.993835
789.0471, 8.867996
789.5292, 9.323883
790.0113, 9.187119
790.4934, 8.942245
790.9755, 8.637909
791.4576, 8.373947
791.9398, 8.720749
792.4219, 9.648499
792.9040, 10.46552
793.3861, 10.47903
793.8682, 10.33952
794.3503, 11.08405
794.8325, 12.48126
795.3146, 13.50560
795.7967, 12.46164
796.2788, 12.13853
796.7609, 14.92294
797.2430, 20.16435
797.7252, 21.90639
798.2073, 18.69638
798.6894, 15.51480
799.1715, 14.45601
799.6536, 15.05148
800.1357, 15.84018
800.6179, 16.77687
801.1000, 17.40770
801.5821, 16.96175
802.0642, 16.44373
802.5463, 16.73659
803.0284, 17.83055
803.5106, 19.51195
803.9927, 23.29333
804.4748, 25.95094
804.9569, 25.88956
805.4390, 23.48914
805.9211, 22.13766
806.4033, 22.00778
806.8854, 22.17645
807.3675, 22.24783
807.8496, 22.27641
808.3317, 22.41690
808.8138, 22.65613
809.2960, 22.91948
809.7781, 23.22023
810.2602, 23.48137
810.7423, 23.50914
811.2244, 23.37962
811.7065, 23.67801
812.1887, 25.13820
812.6708, 26.20818
813.1529, 26.24089
813.6350, 25.47218
814.1171, 25.18256
814.5992, 25.36388
815.0814, 26.17422
815.5635, 28.43086
816.0456, 30.94299
816.5277, 31.37413
817.0098, 30.18103
817.4919, 29.16985
817.9741, 29.45325
818.4562, 29.94405
818.9383, 30.17073
819.4204, 30.13217
819.9025, 30.04634
820.3846, 29.86523
820.8668, 29.75952
821.3489, 29.79785
821.8310, 29.94482
822.3131, 30.10571
822.7952, 30.28006
823.2773, 30.45627
823.7595, 30.60922
824.2416, 30.77492
824.7237, 31.01215
825.2058, 31.29785
825.6879, 31.55769
826.1700, 31.58752
826.6522, 31.81519
827.1343, 32.46916
827.6164, 33.37492
828.0985, 33.95813
828.5806, 34.20972
829.0627, 34.21472
829.5449, 33.87862
830.0270, 33.46114
830.5091, 33.69849
830.9912, 34.31776
831.4733, 34.46187
831.9554, 32.88333
832.4376, 31.56674
832.9197, 31.85654
833.4018, 33.20914
833.8839, 34.17834
834.3660, 34.57144
834.8481, 34.72383
835.3303, 34.60786
835.8124, 34.36603
836.2945, 34.31085
836.7766, 34.42670
837.2587, 34.57185
837.7408, 34.68843
838.2230, 34.85609
838.7051, 35.08459
839.1872, 35.44104
839.6693, 36.04456
840.1514, 37.43047
840.6335, 38.42068
841.1157, 38.52905
841.5978, 38.25690
842.0799, 38.24466
842.5620, 38.50543
843.0441, 38.80237
843.5262, 39.11047
844.0084, 39.43495
844.4905, 39.79782
844.9726, 40.19179
845.4547, 40.52878
845.9368, 40.64444
846.4189, 41.01456
846.9011, 42.27063
847.3832, 43.77101
847.8653, 44.73421
848.3474, 44.57388
848.8295, 44.81970
849.3116, 45.65494
849.7938, 46.73390
850.2759, 47.59204
850.7580, 48.27165
851.2401, 49.22525
851.7222, 50.54704
852.2043, 51.81625
852.6865, 52.55609
853.1686, 53.12602
853.6507, 53.91631
854.1328, 55.02718
854.6149, 55.95879
855.0970, 56.44801
855.5792, 57.03267
856.0613, 57.99884
856.5434, 59.29028
857.0255, 60.89233
857.5076, 62.91443
857.9897, 64.57097
858.4719, 64.66237
858.9540, 64.13655
859.4361, 64.64443
859.9182, 66.27920
860.4003, 67.86185
860.8824, 68.96719
861.3646, 69.74368
861.8467, 70.21844
862.3288, 70.41432
862.8109, 70.63325
863.2930, 70.85908
863.7751, 71.15078
864.2573, 71.65664
864.7394, 72.23346
865.2215, 72.30672
865.7036, 71.92847
866.1857, 71.51427
866.6678, 71.38990
867.1500, 71.26196
867.6321, 70.93458
868.1142, 70.45143
868.5963, 70.04464
869.0784, 70.02738
869.5605, 69.61588
870.0427, 68.41368
870.5248, 66.73833
871.0069, 65.74802
871.4890, 65.38383
871.9711, 64.99835
872.4532, 64.25496
872.9354, 63.41707
873.4175, 62.86517
873.8996, 62.41785
874.3817, 61.68152
874.8638, 60.11278
875.3459, 58.76103
875.8281, 57.64236
876.3102, 56.93152
876.7923, 57.31000
877.2744, 58.93575
877.7565, 59.27167
878.2386, 57.54736
878.7208, 55.10303
879.2029, 53.57932
879.6850, 52.60342
880.1671, 51.51282
880.6492, 50.03275
881.1313, 48.62469
881.6135, 47.51775
882.0956, 46.51785
882.5777, 45.42950
883.0598, 44.22215
883.5419, 42.99522
884.0240, 41.69614
884.5062, 40.59261
884.9883, 40.19565
885.4704, 40.15776
885.9525, 39.63824
886.4346, 38.51320
886.9167, 37.33943
887.3989, 36.54958
887.8810, 35.73929
888.3631, 34.54611
888.8452, 32.87379
889.3273, 31.50233
889.8094, 30.53799
890.2916, 29.58195
890.7737, 28.32251
891.2558, 26.87778
891.7379, 25.72218
892.2200, 24.82607
892.7021, 23.96359
893.1843, 22.95656
893.6664, 21.97417
894.1485, 21.20358
894.6306, 20.59589
895.1127, 19.78659
895.5948, 18.70981
896.0770, 17.52689
896.5591, 16.21646
897.0412, 14.89026
897.5233, 13.99951
898.0054, 13.43951
898.4875, 12.50381
898.9697, 10.63834
899.4518, 8.731430
899.9339, 7.586578
900.4160, 6.896454
900.8981, 6.140610
901.3802, 5.223618
901.8624, 4.190140
902.3445, 2.961426
902.8266, 1.711914
903.3087, 0.6809540
903.7908, 0.1422120
904.2729, 0.9302370
904.7551, 1.707764
905.2372, 2.454971
905.7193, 3.019302
906.2014, 3.612930
906.6835, 4.515900
907.1656, 5.870422
907.6478, 7.125778
908.1299, 8.206360
908.6120, 9.158798
909.0941, 9.973007
909.5762, 10.63948
910.0583, 11.55449
910.5405, 12.72882
911.0226, 13.64735
911.5047, 13.54848
911.9868, 13.25967
912.4689, 13.88330
912.9510, 15.29559
913.4332, 16.31372
913.9153, 16.19550
914.3974, 16.06572
914.8795, 16.22128
915.3616, 16.62387
915.8438, 17.25749
916.3259, 18.12306
916.8080, 18.61980
917.2901, 18.40407
917.7722, 17.87244
918.2543, 17.38583
918.7365, 16.95851
919.2186, 16.65753
919.7007, 16.67702
920.1828, 16.56317
920.6649, 16.27739
921.1470, 15.83183
921.6292, 15.25412
922.1113, 14.53864
922.5934, 13.64532
923.0755, 12.55673
923.5576, 11.27609
924.0397, 9.804810
924.5219, 8.170898
925.0040, 6.536133
925.4861, 4.959015
925.9682, 2.974518
926.4503, 0.2420960
926.9324, 2.706390
927.4146, 5.564392
927.8967, 8.313232
928.3788, 11.63348
928.8609, 15.60016
929.3430, 19.55206
929.8251, 22.49591
930.3073, 25.65021
930.7894, 30.67645
931.2715, 37.36758
931.7536, 44.28424
932.2357, 50.80182
932.7178, 57.87833
933.2000, 65.78156
933.6821, 74.39337
934.1642, 83.58786
934.6463, 93.26642
935.1284, 104.2637
935.6105, 116.5136
936.0927, 130.1900
936.5748, 144.9613
937.0569, 161.1510
937.5390, 179.5236
938.0211, 200.4399
938.5032, 222.8826
938.9854, 246.1228
939.4675, 271.0264
939.9496, 298.8591
940.4317, 329.5181
940.9138, 362.8111
941.3959, 398.5719
941.8781, 437.1397
942.3602, 477.8348
942.8423, 521.5288
943.3244, 569.4592
943.8065, 622.0790
944.2886, 678.5297
944.7708, 737.8413
945.2529, 802.1597
945.7350, 871.6394
946.2171, 946.5294
946.6992, 1030.536
947.1813, 1122.535
947.6635, 1220.607
948.1456, 1323.029
948.6277, 1432.164
949.1098, 1550.406
949.5919, 1676.940
950.0740, 1810.851
950.5562, 1953.047
951.0383, 2099.350
951.5204, 2249.722
952.0025, 2403.568
952.4846, 2560.602
952.9667, 2720.627
953.4489, 2881.484
953.9310, 3043.340
954.4131, 3208.684
954.8952, 3380.827
955.3773, 3559.521
955.8594, 3743.436
956.3416, 3933.839
956.8237, 4124.934
957.3058, 4314.777
957.7879, 4509.420
958.2700, 4712.689
958.7521, 4920.406
959.2343, 5122.229
959.7164, 5318.540
960.1985, 5512.011
960.6806, 5705.325
961.1627, 5892.786
961.6448, 6070.666
962.1270, 6238.802
962.6091, 6394.614
963.0912, 6545.364
963.5733, 6670.574
964.0554, 6770.270
964.5375, 6840.292
965.0197, 6874.842
965.5018, 6874.496
965.9839, 6843.438
966.4660, 6784.440
966.9481, 6679.516
967.4302, 6511.276
967.9124, 6298.875
968.3945, 6055.324
968.8766, 5778.625
969.3587, 5480.967
969.8408, 5155.506
970.3229, 4826.844
970.8051, 4499.571
971.2872, 4179.542
971.7693, 3873.703
972.2514, 3580.754
972.7335, 3305.527
973.2156, 3048.727
973.6978, 2811.695
974.1799, 2597.066
974.6620, 2399.692
975.1441, 2215.138
975.6262, 2043.892
976.1083, 1888.938
976.5905, 1752.081
977.0726, 1628.774
977.5547, 1514.698
978.0368, 1408.606
978.5189, 1310.680
979.0010, 1221.091
979.4832, 1138.957
979.9653, 1064.359
980.4474, 995.9797
980.9295, 934.8978
981.4116, 880.5098
981.8937, 830.2589
982.3759, 784.1624
982.8580, 742.4960
983.3401, 705.6177
983.8222, 672.8679
984.3043, 644.7977
984.7864, 620.5880
985.2686, 598.6450
985.7507, 578.1025
986.2328, 560.9926
986.7149, 548.1987
987.1970, 537.7335
987.6791, 526.2396
988.1613, 514.7786
988.6434, 506.3300
989.1255, 501.5734
989.6076, 498.5332
990.0897, 496.2568
990.5718, 495.1407
991.0540, 495.6421
991.5361, 497.7793
992.0182, 500.0395
992.5003, 502.1226
992.9824, 506.2583
993.4645, 514.2142
993.9467, 524.5739
994.4288, 534.5240
994.9109, 544.7925
995.3930, 557.0501
995.8751, 572.3011
996.3572, 589.3830
996.8394, 607.8932
997.3215, 628.2921
997.8036, 651.0161
998.2857, 676.1398
998.7678, 703.2543
999.2499, 731.7653
999.7321, 762.8602
1000.214, 797.9451
1000.696, 835.2784
1001.178, 872.9011
1001.661, 910.0903
1002.143, 950.3558
1002.625, 993.7769
1003.107, 1039.731
1003.589, 1088.011
1004.071, 1138.680
1004.553, 1190.530
1005.035, 1243.939
1005.517, 1298.346
1006.000, 1354.882
1006.482, 1411.891
1006.964, 1467.367
1007.446, 1523.125
1007.928, 1580.499
1008.410, 1640.780
1008.892, 1699.455
1009.374, 1755.968
1009.857, 1812.098
1010.339, 1867.797
1010.821, 1923.534
1011.303, 1979.165
1011.785, 2035.219
1012.267, 2092.727
1012.749, 2152.925
1013.231, 2213.570
1013.713, 2274.552
1014.196, 2335.891
1014.678, 2397.140
1015.160, 2458.540
1015.642, 2520.288
1016.124, 2582.142
1016.606, 2644.812
1017.088, 2708.404
1017.570, 2772.861
1018.052, 2837.518
1018.535, 2903.909
1019.017, 2967.575
1019.499, 3028.615
1019.981, 3086.657
1020.463, 3140.574
1020.945, 3191.684
1021.427, 3244.040
1021.909, 3296.855
1022.392, 3343.927
1022.874, 3382.212
1023.356, 3413.929
1023.838, 3440.085
1024.320, 3460.325
1024.802, 3474.180
1025.284, 3481.945
1025.766, 3478.214
1026.249, 3462.150
1026.731, 3433.724
1027.213, 3392.348
1027.695, 3338.943
1028.177, 3273.943
1028.659, 3197.094
1029.141, 3111.027
1029.623, 3015.867
1030.105, 2912.005
1030.588, 2799.169
1031.070, 2679.026
1031.552, 2556.692
1032.034, 2433.605
1032.516, 2310.762
1032.998, 2189.360
1033.480, 2069.628
1033.962, 1949.303
1034.444, 1830.526
1034.927, 1717.704
1035.409, 1610.124
1035.891, 1507.298
1036.373, 1407.898
1036.855, 1313.719
1037.337, 1223.338
1037.819, 1137.687
1038.301, 1059.306
1038.784, 987.5648
1039.266, 920.8349
1039.748, 860.4102
1040.230, 801.9166
1040.712, 744.7747
1041.194, 689.7664
1041.676, 641.0510
1042.158, 597.6643
1042.641, 557.5626
1043.123, 520.5287
1043.605, 485.5443
1044.087, 452.7936
1044.569, 422.4163
1045.051, 394.2555
1045.533, 368.5267
1046.015, 343.9628
1046.497, 320.5714
1046.979, 298.8777
1047.462, 280.3490
1047.944, 263.5264
1048.426, 246.5096
1048.908, 229.6349
1049.390, 214.3958
1049.872, 202.7010
1050.354, 190.5569
1050.836, 177.2346
1051.319, 163.7091
1051.801, 151.4518
1052.283, 140.1741
1052.765, 129.3792
1053.247, 118.9890
1053.729, 109.4973
1054.211, 101.7584
1054.693, 94.49890
1055.176, 87.10437
1055.658, 79.54755
1056.140, 71.74756
1056.622, 63.62054
1057.104, 56.35419
1057.586, 50.58728
1058.068, 45.37457
1058.550, 39.35138
1059.032, 33.25995
1059.515, 27.92053
1059.997, 23.57806
1060.479, 20.03601
1060.961, 17.57385
1061.443, 15.29840
1061.925, 12.56879
1062.407, 9.504456
1062.889, 6.407349
1063.371, 3.295227
1063.854, 0.3545530
1064.336, 2.955505
1064.818, 5.356323
1065.300, 5.674011
1065.782, 5.192200
1066.264, 5.953918
1066.746, 8.022400
1067.228, 9.020416
1067.711, 8.578644
1068.193, 7.790131
1068.675, 7.291168
1069.157, 7.145416
1069.639, 7.396515
1070.121, 8.043701
1070.603, 9.348663
1071.085, 11.63931
1071.568, 13.62701
1072.050, 14.81534
1072.532, 15.69678
1073.014, 17.26520
1073.496, 19.24631
1073.978, 21.13095
1074.460, 22.88657
1074.942, 24.23782
1075.424, 25.27567
1075.906, 25.74286
1076.389, 25.34979
1076.871, 24.18579
1077.353, 23.29932
1077.835, 22.63412
1078.317, 21.70264
1078.799, 20.07178
1079.281, 18.26208
1079.763, 16.60132
1080.245, 14.95038
1080.728, 13.00775
1081.210, 10.63025
1081.692, 8.693054
1082.174, 7.305298
1082.656, 6.050903
1083.138, 4.817749
1083.620, 3.303040
1084.102, 0.9672240
1084.585, 2.138000
1085.067, 5.041229
1085.549, 7.619843
1086.031, 9.928741
1086.513, 11.75787
1086.995, 13.69794
1087.477, 17.21011
1087.959, 21.66205
1088.442, 25.23138
1088.924, 27.32898
1089.406, 29.76373
1089.888, 33.50861
1090.370, 37.60553
1090.852, 41.38919
1091.334, 45.02606
1091.816, 49.95068
1092.298, 56.07175
1092.781, 62.30148
1093.263, 68.01370
1093.745, 73.84573
1094.227, 80.47321
1094.709, 87.45834
1095.191, 94.11566
1095.673, 99.93320
1096.155, 107.1782
1096.637, 116.0436
1097.120, 125.5860
1097.602, 134.7986
1098.084, 144.2549
1098.566, 154.5782
1099.048, 165.7962
1099.530, 177.8576
1100.012, 190.8889
1100.494, 204.5523
1100.977, 218.5660
1101.459, 233.3544
1101.941, 249.7272
1102.423, 267.2071
1102.905, 284.9221
1103.387, 302.7010
1103.869, 321.1315
1104.351, 340.7193
1104.833, 360.9574
1105.316, 381.6172
1105.798, 402.9769
1106.280, 425.8779
1106.762, 450.3023
1107.244, 473.8644
1107.726, 495.9408
1108.208, 518.3687
1108.690, 542.6687
1109.172, 567.7967
1109.655, 592.9898
1110.137, 618.4824
1110.619, 641.1829
1111.101, 660.9664
1111.583, 679.8336
1112.065, 699.4655
1112.547, 717.8231
1113.029, 732.6312
1113.512, 744.3698
1113.994, 753.9692
1114.476, 762.3936
1114.958, 766.8384
1115.440, 767.2255
1115.922, 763.9570
1116.404, 757.2387
1116.886, 747.1808
1117.369, 733.4745
1117.851, 716.4892
1118.333, 697.6976
1118.815, 677.4764
1119.297, 655.3488
1119.779, 630.9139
1120.261, 605.1190
1120.743, 578.7377
1121.225, 551.9687
1121.708, 526.4248
1122.190, 501.8355
1122.672, 476.8459
1123.154, 449.7077
1123.636, 423.2607
1124.118, 398.4956
1124.600, 375.1933
1125.082, 352.8711
1125.564, 331.5312
1126.047, 311.6825
1126.529, 293.6481
1127.011, 276.2700
1127.493, 258.2967
1127.975, 241.0023
1128.457, 225.5797
1128.939, 211.8321
1129.421, 198.3048
1129.904, 184.8630
1130.386, 172.5747
1130.868, 162.0974
1131.350, 152.1532
1131.832, 141.0063
1132.314, 129.6417
1132.796, 119.9272
1133.278, 112.5620
1133.760, 104.5745
1134.243, 95.72429
1134.725, 87.37440
1135.207, 80.27759
1135.689, 74.09583
1136.171, 68.88612
1136.653, 64.26749
1137.135, 59.24405
1137.617, 52.60368
1138.099, 46.87935
1138.582, 42.32904
1139.064, 38.59840
1139.546, 35.73474
1140.028, 33.30045
1140.510, 30.20584
1140.992, 26.50247
1141.474, 23.07285
1141.956, 20.05212
1142.439, 17.71912
1142.921, 16.18661
1143.403, 15.05800
1143.885, 13.68594
1144.367, 12.16359
1144.849, 10.67682
1145.331, 9.272247
1145.813, 7.909698
1146.296, 6.497543
1146.778, 5.148346
1147.260, 3.896912
1147.742, 2.736511
1148.224, 1.588608
1148.706, 0.4776610
1149.188, 0.3607640
1149.670, 0.9061280
1150.152, 1.109283
1150.635, 0.6139830
1151.117, 4.5791999E-02
1151.599, 6.5505996E-02
1152.081, 0.2249600
1152.563, 0.2695470
1153.045, 6.7688003E-02
1153.527, 0.1146850
1154.009, 0.7666470
1154.491, 1.354431
1154.974, 1.198196
1155.456, 0.6324160
1155.938, 8.4702000E-02
1156.420, 1.024780
1156.902, 1.325562
1157.384, 0.9090880
1157.866, 0.5344700
1158.348, 0.7271730
1158.831, 1.094528
1159.313, 1.215134
1159.795, 1.182922
1160.277, 1.177505
1160.759, 1.277695
1161.241, 1.377930
1161.723, 1.501709
1162.205, 1.558304
1162.688, 1.272507
1163.170, 0.9950100
1163.652, 1.384232
1164.134, 2.216812
1164.616, 2.794739
1165.098, 2.714325
1165.580, 2.831207
1166.062, 3.239532
1166.544, 3.803726
1167.026, 4.511642
1167.509, 5.217361
1167.991, 5.705750
1168.473, 5.961838
1168.955, 5.994858
1169.437, 5.367645
1169.919, 5.184219
1170.401, 5.767456
1170.883, 6.577988
1171.366, 6.788406
1171.848, 6.654190
1172.330, 6.726913
1172.812, 7.076309
1173.294, 7.506638
1173.776, 8.013626
1174.258, 8.509537
1174.740, 9.028473
1175.223, 9.465210
1175.705, 9.492401
1176.187, 9.271545
1176.669, 9.308456
1177.151, 9.712433
1177.633, 10.22783
1178.115, 10.99896
1178.597, 11.53835
1179.079, 11.51550
1179.562, 11.21652
1180.044, 11.65453
1180.526, 12.63846
1181.008, 13.45271
1181.490, 13.91520
1181.972, 14.12580
1182.454, 14.02221
1182.936, 13.72671
1183.418, 12.93743
1183.901, 12.03238
1184.383, 13.71834
1184.865, 17.45724
1185.347, 20.58855
1185.829, 22.35352
1186.311, 22.79483
1186.793, 20.99535
1187.275, 18.61952
1187.758, 16.77685
1188.240, 15.48970
1188.722, 14.90942
1189.204, 14.95508
1189.686, 15.02785
1190.168, 14.77600
1190.650, 14.55302
1191.132, 14.62464
1191.615, 14.73377
1192.097, 14.38841
1192.579, 13.55495
1193.061, 14.52225
1193.543, 17.10870
1194.025, 19.11438
1194.507, 19.00247
1194.989, 18.20039
1195.471, 17.12762
1195.953, 16.01493
1196.436, 15.11473
1196.918, 14.42483
1197.400, 14.11617
1197.882, 14.19037
1198.364, 14.24019
1198.846, 13.69300
1199.328, 13.36770
1199.810, 14.14573
1200.293, 15.29271
1200.775, 15.45795
1201.257, 14.60118
1201.739, 14.44643
1202.221, 15.13955
1202.703, 15.66631
1203.185, 14.96693
1203.667, 14.16431
1204.150, 14.02792
1204.632, 14.28664
1205.114, 14.33045
1205.596, 14.14690
1206.078, 14.09849
1206.560, 14.23428
1207.042, 14.27934
1207.524, 14.00279
1208.006, 13.62437
1208.489, 13.29183
1208.971, 13.02144
1209.453, 12.86755
1209.935, 12.80627
1210.417, 12.56844
1210.899, 12.10554
1211.381, 11.59107
1211.863, 11.00414
1212.345, 10.51488
1212.828, 10.45258
1213.310, 10.66693
1213.792, 10.49490
1214.274, 9.955299
1214.756, 9.492973
1215.238, 9.168228
1215.720, 8.995964
1216.202, 8.578812
1216.685, 8.765640
1217.167, 10.76780
1217.649, 13.95226
1218.131, 15.09387
1218.613, 14.26670
1219.095, 12.72834
1219.577, 10.60906
1220.059, 8.781799
1220.542, 8.001396
1221.024, 7.682289
1221.506, 7.371391
1221.988, 7.109528
1222.470, 7.319588
1222.952, 7.927208
1223.434, 8.166733
1223.916, 7.646996
1224.398, 7.140289
1224.880, 7.284729
1225.363, 7.544495
1225.845, 7.442062
1226.327, 7.041878
1226.809, 7.058746
1227.291, 7.419952
1227.773, 7.592133
1228.255, 7.265160
1228.737, 7.004807
1229.220, 7.316162
1229.702, 7.629326
1230.184, 7.452560
1230.666, 6.870049
1231.148, 6.680344
1231.630, 6.826073
1232.112, 6.903542
1232.594, 6.667961
1233.077, 6.479233
1233.559, 6.517952
1234.041, 6.654953
1234.523, 6.816566
1235.005, 7.007286
1235.487, 7.204010
1235.969, 7.424553
1236.451, 7.751846
1236.933, 8.485741
1237.416, 8.880859
1237.898, 8.351006
1238.380, 7.705788
1238.862, 7.520248
1239.344, 7.710632
1239.826, 7.793968
1240.308, 7.791573
1240.790, 7.811020
1241.272, 7.893501
1241.755, 7.998253
1242.237, 8.122032
1242.719, 8.361816
1243.201, 8.803139
1243.683, 9.375519
1244.165, 9.876068
1244.647, 10.40314
1245.129, 10.60167
1245.612, 10.28208
1246.094, 9.920013
1246.576, 9.471161
1247.058, 9.191345
1247.540, 9.363037
1248.022, 9.938690
1248.504, 10.53481
1248.986, 11.05009
1249.469, 11.31658
1249.951, 10.94315
1250.433, 10.98173
1250.915, 11.72112
1251.397, 12.40930
1251.879, 12.03073
1252.361, 11.21744
1252.843, 11.12369
1253.325, 11.56888
1253.807, 11.86825
1254.290, 11.63502
1254.772, 11.72182
1255.254, 12.28319
1255.736, 12.72010
1256.218, 12.30345
1256.700, 11.57975
1257.182, 11.33057
1257.664, 11.46345
1258.147, 11.58821
1258.629, 11.63248
1259.111, 11.69186
1259.593, 11.81410
1260.075, 12.02265
1260.557, 12.18350
1261.039, 12.17516
1261.521, 11.85455
1262.004, 11.42087
1262.486, 11.34378
1262.968, 11.69255
1263.450, 12.15305
1263.932, 12.75383
1264.414, 13.06575
1264.896, 12.52464
1265.378, 11.84316
1265.860, 11.62836
1266.343, 11.68690
1266.825, 11.63062
1267.307, 11.47519
1267.789, 11.09737
1268.271, 10.50880
1268.753, 10.04558
1269.235, 10.01895
1269.717, 10.08987
1270.199, 9.978432
1270.682, 9.851067
1271.164, 10.03331
1271.646, 10.47575
1272.128, 10.52961
1272.610, 10.18626
1273.092, 9.853767
1273.574, 9.774422
1274.056, 9.703766
1274.539, 9.524139
1275.021, 9.366280
1275.503, 9.381477
1275.985, 9.544044
1276.467, 9.889000
1276.949, 10.36795
1277.431, 10.64381
1277.913, 10.39844
1278.396, 10.18375
1278.878, 10.13129
1279.360, 10.08989
1279.842, 9.839287
1280.324, 9.498398
1280.806, 9.367676
1281.288, 9.398247
1281.770, 9.296883
1282.252, 8.817223
1282.734, 8.584976
1283.217, 8.761261
1283.699, 8.843330
1284.181, 8.081375
1284.663, 7.097824
1285.145, 6.862640
1285.627, 7.156723
1286.109, 6.942245
1286.591, 5.880470
1287.074, 5.461571
1287.556, 5.890022
1288.038, 6.364189
1288.520, 6.214722
1289.002, 5.796730
1289.484, 5.325676
1289.966, 4.843933
1290.448, 4.406761
1290.931, 4.012077
1291.413, 3.732735
1291.895, 3.572319
1292.377, 3.354454
1292.859, 2.860924
1293.341, 2.378288
1293.823, 2.094810
1294.305, 1.906319
1294.787, 1.657951
1295.270, 1.379654
1295.752, 1.400337
1296.234, 1.685600
1296.716, 1.798058
1297.198, 1.345818
1297.680, 0.9332810
1298.162, 0.7700810
1298.644, 0.6590810
1299.126, 0.2550810
1299.609, 0.2189710
1300.091, 2.3308000E-02
1300.573, 0.7339550
1301.055, 0.4780580
1301.537, 0.0000000E+00
##END=



