##NAMES=Beusite
##RRUFFID=R160031
##IDEAL CHEMISTRY=Mn^2+^Mn^2+^_2_(PO_4_)_2_
##LOCALITY=Santa Ana Pegmatite, Argentina
##OWNER=RRUFF
##SOURCE=Jaroslav Hyr≈°l
##DESCRIPTION=Orange massive
##STATUS=The identification of this mineral has been confirmed only by single crystal X-ray diffraction.
##URL=rruff.info/R160031
145.3546, 0.0000000E+00
145.8367, 1.010498
146.3188, 3.047638
146.8010, 5.409637
147.2831, 7.996246
147.7652, 10.79578
148.2473, 12.91159
148.7294, 13.28845
149.2115, 13.13354
149.6937, 13.21265
150.1758, 13.69946
150.6579, 14.53192
151.1400, 15.78067
151.6221, 18.19553
152.1042, 19.73236
152.5864, 19.37006
153.0685, 18.10693
153.5506, 17.02277
154.0327, 16.57788
154.5148, 16.77927
154.9969, 16.79935
155.4791, 16.72214
155.9612, 16.29861
156.4433, 15.33081
156.9254, 14.09912
157.4075, 13.03329
157.8896, 12.88879
158.3718, 12.69452
158.8539, 12.25995
159.3360, 12.28479
159.8181, 11.48108
160.3002, 10.32184
160.7823, 9.198853
161.2645, 8.395905
161.7466, 8.208160
162.2287, 8.761353
162.7108, 8.645538
163.1929, 7.367157
163.6750, 5.871765
164.1572, 4.662872
164.6393, 3.769775
165.1214, 3.006348
165.6035, 2.217407
166.0856, 1.401398
166.5677, 0.6591800
167.0499, 1.1383000E-02
167.5320, 0.5023800
168.0141, 0.7976070
168.4962, 0.8394170
168.9783, 0.8341980
169.4604, 1.108917
169.9426, 1.526672
170.4247, 1.688232
170.9068, 1.065369
171.3889, 5.2002002E-02
171.8710, 0.2015380
172.3531, 0.8868710
172.8353, 1.794830
173.3174, 1.562134
173.7995, 0.5157780
174.2816, 0.5832520
174.7637, 1.188385
175.2458, 1.326691
175.7280, 1.542267
176.2101, 1.667084
176.6922, 2.070984
177.1743, 3.120789
177.6564, 4.590912
178.1385, 5.904938
178.6207, 6.498718
179.1028, 6.236603
179.5849, 6.161194
180.0670, 6.445618
180.5491, 6.769836
181.0313, 6.921387
181.5134, 6.954865
181.9955, 7.143250
182.4776, 7.830170
182.9597, 9.237335
183.4418, 10.31976
183.9240, 10.94592
184.4061, 11.41525
184.8882, 11.88669
185.3703, 12.36716
185.8524, 12.85732
186.3345, 13.49150
186.8167, 14.50266
187.2988, 14.79477
187.7809, 13.86427
188.2630, 12.56937
188.7451, 11.48592
189.2272, 10.74284
189.7094, 10.41231
190.1915, 10.71413
190.6736, 11.84155
191.1557, 12.63820
191.6378, 12.82516
192.1199, 12.67955
192.6021, 12.47600
193.0842, 12.25009
193.5663, 12.10040
194.0484, 12.33757
194.5305, 12.93880
195.0126, 13.21501
195.4948, 12.71259
195.9769, 11.76401
196.4590, 11.05420
196.9411, 10.78642
197.4232, 10.65041
197.9053, 10.38524
198.3875, 10.00015
198.8696, 9.464722
199.3517, 8.481918
199.8338, 7.253113
200.3159, 6.741058
200.7980, 7.609879
201.2802, 8.588516
201.7623, 8.743958
202.2444, 8.162399
202.7265, 7.374191
203.2086, 7.116547
203.6907, 7.002258
204.1729, 6.925919
204.6550, 6.914108
205.1371, 6.917404
205.6192, 6.911118
206.1013, 6.899048
206.5834, 6.901154
207.0656, 6.868515
207.5477, 6.746933
208.0298, 6.938278
208.5119, 7.767593
208.9940, 8.659927
209.4761, 9.519608
209.9583, 10.26308
210.4404, 10.73314
210.9225, 10.68230
211.4046, 9.909393
211.8867, 9.498657
212.3689, 9.729767
212.8510, 10.04369
213.3331, 10.18358
213.8152, 10.13916
214.2973, 10.05594
214.7794, 10.11079
215.2616, 10.38725
215.7437, 10.61208
216.2258, 10.63312
216.7079, 10.65396
217.1900, 10.82430
217.6721, 11.15753
218.1543, 11.52150
218.6364, 11.74799
219.1185, 11.76965
219.6006, 11.89697
220.0827, 12.22060
220.5648, 12.62469
221.0470, 12.98863
221.5291, 13.27934
222.0112, 13.59247
222.4933, 14.11497
222.9754, 14.96767
223.4575, 15.37511
223.9397, 14.56685
224.4218, 13.83412
224.9039, 14.49034
225.3860, 16.61055
225.8681, 18.78801
226.3502, 19.56285
226.8324, 18.82660
227.3145, 18.34604
227.7966, 18.45572
228.2787, 18.75110
228.7608, 18.81906
229.2429, 18.61789
229.7251, 18.51617
230.2072, 18.90645
230.6893, 19.65550
231.1714, 20.16885
231.6535, 20.12634
232.1356, 19.99704
232.6178, 20.43365
233.0999, 21.57159
233.5820, 22.62245
234.0641, 22.76436
234.5462, 22.32347
235.0283, 22.04156
235.5105, 22.15297
235.9926, 22.51239
236.4747, 22.92519
236.9568, 23.38898
237.4389, 23.85156
237.9210, 24.28409
238.4032, 24.69696
238.8853, 25.11038
239.3674, 25.59999
239.8495, 26.05289
240.3316, 26.21060
240.8137, 25.94499
241.2959, 25.78241
241.7780, 26.14230
242.2601, 26.70035
242.7422, 27.04663
243.2243, 26.95561
243.7064, 26.67538
244.1886, 26.71138
244.6707, 27.23576
245.1528, 27.63435
245.6349, 27.55360
246.1170, 27.28870
246.5991, 27.17204
247.0813, 27.37126
247.5634, 27.66449
248.0455, 27.54614
248.5276, 26.74503
249.0097, 26.18143
249.4918, 26.37428
249.9740, 26.73787
250.4561, 26.69270
250.9382, 26.01122
251.4203, 25.03712
251.9024, 24.45424
252.3845, 24.48947
252.8667, 24.42958
253.3488, 23.98170
253.8309, 23.49809
254.3130, 23.35446
254.7951, 23.65338
255.2772, 24.05615
255.7594, 23.92763
256.2415, 22.92052
256.7236, 22.08492
257.2057, 21.64771
257.6878, 21.27779
258.1699, 20.71898
258.6520, 19.92613
259.1342, 19.04044
259.6163, 18.27901
260.0984, 17.62012
260.5805, 17.13353
261.0626, 16.95963
261.5447, 16.82649
262.0269, 16.67538
262.5090, 16.43727
262.9911, 15.90733
263.4732, 14.74855
263.9553, 12.54497
264.4374, 10.85629
264.9196, 9.814087
265.4017, 9.065063
265.8838, 8.464432
266.3659, 7.962036
266.8480, 7.550797
267.3301, 7.256927
267.8123, 7.208115
268.2944, 6.695663
268.7765, 5.281128
269.2586, 3.877228
269.7407, 2.974457
270.2228, 2.558838
270.7050, 2.320145
271.1871, 1.997452
271.6692, 1.594238
272.1513, 1.043381
272.6334, 9.9640004E-03
273.1155, 0.8525540
273.5977, 1.063095
274.0798, 0.7605740
274.5619, 0.3606110
275.0440, 0.1668850
275.5261, 0.1751250
276.0082, 0.1533970
276.4904, 3.6224000E-02
276.9725, 0.1086270
277.4546, 0.1814120
277.9367, 0.6792300
278.4188, 1.006088
278.9009, 0.9064940
279.3831, 0.4585110
279.8652, 0.1626590
280.3473, 6.2514998E-02
280.8294, 2.3910999E-02
281.3115, 7.4051000E-02
281.7936, 0.1615600
282.2758, 0.1781160
282.7579, 5.9128001E-02
283.2400, 0.1608430
283.7221, 0.3627620
284.2042, 0.6530460
284.6863, 0.7622830
285.1685, 0.5389860
285.6506, 0.1267550
286.1327, 0.3197630
286.6148, 0.7677920
287.0969, 1.103760
287.5790, 1.054184
288.0612, 0.4728090
288.5433, 8.4885001E-02
289.0254, 0.6426390
289.5075, 1.092575
289.9896, 1.223663
290.4717, 0.9673160
290.9539, 0.6271510
291.4360, 0.6648560
291.9181, 1.210617
292.4002, 1.498627
292.8823, 1.186844
293.3644, 0.7291260
293.8466, 0.5838780
294.3287, 0.8218540
294.8108, 1.241333
295.2929, 1.698868
295.7750, 2.197708
296.2571, 2.505585
296.7393, 2.469727
297.2214, 2.340530
297.7035, 2.278000
298.1856, 2.299835
298.6677, 2.441940
299.1498, 2.799911
299.6320, 3.326538
300.1141, 3.574463
300.5962, 3.204803
301.0783, 2.863220
301.5604, 2.983368
302.0425, 3.522217
302.5247, 4.162445
303.0068, 4.804962
303.4889, 5.335983
303.9710, 5.421005
304.4531, 4.729065
304.9352, 4.148453
305.4174, 4.124359
305.8995, 4.503654
306.3816, 4.905609
306.8637, 5.175430
307.3458, 5.391129
307.8279, 5.737312
308.3101, 6.268471
308.7922, 6.725731
309.2743, 6.972816
309.7564, 7.107185
310.2385, 7.309357
310.7206, 7.642853
311.2028, 8.009247
311.6849, 8.238258
312.1670, 8.295380
312.6491, 8.370987
313.1312, 8.580833
313.6133, 8.835442
314.0955, 9.080086
314.5776, 9.314430
315.0597, 9.310944
315.5418, 8.625389
316.0239, 7.295158
316.5060, 6.704460
316.9882, 7.504745
317.4703, 8.703506
317.9524, 9.602783
318.4345, 10.15319
318.9166, 10.36697
319.3987, 10.11455
319.8809, 9.518173
320.3630, 9.294792
320.8451, 9.732544
321.3272, 10.25140
321.8093, 10.53148
322.2914, 10.62556
322.7736, 10.72586
323.2557, 10.93067
323.7378, 11.19520
324.2199, 11.38455
324.7020, 11.41315
325.1841, 11.54245
325.6663, 12.01764
326.1484, 12.63753
326.6305, 13.00349
327.1126, 12.97511
327.5947, 12.70908
328.0768, 12.40495
328.5590, 12.02184
329.0411, 11.79882
329.5232, 11.76717
330.0053, 11.91701
330.4874, 12.32051
330.9695, 12.97414
331.4517, 13.57234
331.9338, 13.77904
332.4159, 13.55211
332.8980, 13.30383
333.3801, 12.85857
333.8622, 12.51422
334.3444, 12.61906
334.8265, 13.11068
335.3086, 13.48604
335.7907, 13.33551
336.2729, 12.76718
336.7550, 12.59464
337.2371, 13.15343
337.7192, 13.74271
338.2013, 14.17483
338.6834, 14.39993
339.1656, 14.22969
339.6477, 13.49300
340.1298, 12.49957
340.6119, 12.15269
341.0940, 12.84563
341.5761, 13.38500
342.0583, 13.48447
342.5404, 13.33152
343.0225, 13.14320
343.5046, 12.97407
343.9867, 12.78197
344.4688, 12.50350
344.9510, 12.05499
345.4331, 11.86667
345.9152, 12.35188
346.3973, 12.86737
346.8794, 12.83958
347.3615, 12.25339
347.8437, 11.51968
348.3258, 10.98016
348.8079, 10.64690
349.2900, 10.30091
349.7721, 9.956894
350.2542, 9.600441
350.7364, 9.194283
351.2185, 8.762558
351.7006, 8.369629
352.1827, 8.062729
352.6648, 7.819275
353.1469, 7.550430
353.6291, 7.412651
354.1112, 7.048882
354.5933, 6.184517
355.0754, 5.164063
355.5575, 4.418633
356.0396, 4.083786
356.5218, 3.931557
357.0039, 3.591843
357.4860, 3.023689
357.9681, 2.325531
358.4502, 1.267708
358.9323, 0.2608490
359.4145, 0.4391480
359.8966, 0.8023530
360.3787, 0.9102400
360.8608, 0.7901310
361.3429, 0.3971940
361.8250, 0.3389660
362.3072, 0.9428410
362.7893, 1.521454
363.2714, 1.856224
363.7535, 2.000542
364.2356, 2.084579
364.7177, 2.183617
365.1999, 2.285614
365.6820, 2.338074
366.1641, 2.284828
366.6462, 2.255913
367.1283, 2.271973
367.6104, 2.314857
368.0926, 2.422386
368.5747, 2.587646
369.0568, 2.670082
369.5389, 2.403008
370.0210, 1.577003
370.5031, 0.9936140
370.9853, 0.8300320
371.4674, 0.7597500
371.9495, 0.7086720
372.4316, 0.6190030
372.9137, 0.3839490
373.3958, 0.1306460
373.8780, 0.9025650
374.3601, 1.530136
374.8422, 1.947510
375.3243, 2.309044
375.8064, 2.551315
376.2885, 2.795166
376.7707, 3.236900
377.2528, 3.999573
377.7349, 4.916298
378.2170, 5.602394
378.6991, 5.931084
379.1812, 6.410751
379.6634, 7.178047
380.1455, 8.134621
380.6276, 9.267883
381.1097, 10.56237
381.5918, 11.89829
382.0739, 13.19350
382.5561, 14.43967
383.0382, 15.56880
383.5203, 16.52876
384.0024, 17.41101
384.4845, 18.14903
384.9666, 18.84414
385.4488, 19.79545
385.9309, 21.36252
386.4130, 23.22694
386.8951, 24.63916
387.3772, 25.48258
387.8593, 26.31425
388.3415, 27.55823
388.8236, 28.91615
389.3057, 29.98308
389.7878, 30.61005
390.2699, 31.11507
390.7520, 31.79520
391.2342, 32.62107
391.7163, 33.28764
392.1984, 33.53889
392.6805, 33.83910
393.1626, 34.88147
393.6447, 36.66699
394.1269, 38.29262
394.6090, 39.21873
395.0911, 39.84329
395.5732, 40.82910
396.0553, 42.27081
396.5374, 43.77992
397.0196, 44.99825
397.5017, 45.98305
397.9838, 47.14461
398.4659, 48.49701
398.9480, 50.02637
399.4301, 51.79973
399.9123, 53.75713
400.3944, 55.71907
400.8765, 57.61055
401.3586, 59.44090
401.8407, 61.21455
402.3228, 62.78194
402.8050, 64.61166
403.2871, 66.89008
403.7692, 69.41761
404.2513, 72.00904
404.7334, 74.63163
405.2155, 77.30512
405.6977, 80.05079
406.1798, 82.89122
406.6619, 85.67319
407.1440, 88.41671
407.6261, 91.09620
408.1082, 93.70383
408.5904, 96.23640
409.0725, 98.62214
409.5546, 100.7969
410.0367, 102.8836
410.5188, 105.2686
411.0009, 108.3705
411.4831, 111.2155
411.9652, 113.6052
412.4473, 115.8179
412.9294, 118.0622
413.4115, 120.3929
413.8936, 122.7590
414.3758, 125.0921
414.8579, 127.3693
415.3400, 129.7206
415.8221, 132.3921
416.3042, 134.8965
416.7863, 137.1730
417.2685, 139.1092
417.7506, 140.6321
418.2327, 141.7331
418.7148, 142.3204
419.1969, 141.9744
419.6790, 140.2437
420.1612, 138.5303
420.6433, 137.7418
421.1254, 136.7838
421.6075, 134.6663
422.0896, 131.2170
422.5717, 127.1806
423.0539, 123.3029
423.5360, 119.5530
424.0181, 115.3459
424.5002, 110.3344
424.9823, 105.2797
425.4644, 100.6134
425.9466, 96.29594
426.4287, 92.26089
426.9108, 88.67735
427.3929, 85.24741
427.8750, 81.40499
428.3571, 77.07346
428.8393, 73.15777
429.3214, 70.07420
429.8035, 67.64632
430.2856, 65.46529
430.7677, 63.49956
431.2498, 61.84212
431.7320, 60.59409
432.2141, 59.64948
432.6962, 58.78354
433.1783, 57.93941
433.6604, 57.24712
434.1425, 56.83696
434.6247, 56.72964
435.1068, 56.82679
435.5889, 57.14604
436.0710, 57.65164
436.5531, 58.33528
437.0352, 59.18806
437.5174, 60.20054
437.9995, 61.37687
438.4816, 62.68190
438.9637, 64.02926
439.4458, 65.20211
439.9279, 66.75027
440.4101, 69.00156
440.8922, 71.44353
441.3743, 73.56992
441.8564, 75.36258
442.3385, 77.26215
442.8206, 79.74529
443.3028, 82.84019
443.7849, 85.85051
444.2670, 88.64719
444.7491, 91.50372
445.2312, 94.63982
445.7133, 97.84330
446.1955, 100.8168
446.6776, 103.4269
447.1597, 105.7948
447.6418, 108.0732
448.1239, 110.1281
448.6060, 112.5008
449.0882, 115.9360
449.5703, 119.2035
450.0524, 121.5365
450.5345, 122.9488
451.0166, 123.9736
451.4987, 125.0657
451.9809, 126.0484
452.4630, 126.1878
452.9451, 125.2729
453.4272, 124.1827
453.9093, 123.4073
454.3914, 122.5962
454.8736, 121.3267
455.3557, 119.4575
455.8378, 117.5137
456.3199, 115.9521
456.8020, 114.6358
457.2841, 113.1026
457.7663, 111.2135
458.2484, 109.1541
458.7305, 107.0227
459.2126, 104.8271
459.6947, 102.8096
460.1768, 101.0944
460.6590, 99.50272
461.1411, 98.00135
461.6232, 96.57365
462.1053, 94.98299
462.5874, 93.03101
463.0695, 90.87016
463.5517, 88.96481
464.0338, 87.50948
464.5159, 85.96944
464.9980, 84.20561
465.4801, 82.37480
465.9622, 80.62627
466.4444, 78.96420
466.9265, 77.22974
467.4086, 75.27577
467.8907, 73.10473
468.3728, 71.11607
468.8549, 69.58202
469.3371, 67.89367
469.8192, 65.79501
470.3013, 63.53764
470.7834, 61.45496
471.2655, 59.65663
471.7477, 58.01076
472.2298, 56.29369
472.7119, 54.44804
473.1940, 52.84784
473.6761, 51.86938
474.1582, 50.83594
474.6404, 49.34230
475.1225, 47.54251
475.6046, 45.85620
476.0867, 44.53548
476.5688, 43.42168
477.0509, 42.23631
477.5331, 40.96977
478.0152, 39.66010
478.4973, 38.30910
478.9794, 36.91082
479.4615, 35.38944
479.9436, 33.72373
480.4258, 32.23289
480.9079, 31.16104
481.3900, 30.32756
481.8721, 29.45136
482.3542, 28.50130
482.8363, 27.49606
483.3185, 26.40247
483.8006, 25.26350
484.2827, 24.32451
484.7648, 23.72319
485.2469, 23.14846
485.7290, 22.50787
486.2112, 21.82228
486.6933, 21.13567
487.1754, 20.45720
487.6575, 19.73576
488.1396, 18.88261
488.6217, 17.83694
489.1039, 16.95615
489.5860, 16.28824
490.0681, 15.70158
490.5502, 15.19319
491.0323, 14.71908
491.5144, 14.21536
491.9966, 13.65351
492.4787, 13.05446
492.9608, 12.45952
493.4429, 11.84836
493.9250, 11.30385
494.4071, 10.95346
494.8893, 10.56783
495.3714, 9.962784
495.8535, 9.195648
496.3356, 8.504303
496.8177, 8.092384
497.2998, 7.823334
497.7820, 7.325378
498.2641, 6.546059
498.7462, 5.843216
499.2283, 5.414101
499.7104, 5.109070
500.1925, 4.719849
500.6747, 4.221329
501.1568, 3.764771
501.6389, 3.459770
502.1210, 3.233253
502.6031, 2.982231
503.0852, 2.694427
503.5674, 2.380188
504.0495, 2.055573
504.5316, 1.711861
505.0137, 1.307335
505.4958, 0.7792820
505.9779, 0.2736510
506.4601, 0.3607790
506.9422, 0.8725510
507.4243, 0.7798160
507.9064, 1.8463001E-02
508.3885, 0.8211440
508.8706, 1.025764
509.3528, 0.5111310
509.8349, 1.3344000E-02
510.3170, 0.6670300
510.7991, 1.105942
511.2812, 0.9319990
511.7633, 0.5198820
512.2454, 0.4256130
512.7275, 0.8750230
513.2097, 1.536995
513.6918, 1.924232
514.1739, 2.014656
514.6560, 2.033142
515.1381, 2.007210
515.6202, 1.900375
516.1024, 1.654961
516.5845, 1.318230
517.0666, 1.002602
517.5487, 0.6544720
518.0308, 0.4507520
518.5129, 0.7497630
518.9951, 1.485275
519.4772, 1.979195
519.9593, 1.953400
520.4414, 1.675545
520.9235, 1.520973
521.4056, 1.493233
521.8878, 1.472847
522.3699, 1.475952
522.8520, 1.451614
523.3341, 1.303986
523.8162, 1.080269
524.2983, 0.9644170
524.7805, 1.071587
525.2626, 1.304840
525.7447, 1.394272
526.2268, 1.190865
526.7089, 1.068298
527.1910, 1.142036
527.6732, 1.197983
528.1553, 1.102196
528.6374, 0.8545000
529.1195, 0.5079570
529.6016, 7.2509997E-02
530.0837, 0.4021070
530.5659, 0.7058330
531.0480, 0.7467350
531.5301, 0.8576810
532.0122, 1.222519
532.4943, 1.633957
532.9764, 1.879837
533.4586, 1.960617
533.9407, 2.175804
534.4228, 2.860107
534.9049, 3.762535
535.3870, 4.316132
535.8691, 4.468102
536.3513, 4.712830
536.8334, 5.350044
537.3155, 6.254349
537.7976, 7.089699
538.2797, 7.827324
538.7618, 8.577660
539.2440, 9.370506
539.7261, 10.18964
540.2082, 10.96664
540.6903, 11.72363
541.1724, 12.65056
541.6545, 13.95244
542.1367, 15.54178
542.6188, 16.71230
543.1009, 16.78149
543.5830, 17.31885
544.0651, 19.07059
544.5472, 20.96120
545.0294, 21.85815
545.5115, 21.73472
545.9936, 21.64200
546.4757, 22.63577
546.9578, 24.53338
547.4399, 26.10368
547.9221, 27.24883
548.4042, 28.28471
548.8863, 29.33595
549.3684, 30.35825
549.8505, 31.26936
550.3326, 32.03394
550.8148, 32.87702
551.2969, 34.08110
551.7790, 35.41508
552.2611, 36.41245
552.7432, 37.01801
553.2253, 37.53459
553.7075, 38.20779
554.1896, 38.95780
554.6717, 39.34892
555.1538, 39.13866
555.6359, 38.96744
556.1180, 39.14582
556.6002, 39.30605
557.0823, 38.98035
557.5644, 38.17596
558.0465, 37.32523
558.5286, 36.79826
559.0107, 36.57657
559.4929, 36.51412
559.9750, 36.79758
560.4571, 36.94055
560.9392, 36.57871
561.4213, 36.22913
561.9034, 36.34647
562.3856, 36.98870
562.8677, 37.87517
563.3498, 38.81455
563.8319, 39.82395
564.3140, 40.99111
564.7961, 42.36535
565.2783, 43.62489
565.7604, 44.63426
566.2425, 45.40614
566.7246, 46.09054
567.2067, 46.72216
567.6888, 47.14235
568.1710, 47.09042
568.6531, 46.88543
569.1352, 46.99940
569.6173, 47.40929
570.0994, 47.57696
570.5815, 47.04012
571.0637, 46.05764
571.5458, 45.77650
572.0279, 46.78225
572.5100, 47.70953
572.9921, 48.51220
573.4742, 49.21346
573.9564, 49.70863
574.4385, 50.10450
574.9206, 50.70245
575.4027, 51.70006
575.8848, 53.05946
576.3669, 54.66832
576.8491, 56.51116
577.3312, 58.54268
577.8133, 60.80474
578.2954, 63.31151
578.7775, 65.99126
579.2596, 68.84542
579.7418, 71.96302
580.2239, 75.54759
580.7060, 79.29601
581.1881, 82.72933
581.6702, 85.99738
582.1523, 89.77135
582.6345, 94.36841
583.1166, 99.42409
583.5988, 104.2359
584.0809, 108.7877
584.5630, 113.1601
585.0451, 117.4962
585.5272, 121.5282
586.0093, 125.1445
586.4915, 128.3566
586.9736, 131.2252
587.4557, 133.7808
587.9378, 135.9380
588.4199, 137.5372
588.9020, 138.5880
589.3842, 138.9493
589.8663, 138.4925
590.3484, 137.4644
590.8305, 136.0089
591.3126, 134.1450
591.7947, 131.9227
592.2769, 129.3847
592.7590, 126.4332
593.2411, 122.9251
593.7232, 118.9431
594.2053, 114.6551
594.6874, 110.0721
595.1696, 105.3337
595.6517, 100.5859
596.1338, 95.83125
596.6159, 90.53173
597.0980, 84.10797
597.5801, 77.94962
598.0623, 72.35381
598.5444, 67.15342
599.0265, 62.09770
599.5086, 57.17278
599.9907, 52.63725
600.4728, 48.85191
600.9550, 45.68716
601.4371, 42.11202
601.9192, 37.79338
602.4013, 33.86756
602.8834, 30.96584
603.3655, 28.49703
603.8477, 25.87626
604.3298, 23.06452
604.8119, 20.61945
605.2940, 18.97330
605.7761, 17.76702
606.2582, 16.54945
606.7404, 15.32508
607.2225, 14.30415
607.7046, 13.61242
608.1867, 13.11716
608.6688, 12.53824
609.1509, 11.76928
609.6331, 11.18053
610.1152, 10.78413
610.5973, 10.54862
611.0794, 10.60928
611.5615, 10.79111
612.0436, 10.72765
612.5258, 10.24168
613.0079, 9.638870
613.4900, 9.398308
613.9721, 9.519295
614.4542, 9.801392
614.9363, 10.34797
615.4185, 10.88409
615.9006, 11.19067
616.3827, 11.36480
616.8648, 11.58864
617.3469, 11.90352
617.8290, 12.29839
618.3112, 12.80011
618.7933, 13.35603
619.2754, 13.92065
619.7575, 14.45286
620.2396, 14.80645
620.7217, 14.89160
621.2039, 14.79070
621.6860, 14.77450
622.1681, 14.83745
622.6502, 14.93246
623.1323, 15.09064
623.6144, 15.28391
624.0966, 15.52949
624.5787, 15.81735
625.0608, 16.04887
625.5429, 16.14981
626.0250, 16.15849
626.5071, 16.18715
626.9893, 16.24196
627.4714, 16.28148
627.9535, 16.19426
628.4356, 16.18218
628.9177, 16.64391
629.3998, 17.52329
629.8820, 18.24199
630.3641, 18.59875
630.8462, 18.84614
631.3283, 19.00854
631.8104, 19.21268
632.2925, 19.67368
632.7747, 20.43210
633.2568, 21.32687
633.7389, 22.18655
634.2210, 23.01269
634.7031, 23.91836
635.1852, 24.83566
635.6674, 25.95150
636.1495, 27.49549
636.6316, 29.11990
637.1137, 30.47145
637.5958, 31.51393
638.0779, 32.47442
638.5601, 33.49190
639.0422, 34.52194
639.5243, 35.59481
640.0064, 36.67741
640.4885, 37.37490
640.9706, 37.45020
641.4528, 37.25748
641.9349, 37.40137
642.4170, 38.12322
642.8991, 38.10349
643.3812, 36.81335
643.8633, 35.38063
644.3455, 34.27818
644.8276, 33.39640
645.3097, 32.55903
645.7918, 31.67636
646.2739, 30.61519
646.7560, 29.11572
647.2382, 27.19110
647.7203, 25.50266
648.2024, 24.07652
648.6845, 22.81888
649.1666, 21.77843
649.6487, 20.82769
650.1309, 19.79917
650.6130, 18.69299
651.0951, 17.60715
651.5772, 16.53493
652.0593, 15.45046
652.5414, 14.39211
653.0236, 13.36800
653.5057, 12.36790
653.9878, 11.38235
654.4699, 10.46068
654.9520, 9.692551
655.4341, 9.116241
655.9163, 8.581879
656.3984, 8.044365
656.8805, 7.600960
657.3626, 7.425919
657.8447, 7.314102
658.3268, 6.937271
658.8090, 6.188881
659.2911, 5.386475
659.7732, 4.763603
660.2553, 4.289093
660.7374, 3.935394
661.2195, 3.701317
661.7017, 3.408836
662.1838, 2.921768
662.6659, 2.362297
663.1480, 2.048096
663.6301, 2.178268
664.1122, 2.124809
664.5944, 1.665039
665.0765, 1.219910
665.5586, 1.079979
666.0407, 1.132423
666.5228, 1.120033
667.0049, 0.9334180
667.4871, 0.6835780
667.9692, 0.5109180
668.4513, 0.4119420
668.9334, 0.3370590
669.4155, 0.3055730
669.8976, 0.2274780
670.3798, 2.8152000E-02
670.8619, 0.3326030
671.3440, 0.4030080
671.8261, 0.1381530
672.3082, 6.3614003E-02
672.7903, 4.4762000E-02
673.2725, 5.2429002E-02
673.7546, 5.7037000E-02
674.2367, 2.2644000E-02
674.7188, 0.1659090
675.2009, 0.6006850
675.6830, 1.153210
676.1652, 1.547138
676.6473, 1.816078
677.1294, 1.704945
677.6115, 0.8468510
678.0936, 0.1150050
678.5757, 9.3239002E-02
679.0579, 0.3605350
679.5400, 0.2308270
680.0221, 0.5226360
680.5042, 1.060814
680.9863, 0.6823270
681.4684, 5.7388000E-02
681.9506, 0.4569550
682.4327, 0.4877400
682.9148, 0.3072850
683.3969, 3.3585001E-02
683.8790, 0.3766940
684.3611, 0.3674240
684.8433, 0.2014470
685.3254, 0.4884800
685.8075, 0.1532210
686.2896, 9.7793996E-02
686.7717, 8.6658001E-02
687.2538, 0.4543300
687.7360, 0.6259570
688.2181, 0.4954800
688.7002, 0.3351860
689.1823, 0.3949890
689.6644, 0.5640720
690.1465, 0.6091080
690.6287, 0.5230940
691.1108, 0.4182930
691.5929, 0.3448300
692.0750, 0.2923280
692.5571, 0.2447130
693.0392, 0.2077980
693.5214, 0.1535260
694.0035, 0.1034810
694.4856, 1.2672000E-02
694.9677, 0.2424200
695.4498, 0.5042950
695.9319, 0.5285950
696.4141, 0.2596170
696.8962, 7.2959997E-02
697.3783, 0.2503660
697.8604, 0.3254970
698.3425, 0.5061760
698.8246, 0.8095930
699.3068, 0.9142000
699.7889, 0.6274340
700.2710, 0.1676860
700.7531, 0.1566960
701.2352, 0.3425410
701.7173, 0.4238130
702.1995, 0.1867330
702.6816, 8.4339000E-02
703.1637, 0.5242080
703.6458, 1.109749
704.1279, 1.261539
704.6100, 0.8825530
705.0922, 0.3910710
705.5743, 0.1545520
706.0564, 0.1168940
706.5385, 0.1397550
707.0206, 0.2436900
707.5027, 0.2021480
707.9849, 0.1754260
708.4670, 0.5550160
708.9491, 0.4710460
709.4312, 6.7711003E-02
709.9133, 0.5134200
710.3954, 0.7492750
710.8776, 0.9825020
711.3597, 1.376774
711.8418, 1.769558
712.3239, 1.932259
712.8060, 1.854477
713.2881, 1.717632
713.7703, 1.670006
714.2524, 1.672810
714.7345, 1.609245
715.2166, 1.473873
715.6987, 1.305447
716.1808, 1.052872
716.6630, 0.8622060
717.1451, 0.9228670
717.6272, 1.173496
718.1093, 1.340103
718.5914, 1.440144
719.0735, 1.403347
719.5557, 1.001778
720.0378, 0.5846980
720.5199, 0.5829280
721.0020, 0.9563290
721.4841, 1.327248
721.9662, 1.449203
722.4484, 1.435528
722.9305, 1.579220
723.4126, 1.918232
723.8947, 1.937878
724.3768, 1.399670
724.8589, 0.8834950
725.3411, 0.8226510
725.8232, 1.051140
726.3053, 1.177223
726.7874, 1.155102
727.2695, 1.100117
727.7516, 0.9072910
728.2338, 0.8041420
728.7159, 1.133564
729.1980, 1.715286
729.6801, 2.011139
730.1622, 1.754375
730.6443, 1.333252
731.1265, 1.406586
731.6086, 1.979195
732.0907, 2.200661
732.5728, 1.919518
733.0549, 1.610222
733.5370, 1.458359
734.0192, 1.429642
734.5013, 1.509964
734.9834, 1.764885
735.4655, 1.863411
735.9476, 1.520645
736.4297, 1.146141
736.9119, 0.9823070
737.3940, 0.9974440
737.8761, 1.147820
738.3582, 1.373169
738.8403, 1.499115
739.3224, 1.309647
739.8046, 0.8638230
740.2867, 0.5117420
740.7688, 0.2553940
741.2509, 0.1941760
741.7330, 0.4011460
742.2151, 0.7115100
742.6973, 0.9998090
743.1794, 1.251068
743.6615, 1.347771
744.1436, 1.092628
744.6257, 0.8690800
745.1078, 0.8908620
745.5900, 0.9559100
746.0721, 0.7935870
746.5542, 0.4472810
747.0363, 0.2136990
747.5184, 0.2986300
748.0005, 0.5551300
748.4827, 0.7291490
748.9648, 0.8214190
749.4469, 0.7872310
749.9290, 0.5776060
750.4111, 0.3599930
750.8932, 0.1863780
751.3754, 0.1057590
751.8575, 0.3028790
752.3396, 0.9824370
752.8217, 1.447891
753.3038, 1.559265
753.7859, 1.463821
754.2681, 1.128387
754.7502, 0.6745760
755.2323, 0.3411790
755.7144, 0.2132490
756.1965, 0.1157610
756.6786, 0.2332760
757.1608, 0.6928560
757.6429, 0.6933750
758.1250, 0.1935040
758.6071, 0.1785580
759.0892, 0.1131440
759.5714, 9.3620002E-02
760.0535, 1.5799999E-02
760.5356, 0.4017180
761.0177, 0.6216130
761.4998, 0.5659180
761.9819, 0.4190750
762.4641, 4.3471999E-02
762.9462, 0.2786410
763.4283, 0.1897810
763.9104, 0.2512280
764.3925, 0.5978930
764.8746, 0.5619430
765.3568, 0.3454740
765.8389, 0.1436840
766.3210, 3.1433001E-02
766.8031, 7.5263999E-02
767.2852, 5.5091999E-02
767.7673, 0.2635730
768.2495, 0.5083010
768.7316, 0.7656330
769.2137, 0.9504090
769.6958, 1.033730
770.1779, 1.092285
770.6600, 1.231232
771.1422, 1.236977
771.6243, 0.8670430
772.1064, 0.3523560
772.5885, 7.6691002E-02
773.0706, 0.1450880
773.5527, 0.2893750
774.0349, 0.3588870
774.5170, 0.3947910
774.9991, 0.4663850
775.4812, 0.5572970
775.9633, 0.5768130
776.4454, 0.4921260
776.9276, 0.4039920
777.4097, 0.4478530
777.8918, 0.6170040
778.3739, 0.7121660
778.8560, 0.7235720
779.3381, 0.6841430
779.8203, 0.4594880
780.3024, 0.3135450
780.7845, 0.5530170
781.2666, 1.082657
781.7487, 1.431862
782.2308, 1.405457
782.7130, 1.301826
783.1951, 1.250069
783.6772, 1.209908
784.1593, 0.9985730
784.6414, 0.7272950
785.1235, 0.8899610
785.6057, 1.804642
786.0878, 2.942070
786.5699, 3.365219
787.0520, 3.086037
787.5341, 2.700035
788.0162, 2.095520
788.4984, 2.012070
788.9805, 3.249107
789.4626, 4.855400
789.9447, 4.954262
790.4268, 3.143242
790.9089, 2.009453
791.3911, 2.093948
791.8732, 2.402985
792.3553, 2.684883
792.8374, 2.884186
793.3195, 2.965141
793.8016, 2.923874
794.2838, 2.773651
794.7659, 2.439003
795.2480, 2.107437
795.7301, 2.095215
796.2122, 2.346695
796.6943, 2.658058
797.1765, 2.994247
797.6586, 3.215019
798.1407, 3.179054
798.6228, 2.991379
799.1049, 3.044037
799.5870, 3.563011
800.0692, 3.841545
800.5513, 3.613480
801.0334, 3.413429
801.5155, 3.484818
801.9976, 3.695953
802.4797, 3.842796
802.9619, 3.884628
803.4440, 3.946388
803.9261, 4.147377
804.4082, 4.345779
804.8903, 4.420738
805.3724, 4.384880
805.8546, 4.242638
806.3367, 4.011108
806.8188, 3.797279
807.3009, 3.697403
807.7830, 3.703293
808.2651, 3.791405
808.7473, 3.968941
809.2294, 4.195450
809.7115, 4.525116
810.1936, 4.778610
810.6757, 4.758865
811.1578, 4.552284
811.6400, 4.501602
812.1221, 4.662643
812.6042, 4.860703
813.0863, 5.150650
813.5684, 5.394310
814.0505, 5.500542
814.5327, 5.497955
815.0148, 5.422768
815.4969, 5.300453
815.9790, 5.194603
816.4611, 5.098206
816.9432, 5.063766
817.4254, 5.235497
817.9075, 5.577148
818.3896, 5.879356
818.8717, 6.079880
819.3538, 6.271767
819.8359, 6.572601
820.3181, 6.935623
820.8002, 7.017815
821.2823, 6.707626
821.7644, 6.381554
822.2465, 5.976631
822.7286, 5.677704
823.2108, 5.647629
823.6929, 5.776627
824.1750, 5.835037
824.6571, 5.759163
825.1392, 5.730469
825.6213, 5.806099
826.1035, 5.966385
826.5856, 6.258720
827.0677, 6.605621
827.5498, 6.911156
828.0319, 7.128136
828.5140, 7.148766
828.9962, 6.762245
829.4783, 6.176231
829.9604, 6.037125
830.4425, 6.332031
830.9246, 6.578506
831.4067, 6.651558
831.8889, 6.750679
832.3710, 7.102211
832.8531, 7.586136
833.3352, 7.647362
833.8173, 6.775116
834.2994, 6.349693
834.7816, 6.819542
835.2637, 7.222603
835.7458, 6.891167
836.2279, 6.330818
836.7100, 6.398331
837.1921, 7.268707
837.6743, 7.992981
838.1564, 8.056152
838.6385, 7.805717
839.1206, 7.333618
839.6027, 6.851402
840.0848, 6.839020
840.5670, 7.337151
841.0491, 7.857368
841.5312, 7.997818
842.0133, 7.902458
842.4954, 7.944878
842.9775, 8.128830
843.4597, 8.286217
843.9418, 8.403587
844.4239, 8.494133
844.9060, 8.537979
845.3881, 8.532272
845.8702, 8.543442
846.3524, 8.626709
846.8345, 8.661186
847.3166, 8.431335
847.7987, 8.354576
848.2808, 8.795769
848.7629, 9.357819
849.2451, 9.547318
849.7272, 9.363869
850.2093, 9.237892
850.6914, 9.408398
851.1735, 9.641724
851.6556, 9.685131
852.1378, 9.662628
852.6199, 9.902992
853.1020, 10.38992
853.5841, 10.67092
854.0662, 10.43994
854.5483, 10.05700
855.0305, 10.24797
855.5126, 10.98573
855.9947, 11.32955
856.4768, 11.18269
856.9589, 11.03177
857.4410, 11.06602
857.9232, 11.19869
858.4053, 11.32224
858.8874, 11.42100
859.3695, 11.43083
859.8516, 11.23192
860.3337, 11.12957
860.8159, 11.22445
861.2980, 11.34180
861.7801, 11.33241
862.2622, 11.31482
862.7443, 11.54263
863.2264, 12.11232
863.7086, 12.44976
864.1907, 11.91008
864.6728, 11.28638
865.1549, 11.51632
865.6370, 12.28506
866.1191, 12.87068
866.6013, 13.06878
867.0834, 12.95962
867.5655, 12.51570
868.0476, 11.90109
868.5297, 11.66150
869.0118, 11.80546
869.4940, 11.88837
869.9761, 11.84065
870.4582, 11.71634
870.9403, 11.52160
871.4224, 11.30524
871.9045, 11.19677
872.3867, 11.24150
872.8688, 11.25958
873.3509, 11.35888
873.8330, 11.29681
874.3151, 10.88979
874.7972, 10.36862
875.2794, 9.936073
875.7615, 9.610603
876.2436, 9.372013
876.7257, 9.285946
877.2078, 9.190865
877.6899, 8.899612
878.1721, 8.624523
878.6542, 8.707996
879.1363, 9.031891
879.6184, 9.179802
880.1005, 8.965794
880.5826, 8.566967
881.0648, 8.074753
881.5469, 7.583530
882.0290, 7.465832
882.5111, 7.674957
882.9932, 7.633659
883.4753, 7.141422
883.9575, 6.628983
884.4396, 6.542263
884.9217, 6.775898
885.4038, 6.752594
885.8859, 6.349182
886.3680, 6.065441
886.8502, 6.009212
887.3323, 5.985100
887.8144, 5.937866
888.2965, 5.832443
888.7786, 5.584503
889.2607, 5.158875
889.7429, 4.808033
890.2250, 4.549171
890.7071, 4.393410
891.1892, 4.431297
891.6713, 4.515205
892.1534, 4.525597
892.6356, 4.436256
893.1177, 4.215874
893.5998, 3.794018
894.0819, 3.406952
894.5640, 3.343288
895.0461, 3.407291
895.5283, 3.273190
896.0104, 2.966614
896.4925, 2.680870
896.9746, 2.489838
897.4567, 2.341255
897.9388, 2.178787
898.4210, 2.006927
898.9031, 1.853249
899.3852, 1.719406
899.8673, 1.561958
900.3494, 1.376801
900.8315, 1.132988
901.3137, 0.7634580
901.7958, 0.3631740
902.2779, 0.2243960
902.7600, 0.5244450
903.2421, 0.5818020
903.7242, 0.1414030
904.2064, 0.2079700
904.6885, 0.1457670
905.1706, 1.4481000E-02
905.6527, 0.1930540
906.1348, 0.6559910
906.6169, 1.039055
907.0991, 1.261162
907.5812, 1.389168
908.0633, 1.461685
908.5454, 1.439407
909.0275, 1.117378
909.5096, 0.7118450
909.9918, 0.7504350
910.4739, 1.402847
910.9560, 2.029564
911.4381, 2.002983
911.9202, 1.687279
912.4023, 1.610855
912.8845, 1.703773
913.3666, 1.721352
913.8487, 1.627068
914.3308, 1.623604
914.8129, 1.871712
915.2950, 2.218727
915.7772, 2.307480
916.2593, 2.142273
916.7414, 2.067932
917.2235, 2.124008
917.7056, 2.104507
918.1877, 1.867226
918.6699, 1.669624
919.1520, 1.908524
919.6341, 2.562645
920.1162, 2.742378
920.5983, 1.958275
921.0804, 1.566048
921.5626, 2.172600
922.0447, 2.727020
922.5268, 2.538826
923.0089, 1.980011
923.4910, 1.770126
923.9731, 2.060379
924.4553, 2.151604
924.9374, 1.734962
925.4195, 1.241470
925.9016, 0.8401640
926.3837, 0.5033650
926.8658, 0.2039030
927.3480, 7.7414997E-02
927.8301, 0.3674470
928.3122, 0.6613850
928.7943, 1.030457
929.2764, 1.511665
929.7585, 2.121338
930.2407, 2.893379
930.7228, 3.810928
931.2049, 4.921806
931.6870, 6.194038
932.1691, 7.227554
932.6512, 7.524231
933.1334, 7.503380
933.6155, 8.278694
934.0976, 9.751350
934.5797, 10.98622
935.0618, 11.83081
935.5439, 13.06831
936.0261, 15.20286
936.5082, 17.61491
936.9903, 19.16093
937.4724, 19.75162
937.9545, 21.50037
938.4366, 24.83569
938.9188, 28.11888
939.4009, 30.91989
939.8830, 33.66103
940.3651, 36.57389
940.8472, 39.71100
941.3293, 43.26671
941.8115, 47.25304
942.2936, 51.65014
942.7757, 56.41895
943.2578, 61.64656
943.7399, 67.38468
944.2220, 73.58621
944.7042, 80.04256
945.1863, 86.84215
945.6684, 94.50122
946.1505, 103.2841
946.6326, 112.7688
947.1147, 122.6854
947.5969, 133.2741
948.0790, 144.6179
948.5611, 156.9035
949.0432, 170.5663
949.5253, 185.6117
950.0074, 201.4725
950.4896, 217.5663
950.9717, 234.2776
951.4538, 252.2188
951.9359, 271.0782
952.4180, 290.1933
952.9001, 309.5645
953.3823, 329.6174
953.8644, 350.6537
954.3465, 372.5775
954.8286, 395.2480
955.3107, 418.7787
955.7928, 443.2667
956.2750, 468.8566
956.7571, 496.0421
957.2392, 525.0587
957.7213, 555.0635
958.2034, 585.6871
958.6855, 616.6329
959.1677, 647.1097
959.6498, 676.8872
960.1319, 707.1452
960.6140, 738.3079
961.0961, 769.1331
961.5782, 799.2821
962.0604, 828.6069
962.5425, 857.1890
963.0246, 884.7566
963.5067, 909.5791
963.9888, 933.8433
964.4709, 951.5010
964.9531, 961.4086
965.4352, 966.1959
965.9173, 968.4762
966.3994, 965.3314
966.8815, 952.9876
967.3636, 931.3497
967.8458, 903.3512
968.3279, 867.4525
968.8100, 827.8644
969.2921, 784.1625
969.7742, 738.8143
970.2563, 692.7927
970.7385, 646.5371
971.2206, 600.1025
971.7027, 553.6477
972.1848, 509.8839
972.6669, 470.4142
973.1490, 434.3975
973.6312, 402.0087
974.1133, 372.4499
974.5954, 344.8145
975.0775, 318.9491
975.5596, 294.6755
976.0417, 271.9631
976.5239, 251.3459
977.0060, 233.6831
977.4881, 218.0474
977.9702, 202.9420
978.4523, 188.6147
978.9344, 175.7861
979.4166, 164.4885
979.8987, 154.0196
980.3808, 143.9297
980.8629, 134.5245
981.3450, 126.2669
981.8271, 119.0790
982.3093, 112.6852
982.7914, 107.1025
983.2735, 101.9608
983.7556, 97.13757
984.2377, 93.05074
984.7198, 90.14015
985.2020, 88.09618
985.6841, 85.98207
986.1662, 83.77595
986.6483, 81.69326
987.1304, 79.71346
987.6125, 77.95521
988.0947, 76.42680
988.5768, 75.18725
989.0589, 74.34257
989.5410, 73.84933
990.0231, 73.36559
990.5052, 72.72916
990.9874, 72.49690
991.4695, 72.89017
991.9516, 73.39135
992.4337, 73.69737
992.9158, 74.05051
993.3979, 74.78979
993.8801, 75.91546
994.3622, 77.13340
994.8443, 78.29036
995.3264, 79.77062
995.8085, 81.88698
996.2906, 84.04972
996.7728, 85.59827
997.2549, 87.15432
997.7370, 89.74947
998.2191, 93.49719
998.7012, 97.31692
999.1833, 100.8796
999.6655, 104.5798
1000.148, 108.2961
1000.630, 112.4420
1001.112, 117.4400
1001.594, 123.1070
1002.076, 129.1639
1002.558, 135.5527
1003.040, 142.0014
1003.522, 148.1082
1004.005, 154.5310
1004.487, 162.0438
1004.969, 169.9093
1005.451, 177.0978
1005.933, 183.8858
1006.415, 191.4217
1006.897, 200.1079
1007.379, 208.5951
1007.861, 215.5158
1008.344, 222.0563
1008.826, 229.5659
1009.308, 237.5870
1009.790, 245.0580
1010.272, 252.0739
1010.754, 259.5208
1011.236, 267.8470
1011.718, 276.3127
1012.201, 283.9923
1012.683, 291.2743
1013.165, 298.9385
1013.647, 306.9088
1014.129, 314.7032
1014.611, 322.3896
1015.093, 330.9286
1015.575, 340.9359
1016.057, 351.1576
1016.540, 359.4081
1017.022, 366.4987
1017.504, 375.4640
1017.986, 385.9790
1018.468, 395.7617
1018.950, 404.2835
1019.432, 412.6892
1019.914, 421.6688
1020.396, 430.9523
1020.879, 440.1008
1021.361, 449.0954
1021.843, 457.4233
1022.325, 465.0462
1022.807, 472.2900
1023.289, 479.2501
1023.771, 485.3898
1024.253, 490.4033
1024.735, 494.2259
1025.218, 496.8664
1025.700, 498.3985
1026.182, 497.5170
1026.664, 494.0858
1027.146, 488.9241
1027.628, 482.2257
1028.110, 474.0528
1028.592, 464.3865
1029.075, 453.2943
1029.557, 440.8434
1030.039, 427.1903
1030.521, 411.3823
1031.003, 392.7413
1031.485, 373.8010
1031.967, 355.0738
1032.449, 336.7346
1032.932, 318.8559
1033.414, 301.4024
1033.896, 284.4370
1034.378, 268.1479
1034.860, 251.5862
1035.342, 233.9477
1035.824, 217.6335
1036.306, 203.6946
1036.788, 190.9049
1037.271, 178.3101
1037.753, 166.0808
1038.235, 154.5230
1038.717, 143.7600
1039.199, 133.3745
1039.681, 122.8129
1040.163, 113.3924
1040.645, 105.8337
1041.127, 99.11183
1041.610, 92.40250
1042.092, 85.81557
1042.574, 79.65475
1043.056, 73.81091
1043.538, 68.56167
1044.020, 64.16872
1044.502, 60.04000
1044.984, 55.99773
1045.467, 52.16394
1045.949, 48.71893
1046.431, 45.57817
1046.913, 42.50273
1047.395, 39.50549
1047.877, 36.46004
1048.359, 32.95134
1048.841, 29.90007
1049.323, 27.74649
1049.806, 26.08021
1050.288, 24.81179
1050.770, 23.70784
1051.252, 22.18299
1051.734, 20.01188
1052.216, 18.01685
1052.698, 16.27352
1053.180, 14.84608
1053.662, 14.05457
1054.145, 13.32344
1054.627, 11.92896
1055.109, 10.22362
1055.591, 9.307060
1056.073, 9.592110
1056.555, 9.331940
1057.037, 7.378647
1057.519, 5.614914
1058.002, 5.024101
1058.484, 4.808800
1058.966, 4.369698
1059.448, 3.686897
1059.930, 2.775589
1060.412, 1.594124
1060.894, 0.7308270
1061.376, 0.5955730
1061.859, 0.5649260
1062.341, 0.4152150
1062.823, 0.1914830
1063.305, 0.1805420
1063.787, 0.5524140
1064.269, 0.5473630
1064.751, 6.9260001E-02
1065.233, 0.1505360
1065.715, 0.4050140
1066.198, 0.9864730
1066.680, 1.206917
1067.162, 1.323349
1067.644, 1.583176
1068.126, 1.903473
1068.608, 2.100014
1069.090, 2.134514
1069.572, 2.061241
1070.054, 1.678604
1070.537, 1.483215
1071.019, 1.871002
1071.501, 2.396797
1071.983, 2.782562
1072.465, 2.978111
1072.947, 2.854866
1073.429, 2.442131
1073.911, 2.265266
1074.394, 2.761803
1074.876, 3.216499
1075.358, 3.297729
1075.840, 3.193222
1076.322, 2.970032
1076.804, 2.707626
1077.286, 2.488197
1077.768, 2.331230
1078.250, 2.254692
1078.733, 2.343956
1079.215, 2.363007
1079.697, 2.237602
1080.179, 1.959068
1080.661, 1.382011
1081.143, 0.7285000
1081.625, 0.2976990
1082.107, 0.1052090
1082.590, 3.4640001E-03
1083.072, 3.2012999E-02
1083.554, 0.1180190
1084.036, 0.3159030
1084.518, 0.6013790
1085.000, 0.9177090
1085.482, 1.339470
1085.964, 2.101410
1086.447, 3.061119
1086.929, 3.663185
1087.411, 3.662140
1087.893, 3.660728
1088.375, 3.937889
1088.857, 4.234695
1089.339, 4.383507
1089.821, 4.513725
1090.303, 4.724960
1090.786, 5.046669
1091.268, 5.508911
1091.750, 6.105904
1092.232, 6.747780
1092.714, 7.394463
1093.196, 8.154694
1093.678, 9.148499
1094.160, 10.17042
1094.642, 11.08708
1095.125, 11.89143
1095.607, 12.51982
1096.089, 12.96047
1096.571, 13.77089
1097.053, 15.41476
1097.535, 17.00758
1098.017, 18.17583
1098.499, 19.29240
1098.982, 20.59338
1099.464, 22.02380
1099.946, 23.44017
1100.428, 24.87265
1100.910, 26.61109
1101.392, 28.81335
1101.874, 31.11261
1102.356, 33.53225
1102.839, 35.89983
1103.321, 38.00146
1103.803, 40.11607
1104.285, 42.59776
1104.767, 45.40689
1105.249, 48.24046
1105.731, 51.01331
1106.213, 53.91708
1106.695, 56.88278
1107.177, 60.05663
1107.660, 63.57890
1108.142, 67.28587
1108.624, 71.10151
1109.106, 74.92485
1109.588, 78.59532
1110.070, 82.17183
1110.552, 85.38931
1111.034, 87.96847
1111.517, 90.57832
1111.999, 93.43389
1112.481, 96.27972
1112.963, 99.24554
1113.445, 102.0027
1113.927, 103.7990
1114.409, 104.5232
1114.891, 105.0748
1115.374, 105.8509
1115.856, 105.7689
1116.338, 104.3781
1116.820, 102.5594
1117.302, 100.8293
1117.784, 98.86869
1118.266, 96.14127
1118.748, 92.68482
1119.230, 89.32672
1119.713, 86.11004
1120.195, 82.89114
1120.677, 79.77695
1121.159, 76.41950
1121.641, 72.42580
1122.123, 68.51488
1122.605, 65.55421
1123.087, 63.19378
1123.569, 59.99329
1124.052, 55.61747
1124.534, 51.76355
1125.016, 48.48936
1125.498, 45.55081
1125.980, 42.93885
1126.462, 40.48589
1126.944, 38.08101
1127.426, 35.75655
1127.909, 33.57014
1128.391, 31.51492
1128.873, 29.49832
1129.355, 27.49726
1129.837, 25.67864
1130.319, 24.08987
1130.801, 22.58477
1131.283, 21.05730
1131.766, 19.63762
1132.248, 18.52355
1132.730, 17.59451
1133.212, 16.28280
1133.694, 14.64232
1134.176, 13.35197
1134.658, 12.46569
1135.140, 11.76851
1135.622, 11.17771
1136.104, 10.44014
1136.587, 9.283058
1137.069, 8.015877
1137.551, 7.346348
1138.033, 7.074177
1138.515, 6.448528
1138.997, 5.567833
1139.479, 4.983643
1139.961, 4.776146
1140.444, 4.588390
1140.926, 4.211231
1141.408, 3.798271
1141.890, 3.586208
1142.372, 3.434551
1142.854, 3.041409
1143.336, 2.524574
1143.818, 2.194889
1144.301, 2.016827
1144.783, 1.653107
1145.265, 1.011978
1145.747, 0.5572660
1146.229, 0.8053280
1146.711, 1.136955
1147.193, 0.8984530
1147.675, 0.4362910
1148.157, 6.0421001E-02
1148.640, 0.1574590
1149.122, 4.1995998E-02
1149.604, 0.3319890
1150.086, 0.4551350
1150.568, 7.2710002E-03
1151.050, 0.3860090
1151.532, 0.2569470
1152.014, 4.2769998E-02
1152.496, 0.4513440
1152.979, 0.7674670
1153.461, 0.6486130
1153.943, 0.2802930
1154.425, 0.2438050
1154.907, 0.7127420
1155.389, 0.9665030
1155.871, 0.5714760
1156.353, 0.2448010
1156.836, 0.3776250
1157.318, 0.4793430
1157.800, 6.8931997E-02
1158.282, 0.4914250
1158.764, 0.6472170
1159.246, 0.3903810
1159.728, 0.1083450
1160.210, 0.3128620
1160.693, 0.5166630
1161.175, 0.3098140
1161.657, 0.1759070
1162.139, 0.3626710
1162.621, 0.5500600
1163.103, 0.3874590
1163.585, 7.3028997E-02
1164.067, 0.1866840
1164.549, 0.8417700
1165.031, 1.083332
1165.514, 0.7261810
1165.996, 0.6250230
1166.478, 1.028366
1166.960, 1.368130
1167.442, 1.342918
1167.924, 1.066811
1168.406, 0.6159210
1168.888, 0.1164700
1169.371, 0.3280140
1169.853, 1.225903
1170.335, 1.643604
1170.817, 1.514286
1171.299, 1.401470
1171.781, 1.481453
1172.263, 1.637730
1172.745, 1.794014
1173.228, 1.898342
1173.710, 1.821457
1174.192, 1.638630
1174.674, 1.585621
1175.156, 1.622505
1175.638, 1.591763
1176.120, 1.491169
1176.602, 1.460903
1177.084, 1.551712
1177.567, 1.583675
1178.049, 1.325142
1178.531, 1.055214
1179.013, 1.068584
1179.495, 1.275421
1179.977, 1.719902
1180.459, 2.193481
1180.941, 2.265446
1181.423, 1.945568
1181.906, 1.687576
1182.388, 1.693581
1182.870, 1.711006
1183.352, 1.500076
1183.834, 1.389194
1184.316, 1.712826
1184.798, 2.109676
1185.280, 2.191158
1185.763, 2.083508
1186.245, 2.152576
1186.727, 2.458977
1187.209, 2.534119
1187.691, 1.922005
1188.173, 1.649307
1188.655, 2.281296
1189.137, 2.755253
1189.620, 2.443790
1190.102, 1.962227
1190.584, 1.927410
1191.066, 2.215839
1191.548, 2.383995
1192.030, 2.396145
1192.512, 2.485275
1192.994, 2.721092
1193.476, 2.739292
1193.958, 2.379009
1194.441, 2.180492
1194.923, 2.495110
1195.405, 2.946232
1195.887, 3.013599
1196.369, 2.796268
1196.851, 2.665417
1197.333, 2.621986
1197.815, 2.731194
1198.298, 2.957451
1198.780, 2.892570
1199.262, 2.456917
1199.744, 2.157551
1200.226, 2.350258
1200.708, 2.636421
1201.190, 2.415138
1201.672, 2.003063
1202.155, 1.887001
1202.637, 2.013004
1203.119, 2.436665
1203.601, 2.961464
1204.083, 3.051292
1204.565, 2.596458
1205.047, 2.146996
1205.529, 1.968548
1206.011, 1.947990
1206.494, 2.148979
1206.976, 2.367672
1207.458, 2.416882
1207.940, 2.403210
1208.422, 2.486561
1208.904, 2.616825
1209.386, 2.619553
1209.868, 2.447914
1210.350, 2.311848
1210.833, 2.218014
1211.315, 2.162560
1211.797, 2.157890
1212.279, 2.170856
1212.761, 2.236824
1213.243, 2.276928
1213.725, 2.183887
1214.207, 1.981644
1214.690, 1.790554
1215.172, 1.596054
1215.654, 1.494694
1216.136, 1.509510
1216.618, 1.325951
1217.100, 0.8564190
1217.582, 0.5855900
1218.064, 0.8187220
1218.547, 1.170849
1219.029, 1.109547
1219.511, 0.8294640
1219.993, 0.9678800
1220.475, 1.352253
1220.957, 1.333031
1221.439, 0.9558560
1221.921, 0.5449330
1222.403, 0.2491460
1222.885, 0.3241310
1223.368, 0.9549030
1223.850, 1.527409
1224.332, 1.394241
1224.814, 1.033714
1225.296, 0.8184930
1225.778, 0.7171020
1226.260, 0.5182190
1226.742, 0.4499660
1227.225, 0.9125180
1227.707, 1.864166
1228.189, 2.295059
1228.671, 1.617031
1229.153, 1.002090
1229.635, 0.6740760
1230.117, 0.5281830
1230.599, 0.5853960
1231.082, 0.7434580
1231.564, 1.051186
1232.046, 1.393967
1232.528, 1.492149
1233.010, 1.357552
1233.492, 1.302727
1233.974, 1.373589
1234.456, 1.444393
1234.938, 1.517124
1235.421, 1.483963
1235.903, 1.295742
1236.385, 1.117531
1236.867, 1.031853
1237.349, 1.007835
1237.831, 0.9284290
1238.313, 0.8325540
1238.795, 0.8233640
1239.277, 0.9043880
1239.760, 1.054695
1240.242, 1.230209
1240.724, 1.342575
1241.206, 1.356129
1241.688, 1.314327
1242.170, 1.258816
1242.652, 1.169735
1243.134, 1.087257
1243.617, 0.9872360
1244.099, 0.6429670
1244.581, 0.3676950
1245.063, 0.7299190
1245.545, 1.386120
1246.027, 1.444176
1246.509, 0.7733540
1246.991, 0.4532360
1247.474, 0.8930280
1247.956, 1.329987
1248.438, 1.841492
1248.920, 2.107285
1249.402, 1.963825
1249.884, 1.647087
1250.366, 1.238979
1250.848, 0.8878170
1251.330, 0.8472790
1251.813, 1.086987
1252.295, 1.046944
1252.777, 0.7003940
1253.259, 0.7185820
1253.741, 1.154594
1254.223, 1.375385
1254.705, 1.215858
1255.187, 1.068249
1255.669, 1.248459
1256.152, 1.450817
1256.634, 1.331444
1257.116, 1.081615
1257.598, 0.8660770
1258.080, 0.7471620
1258.562, 0.9039920
1259.044, 1.224525
1259.526, 1.434994
1260.009, 1.481735
1260.491, 1.512299
1260.973, 1.660423
1261.455, 1.583645
1261.937, 0.8370400
1262.419, 0.2788160
1262.901, 0.3210720
1263.383, 0.6046370
1263.865, 1.041592
1264.348, 1.431503
1264.830, 1.354389
1265.312, 0.8528820
1265.794, 0.5042800
1266.276, 0.2743340
1266.758, 0.3027990
1267.240, 0.6244200
1267.722, 0.8009340
1268.204, 0.6997490
1268.687, 0.6642950
1269.169, 0.8700900
1269.651, 1.048790
1270.133, 0.8261300
1270.615, 0.4154820
1271.097, 0.2391780
1271.579, 0.1938630
1272.061, 4.9396999E-02
1272.544, 0.1059420
1273.026, 7.4310000E-03
1273.508, 0.3405880
1273.990, 0.5505220
1274.472, 0.4759290
1274.954, 0.3144380
1275.436, 5.7418998E-02
1275.918, 5.1516999E-02
1276.401, 0.2500500
1276.883, 0.5399250
1277.365, 0.5307200
1277.847, 0.3539540
1278.329, 0.1833270
1278.811, 7.3494002E-02
1279.293, 0.2357980
1279.775, 0.7186970
1280.257, 0.7320980
1280.740, 0.1050910
1281.222, 1.3729000E-02
1281.704, 0.6416320
1282.186, 0.6389770
1282.668, 0.0000000E+00
##END=



