##NAMES=Calaverite
##RRUFFID=R070164
##IDEAL CHEMISTRY=AuTe_2_
##LOCALITY=Vindicator mine, Cripple Creek, Teller County, Colorado, USA
##OWNER=RRUFF
##SOURCE=Michael Scott
##DESCRIPTION=Loose pale gold colored metallic fragments associated with quartz, used to define ICDD pattern
##STATUS=The identification of this mineral is confirmed by single-crystal X-ray diffraction and chemical analysis.
##URL=rruff.info/R070164
##MEASURED CHEMISTRY=(Au_0.90_Ag_0.10_)_Î£=1_Te_2.00_
128.0043, 0.0000000E+00
128.4864, 4.878540
128.9685, 1.667969
129.4506, 0.1669920
129.9327, 10.33051
130.4148, 27.41730
130.8969, 43.15240
131.3791, 48.87579
131.8612, 46.51385
132.3433, 50.83051
132.8254, 64.81146
133.3075, 85.35675
133.7896, 104.8130
134.2718, 122.6207
134.7539, 140.7049
135.2360, 159.3844
135.7181, 177.8314
136.2002, 202.5430
136.6823, 237.8043
137.1645, 282.3929
137.6466, 318.1852
138.1287, 343.9823
138.6108, 363.5617
139.0929, 381.9313
139.5750, 400.2953
140.0572, 413.6741
140.5393, 419.4061
141.0214, 415.3950
141.5035, 412.7402
141.9856, 410.1384
142.4677, 409.4419
142.9499, 415.7444
143.4320, 433.6017
143.9141, 451.5712
144.3962, 462.8555
144.8783, 456.7959
145.3604, 464.2261
145.8425, 494.2729
146.3247, 542.1332
146.8068, 575.3641
147.2889, 581.9014
147.7710, 582.5483
148.2531, 591.1745
148.7352, 617.0997
149.2174, 640.1189
149.6995, 655.4543
150.1816, 661.6486
150.6637, 674.1367
151.1458, 705.0034
151.6279, 737.1779
152.1101, 754.7494
152.5922, 735.4168
153.0743, 720.5983
153.5564, 724.4579
154.0385, 757.7266
154.5206, 778.1779
155.0028, 775.8537
155.4849, 757.2218
155.9670, 732.8343
156.4491, 697.7670
156.9312, 662.5966
157.4133, 632.4121
157.8955, 611.1561
158.3776, 590.3477
158.8597, 568.8999
159.3418, 545.6943
159.8239, 515.8189
160.3060, 470.1560
160.7882, 420.9081
161.2703, 377.2587
161.7524, 343.2920
162.2345, 314.2433
162.7166, 290.2839
163.1987, 271.6624
163.6808, 252.3448
164.1630, 226.8873
164.6451, 199.8174
165.1272, 175.9440
165.6093, 155.7764
166.0914, 140.2314
166.5735, 130.4388
167.0557, 126.5746
167.5378, 127.0548
168.0199, 133.1235
168.5020, 140.5560
168.9841, 143.7048
169.4662, 136.4559
169.9484, 125.2215
170.4305, 116.0458
170.9126, 110.1541
171.3947, 104.5504
171.8768, 94.59937
172.3589, 83.29169
172.8411, 73.30573
173.3232, 61.44000
173.8053, 50.06189
174.2874, 38.62549
174.7695, 25.34027
175.2516, 14.40253
175.7338, 13.00232
176.2159, 21.15424
176.6980, 27.67834
177.1801, 24.77142
177.6622, 17.64728
178.1443, 11.63989
178.6264, 8.041443
179.1086, 7.151123
179.5907, 4.176270
180.0728, 1.366821
180.5549, 5.531921
181.0370, 1.482605
181.5191, 8.248352
182.0013, 14.88702
182.4834, 13.97314
182.9655, 8.289001
183.4476, 4.496765
183.9297, 0.9677120
184.4118, 1.751709
184.8940, 0.4884030
185.3761, 4.695251
185.8582, 8.571594
186.3403, 11.10046
186.8224, 12.09259
187.3046, 9.220337
187.7867, 1.226196
188.2688, 7.268982
188.7509, 8.670654
189.2330, 3.192383
189.7151, 2.865723
190.1973, 7.024475
190.6794, 9.196411
191.1615, 8.208557
191.6436, 2.843384
192.1257, 3.696167
192.6078, 4.080444
193.0900, 2.469971
193.5721, 8.006287
194.0542, 5.732361
194.5363, 4.048401
195.0184, 10.93420
195.5005, 13.34198
195.9826, 12.08594
196.4648, 8.561523
196.9469, 2.201721
197.4290, 3.444763
197.9111, 4.100830
198.3932, 0.8757320
198.8753, 1.580139
199.3575, 6.078369
199.8396, 19.54224
200.3217, 24.26331
200.8038, 18.28912
201.2859, 9.206116
201.7680, 3.585571
202.2502, 1.438477
202.7323, 2.776123
203.2144, 9.445801
203.6965, 20.91223
204.1786, 26.31805
204.6607, 24.55151
205.1429, 18.71832
205.6250, 11.41772
206.1071, 1.727173
206.5892, 5.415466
207.0713, 8.335571
207.5534, 6.864868
208.0356, 3.160095
208.5177, 3.855530
208.9998, 11.82526
209.4819, 17.19177
209.9640, 19.47351
210.4461, 20.49951
210.9282, 20.91724
211.4104, 20.79449
211.8925, 19.75122
212.3746, 17.77136
212.8567, 14.86334
213.3388, 10.38171
213.8209, 2.633545
214.3031, 2.986145
214.7852, 2.524719
215.2673, 8.113037
215.7494, 10.77228
216.2315, 0.7633060
216.7136, 16.14447
217.1958, 22.16223
217.6779, 12.41742
218.1600, 0.6159670
218.6421, 5.960632
219.1242, 5.326111
219.6063, 4.482910
220.0885, 3.032227
220.5706, 1.677429
221.0527, 4.293274
221.5348, 14.66345
222.0169, 23.44476
222.4990, 23.87390
222.9812, 11.41388
223.4633, 0.9750370
223.9454, 6.535767
224.4275, 11.00873
224.9096, 9.586792
225.3917, 2.678711
225.8739, 14.74615
226.3560, 17.19318
226.8381, 3.220581
227.3202, 6.051208
227.8023, 5.767395
228.2844, 3.593811
228.7665, 7.671326
229.2487, 3.529480
229.7308, 2.810852
230.2129, 6.174866
230.6950, 5.489014
231.1771, 3.868347
231.6592, 1.848572
232.1414, 0.5382080
232.6235, 4.305359
233.1056, 11.07629
233.5877, 17.68677
234.0698, 20.06146
234.5519, 14.18671
235.0341, 11.46478
235.5162, 16.24799
235.9983, 30.27563
236.4804, 36.33813
236.9625, 31.03082
237.4446, 20.41193
237.9268, 11.08093
238.4089, 1.175049
238.8910, 4.355469
239.3731, 3.006470
239.8552, 7.227844
240.3373, 13.40710
240.8195, 14.24023
241.3016, 11.87286
241.7837, 8.897583
242.2658, 3.494202
242.7479, 0.5095830
243.2300, 1.685913
243.7122, 8.014343
244.1943, 14.65759
244.6764, 22.73718
245.1585, 30.46338
245.6406, 34.74847
246.1227, 33.51215
246.6048, 31.98407
247.0870, 32.73785
247.5691, 37.85748
248.0512, 37.19379
248.5333, 26.32849
249.0154, 11.88025
249.4975, 7.019897
249.9797, 17.47546
250.4618, 27.67206
250.9439, 31.39240
251.4260, 25.40839
251.9081, 22.18762
252.3902, 22.75433
252.8724, 25.31586
253.3545, 26.47028
253.8366, 26.06891
254.3187, 25.08142
254.8008, 23.41858
255.2829, 19.34534
255.7651, 18.97955
256.2472, 24.05310
256.7293, 32.09875
257.2114, 37.33148
257.6935, 39.62286
258.1756, 39.25543
258.6577, 34.73999
259.1399, 21.43127
259.6220, 18.27539
260.1041, 30.07812
260.5862, 50.40344
261.0683, 61.52136
261.5504, 60.49854
262.0326, 56.14862
262.5147, 52.06628
262.9968, 47.74402
263.4789, 45.90399
263.9610, 48.17126
264.4431, 52.09930
264.9253, 50.91431
265.4074, 42.68243
265.8895, 34.56274
266.3716, 30.51215
266.8537, 31.61920
267.3358, 31.78357
267.8180, 30.36249
268.3001, 27.93134
268.7822, 25.87476
269.2643, 23.91895
269.7464, 23.09399
270.2285, 23.97906
270.7107, 26.69476
271.1928, 31.08197
271.6749, 38.70575
272.1570, 46.78888
272.6391, 46.58844
273.1212, 35.41913
273.6034, 25.39368
274.0855, 24.85950
274.5676, 34.35260
275.0497, 41.41437
275.5318, 46.30237
276.0139, 49.06012
276.4961, 48.09552
276.9782, 42.43860
277.4603, 36.21191
277.9424, 31.62378
278.4245, 28.63513
278.9066, 27.69568
279.3888, 29.79401
279.8709, 32.83466
280.3530, 30.38940
280.8351, 21.41327
281.3172, 13.45099
281.7993, 12.52051
282.2815, 18.59955
282.7636, 21.72552
283.2457, 20.54321
283.7278, 17.35034
284.2099, 19.12653
284.6920, 26.13116
285.1741, 32.10468
285.6563, 33.86523
286.1384, 32.22504
286.6205, 28.48328
287.1026, 21.12994
287.5847, 13.63574
288.0668, 14.86224
288.5490, 25.01208
289.0311, 35.03894
289.5132, 37.45892
289.9953, 34.24396
290.4774, 36.69214
290.9595, 48.43579
291.4417, 61.36340
291.9238, 57.94153
292.4059, 39.58862
292.8880, 22.50940
293.3701, 17.43689
293.8522, 21.57306
294.3344, 26.38690
294.8165, 31.31085
295.2986, 35.87262
295.7807, 39.04449
296.2628, 40.68713
296.7449, 41.94672
297.2271, 44.19061
297.7092, 47.31000
298.1913, 50.15137
298.6734, 53.26892
299.1555, 55.33539
299.6376, 53.64856
300.1198, 49.27771
300.6019, 43.65851
301.0840, 33.85962
301.5661, 24.88379
302.0482, 26.15912
302.5303, 40.89703
303.0125, 55.64136
303.4946, 55.39801
303.9767, 44.42523
304.4588, 34.20380
304.9409, 32.37219
305.4230, 33.85950
305.9052, 32.22327
306.3873, 26.05475
306.8694, 21.09674
307.3515, 23.37830
307.8336, 30.65082
308.3157, 37.52509
308.7979, 43.16577
309.2800, 46.28076
309.7621, 43.98358
310.2442, 34.98651
310.7263, 28.43555
311.2084, 34.66040
311.6906, 46.48230
312.1727, 52.38892
312.6548, 40.20978
313.1369, 25.68042
313.6190, 19.38696
314.1011, 22.67877
314.5833, 27.65411
315.0654, 32.95099
315.5475, 37.18231
316.0296, 38.43762
316.5117, 31.26965
316.9938, 25.12079
317.4760, 25.03821
317.9580, 31.69330
318.4402, 38.24860
318.9223, 42.10394
319.4044, 44.96545
319.8865, 48.43347
320.3686, 57.31305
320.8507, 62.58679
321.3329, 59.76733
321.8150, 48.54822
322.2971, 38.91205
322.7792, 34.36108
323.2613, 31.38525
323.7434, 27.11377
324.2256, 15.94824
324.7077, 8.953247
325.1898, 9.460693
325.6719, 17.35883
326.1540, 24.66595
326.6361, 33.85889
327.1183, 41.37622
327.6004, 43.95154
328.0825, 35.77045
328.5646, 29.15924
329.0467, 25.40875
329.5288, 24.39984
330.0110, 24.11176
330.4931, 25.10571
330.9752, 26.27527
331.4573, 26.85944
331.9394, 25.79938
332.4215, 26.31610
332.9037, 29.99023
333.3858, 35.41095
333.8679, 36.91571
334.3500, 32.59424
334.8321, 27.43335
335.3142, 23.75781
335.7964, 21.47766
336.2785, 21.16577
336.7606, 23.47186
337.2427, 27.39606
337.7248, 30.82184
338.2069, 34.27148
338.6891, 35.53125
339.1712, 32.85455
339.6533, 25.81610
340.1354, 19.13763
340.6175, 12.06915
341.0996, 6.686890
341.5818, 7.650879
342.0639, 15.53461
342.5460, 23.98889
343.0281, 32.20404
343.5102, 39.60156
343.9923, 38.39178
344.4745, 26.60217
344.9566, 13.00562
345.4387, 10.43610
345.9208, 17.90186
346.4029, 25.54279
346.8850, 31.44366
347.3672, 34.41547
347.8493, 27.55524
348.3314, 9.931946
348.8135, 5.629395
349.2956, 1.404541
349.7777, 16.48267
350.2599, 29.18109
350.7419, 26.65198
351.2241, 17.71942
351.7062, 16.46338
352.1883, 22.41333
352.6704, 27.57800
353.1525, 24.17407
353.6346, 16.07196
354.1168, 9.527283
354.5989, 7.654602
355.0810, 6.427612
355.5631, 0.6535640
356.0452, 11.54919
356.5273, 16.35516
357.0095, 0.5830080
357.4916, 20.22888
357.9737, 29.66882
358.4558, 18.15015
358.9379, 5.743835
359.4200, 4.674988
359.9022, 11.24097
360.3843, 15.69348
360.8664, 10.74164
361.3485, 4.720337
361.8306, 2.729736
362.3127, 6.485229
362.7949, 11.65179
363.2770, 19.87811
363.7591, 28.31171
364.2412, 32.16125
364.7233, 26.09222
365.2054, 18.99304
365.6876, 13.11597
366.1697, 7.574341
366.6518, 7.202393
367.1339, 20.69769
367.6160, 36.62048
368.0981, 41.64221
368.5803, 23.22711
369.0624, 7.696167
369.5445, 0.2504270
370.0266, 1.308350
370.5087, 3.885620
370.9908, 10.45905
371.4730, 16.33716
371.9551, 16.78723
372.4372, 6.618774
372.9193, 2.062927
373.4014, 7.425049
373.8835, 20.74695
374.3657, 31.13171
374.8478, 38.37506
375.3299, 40.37091
375.8120, 34.38544
376.2941, 18.25092
376.7762, 7.943909
377.2584, 5.723877
377.7405, 9.634155
378.2226, 16.01233
378.7047, 25.32269
379.1868, 33.76697
379.6689, 40.23785
380.1511, 44.45026
380.6332, 43.13281
381.1153, 34.78369
381.5974, 24.82892
382.0795, 23.80597
382.5616, 29.90045
383.0438, 31.50531
383.5259, 17.83618
384.0080, 3.158081
384.4901, 13.52844
384.9722, 12.69910
385.4543, 7.687500
385.9364, 3.486084
386.4185, 2.8690000E-03
386.9007, 2.968201
387.3828, 4.706177
387.8649, 6.561462
388.3470, 10.33429
388.8291, 15.77808
389.3112, 20.97418
389.7934, 25.34174
390.2755, 28.43109
390.7576, 29.75500
391.2397, 29.01050
391.7218, 26.65277
392.2039, 21.33447
392.6861, 14.29230
393.1682, 9.362366
393.6503, 9.730347
394.1324, 11.43311
394.6145, 11.70819
395.0966, 7.929321
395.5788, 7.838989
396.0609, 18.90436
396.5430, 33.81708
397.0251, 40.26660
397.5072, 26.13763
397.9893, 13.18323
398.4715, 7.912231
398.9536, 11.88593
399.4357, 16.43439
399.9178, 24.38141
400.3999, 31.11597
400.8820, 31.49219
401.3642, 19.55554
401.8463, 11.70227
402.3284, 12.44269
402.8105, 20.70563
403.2926, 23.28265
403.7747, 17.40088
404.2569, 11.00018
404.7390, 10.46283
405.2211, 17.12341
405.7032, 22.64008
406.1853, 25.45935
406.6674, 26.41461
407.1496, 30.22668
407.6317, 37.49872
408.1138, 40.82245
408.5959, 32.47205
409.0780, 15.05377
409.5602, 6.248962
410.0423, 8.027527
410.5244, 14.60449
411.0065, 20.90002
411.4886, 26.38947
411.9707, 28.58594
412.4529, 22.32654
412.9350, 13.58173
413.4171, 13.96680
413.8992, 22.72473
414.3813, 30.70984
414.8634, 29.42889
415.3456, 23.64520
415.8277, 21.79987
416.3098, 30.17920
416.7919, 38.85785
417.2740, 40.26129
417.7561, 35.81299
418.2382, 31.27222
418.7203, 29.78717
419.2025, 28.89301
419.6846, 26.35626
420.1667, 19.61011
420.6488, 16.33667
421.1309, 22.26471
421.6130, 33.32227
422.0952, 40.70276
422.5773, 38.15344
423.0594, 35.29364
423.5415, 35.96655
424.0236, 42.12915
424.5057, 42.67749
424.9879, 30.67059
425.4700, 17.57306
425.9521, 13.61743
426.4342, 25.89978
426.9163, 35.10638
427.3984, 38.11853
427.8806, 35.68018
428.3627, 31.75812
428.8448, 25.44849
429.3269, 19.58136
429.8090, 16.90747
430.2911, 18.22723
430.7733, 14.69214
431.2554, 3.259277
431.7375, 9.383240
432.2196, 8.855896
432.7017, 5.171631
433.1838, 18.79401
433.6660, 24.62048
434.1481, 24.58728
434.6302, 25.70813
435.1123, 28.32422
435.5944, 29.84222
436.0765, 25.83063
436.5587, 18.50458
437.0408, 13.54810
437.5229, 13.49310
438.0050, 16.12610
438.4871, 20.99805
438.9692, 27.32434
439.4514, 30.76251
439.9335, 26.74976
440.4156, 19.54449
440.8977, 12.62604
441.3798, 5.642944
441.8619, 1.258484
442.3441, 2.597046
442.8262, 7.679443
443.3083, 11.79504
443.7904, 10.17621
444.2725, 9.986023
444.7546, 15.28876
445.2368, 27.89716
445.7189, 36.11871
446.2010, 37.72937
446.6831, 34.79059
447.1652, 28.71130
447.6473, 12.32477
448.1295, 3.270020
448.6116, 6.713013
449.0937, 19.90527
449.5758, 27.51837
450.0579, 27.94470
450.5400, 25.80798
451.0221, 22.32397
451.5042, 16.42322
451.9864, 17.00055
452.4685, 26.92444
452.9506, 39.25751
453.4327, 40.85016
453.9148, 31.57928
454.3969, 24.76984
454.8791, 27.69867
455.3612, 37.00537
455.8433, 42.01941
456.3254, 42.61017
456.8075, 40.72791
457.2896, 36.52966
457.7718, 31.20844
458.2539, 27.61884
458.7360, 26.91675
459.2181, 27.42120
459.7002, 26.49371
460.1823, 25.38892
460.6645, 27.07007
461.1466, 41.30200
461.6287, 53.45612
462.1108, 48.15906
462.5929, 18.52228
463.0750, 2.994751
463.5572, 4.020813
464.0393, 23.87067
464.5214, 38.11981
465.0035, 41.43701
465.4856, 39.61365
465.9677, 29.55548
466.4499, 12.05231
466.9320, 4.538696
467.4141, 16.28754
467.8962, 30.01428
468.3783, 36.29779
468.8604, 30.68231
469.3426, 27.04437
469.8247, 26.39490
470.3068, 27.23004
470.7889, 26.82605
471.2710, 25.31885
471.7531, 21.90552
472.2353, 14.36090
472.7174, 3.665344
473.1995, 1.619385
473.6816, 9.311707
474.1637, 18.86792
474.6458, 22.70154
475.1280, 21.58392
475.6101, 18.82605
476.0922, 14.25415
476.5743, 9.823120
477.0564, 10.18744
477.5385, 13.90021
478.0207, 14.75092
478.5028, 2.600830
478.9849, 10.78564
479.4670, 11.10217
479.9491, 4.682495
480.4312, 20.61847
480.9134, 29.87347
481.3955, 32.88721
481.8776, 30.06946
482.3597, 10.80896
482.8418, 3.391174
483.3239, 1.906738
483.8060, 13.09460
484.2881, 24.92712
484.7703, 31.72272
485.2524, 33.82849
485.7345, 30.69263
486.2166, 16.90802
486.6987, 9.246399
487.1808, 10.07422
487.6630, 15.43152
488.1451, 19.51385
488.6272, 22.38855
489.1093, 23.64331
489.5914, 22.54675
490.0735, 19.81128
490.5557, 15.30511
491.0378, 7.656189
491.5199, 2.274902
492.0020, 5.470154
492.4841, 15.68054
492.9662, 23.39423
493.4484, 26.90961
493.9305, 28.47095
494.4126, 31.75293
494.8947, 35.80798
495.3768, 37.28400
495.8589, 30.85938
496.3411, 23.57758
496.8232, 24.22577
497.3053, 32.63892
497.7874, 37.85748
498.2695, 27.79742
498.7516, 14.22192
499.2338, 8.350525
499.7159, 21.84174
500.1980, 31.52814
500.6801, 25.48419
501.1622, 10.36310
501.6443, 2.853210
502.1265, 15.45135
502.6086, 26.26654
503.0907, 27.28680
503.5728, 16.11072
504.0549, 10.95294
504.5370, 13.48071
505.0192, 18.61542
505.5013, 23.44910
505.9834, 28.44501
506.4655, 30.63818
506.9476, 28.06018
507.4297, 23.69476
507.9119, 27.09558
508.3940, 38.78448
508.8761, 48.42963
509.3582, 49.70996
509.8403, 44.50171
510.3224, 37.46100
510.8046, 28.43262
511.2867, 21.13275
511.7688, 19.99896
512.2509, 22.96637
512.7330, 26.16223
513.2151, 28.54822
513.6973, 30.54150
514.1794, 32.08765
514.6615, 33.42273
515.1436, 35.30896
515.6257, 43.71912
516.1078, 48.45801
516.5900, 40.96484
517.0721, 15.65961
517.5542, 1.719238
518.0363, 2.398499
518.5184, 4.535156
519.0005, 9.915283
519.4827, 12.43317
519.9648, 15.49146
520.4469, 20.61066
520.9290, 26.28015
521.4111, 26.79688
521.8932, 19.99158
522.3754, 13.39423
522.8575, 11.01178
523.3396, 12.83203
523.8217, 15.17548
524.3038, 18.25568
524.7859, 21.00842
525.2681, 21.61969
525.7502, 20.76312
526.2323, 21.60638
526.7144, 26.37994
527.1965, 31.52069
527.6786, 31.69641
528.1608, 27.95251
528.6429, 24.23853
529.1250, 23.11926
529.6071, 22.80603
530.0892, 21.61652
530.5714, 19.11829
531.0535, 17.52765
531.5356, 19.63013
532.0176, 22.26373
532.4998, 22.33521
532.9819, 15.32965
533.4640, 10.35919
533.9461, 9.050171
534.4282, 10.71423
534.9103, 13.31274
535.3925, 18.14874
535.8746, 21.87714
536.3567, 22.19373
536.8388, 17.78918
537.3209, 19.68604
537.8030, 31.70197
538.2852, 41.98254
538.7673, 34.05994
539.2494, 9.717407
539.7315, 2.742920
540.2136, 5.631042
540.6957, 22.95502
541.1779, 31.90930
541.6600, 33.29083
542.1421, 30.51703
542.6242, 21.51660
543.1063, 11.53900
543.5884, 5.603149
544.0706, 3.986511
544.5527, 6.414307
545.0348, 19.42291
545.5169, 32.97113
545.9990, 37.67773
546.4811, 22.76929
546.9633, 10.80908
547.4454, 7.608521
547.9275, 10.62189
548.4096, 13.80200
548.8917, 17.91052
549.3738, 20.84320
549.8560, 21.41516
550.3381, 19.59625
550.8202, 21.13873
551.3023, 28.48767
551.7844, 33.65686
552.2665, 28.62817
552.7487, 13.45148
553.2308, 1.719055
553.7129, 5.119141
554.1950, 8.382935
554.6771, 9.137329
555.1592, 7.739258
555.6414, 5.750427
556.1235, 4.856323
556.6056, 3.039063
557.0877, 3.502747
557.5698, 13.88678
558.0519, 22.50226
558.5341, 27.07294
559.0162, 28.06171
559.4983, 24.90839
559.9804, 16.29083
560.4625, 8.049011
560.9446, 1.420288
561.4268, 8.523926
561.9089, 8.684326
562.3910, 7.565308
562.8731, 18.12909
563.3552, 18.16040
563.8373, 10.18903
564.3195, 4.480591
564.8016, 0.3890380
565.2837, 0.4746090
565.7658, 8.731140
566.2479, 24.76343
566.7300, 32.24384
567.2122, 30.13629
567.6943, 24.70520
568.1764, 21.68268
568.6585, 20.54028
569.1406, 19.78510
569.6227, 19.01654
570.1049, 18.58099
570.5870, 19.08051
571.0691, 20.20490
571.5512, 21.23627
572.0333, 21.69537
572.5154, 22.07068
572.9976, 23.66162
573.4797, 26.47723
573.9618, 25.81232
574.4439, 12.85992
574.9260, 1.506592
575.4081, 0.9390870
575.8903, 21.29181
576.3724, 34.30957
576.8545, 38.36774
577.3366, 35.91248
577.8187, 28.32977
578.3008, 13.02020
578.7830, 5.652466
579.2651, 13.77734
579.7472, 30.65137
580.2293, 34.24738
580.7114, 24.94788
581.1935, 13.97717
581.6757, 6.739380
582.1578, 3.388733
582.6399, 6.371704
583.1220, 16.33698
583.6041, 23.95398
584.0862, 18.96399
584.5684, 8.772400
585.0505, 2.168335
585.5326, 3.477234
586.0147, 6.197815
586.4968, 9.018127
586.9789, 11.66309
587.4611, 13.55945
587.9432, 11.25153
588.4253, 12.11151
588.9074, 20.60840
589.3895, 36.52124
589.8716, 40.58710
590.3538, 27.15533
590.8359, 13.94043
591.3180, 15.30200
591.8001, 31.26392
592.2822, 39.92841
592.7643, 38.95465
593.2465, 34.16522
593.7286, 31.39178
594.2107, 30.76392
594.6928, 33.20502
595.1749, 42.90533
595.6570, 51.15601
596.1392, 47.91980
596.6213, 35.62390
597.1034, 22.45416
597.5854, 5.568054
598.0676, 5.717041
598.5497, 3.658081
599.0318, 14.13263
599.5139, 26.54767
599.9960, 24.89465
600.4781, 20.69861
600.9603, 21.89227
601.4424, 33.88831
601.9245, 38.98962
602.4066, 34.55988
602.8887, 25.20282
603.3708, 17.19458
603.8530, 10.42065
604.3351, 7.808960
604.8172, 12.07367
605.2993, 19.69727
605.7814, 22.47620
606.2635, 20.80426
606.7457, 17.64203
607.2278, 14.05908
607.7099, 10.45447
608.1920, 6.947754
608.6741, 3.443420
609.1563, 1.566956
609.6384, 3.348511
610.1205, 6.535767
610.6026, 9.160278
611.0847, 11.01355
611.5668, 11.67194
612.0490, 10.85291
612.5311, 9.342896
613.0132, 8.115112
613.4953, 6.620667
613.9774, 6.876099
614.4595, 10.78259
614.9417, 16.96002
615.4238, 15.24371
615.9059, 4.512573
616.3880, 3.177734
616.8701, 3.048950
617.3522, 18.15179
617.8344, 26.80621
618.3165, 28.27472
618.7986, 26.50555
619.2807, 23.00409
619.7628, 19.10699
620.2449, 16.66956
620.7271, 15.77094
621.2092, 15.00079
621.6913, 13.52380
622.1734, 11.80939
622.6555, 10.60907
623.1376, 10.81689
623.6198, 10.74792
624.1019, 8.894958
624.5840, 6.096863
625.0661, 8.059753
625.5482, 16.65271
626.0303, 25.63739
626.5125, 33.93561
626.9946, 41.20477
627.4767, 36.27490
627.9588, 17.26404
628.4409, 0.3477780
628.9230, 5.290161
629.4052, 23.69482
629.8873, 36.64612
630.3694, 39.81409
630.8515, 38.65112
631.3336, 35.57855
631.8157, 31.57031
632.2979, 28.18854
632.7800, 25.85010
633.2621, 24.34491
633.7442, 23.32782
634.2263, 23.44220
634.7084, 25.95575
635.1906, 35.23767
635.6727, 39.33875
636.1548, 30.84961
636.6369, 9.053040
637.1190, 0.9450070
637.6011, 9.560181
638.0833, 21.33142
638.5654, 24.29236
639.0475, 20.25708
639.5296, 19.05157
640.0117, 22.19836
640.4938, 26.20636
640.9760, 25.49518
641.4581, 23.35919
641.9402, 26.16235
642.4223, 45.03729
642.9044, 58.45282
643.3865, 47.49390
643.8687, 22.45270
644.3508, 9.162354
644.8329, 29.52948
645.3150, 45.95544
645.7971, 45.30322
646.2792, 28.35834
646.7614, 20.22058
647.2435, 24.38916
647.7256, 29.91479
648.2077, 29.61407
648.6898, 23.56824
649.1719, 19.93829
649.6541, 18.92157
650.1362, 19.87878
650.6183, 23.20306
651.1004, 27.90094
651.5825, 32.41949
652.0646, 37.39130
652.5468, 38.49902
653.0289, 27.97650
653.5110, 12.44745
653.9931, 3.003113
654.4752, 7.534180
654.9573, 13.92560
655.4395, 18.32953
655.9216, 21.14374
656.4037, 27.25342
656.8858, 42.22571
657.3679, 51.22351
657.8500, 46.32690
658.3322, 28.35822
658.8143, 18.68420
659.2964, 16.93732
659.7785, 17.60895
660.2606, 16.97198
660.7427, 16.17346
661.2249, 18.84821
661.7070, 25.85675
662.1891, 32.95990
662.6712, 35.46796
663.1533, 36.10101
663.6354, 38.89337
664.1175, 50.54382
664.5996, 56.65417
665.0817, 47.51270
665.5638, 30.20789
666.0460, 18.93500
666.5281, 16.21033
667.0102, 16.81311
667.4923, 20.64172
667.9744, 27.03918
668.4565, 33.50287
668.9387, 40.73755
669.4208, 44.43549
669.9029, 39.88251
670.3850, 29.87286
670.8671, 24.64105
671.3492, 24.18365
671.8314, 26.16174
672.3135, 31.36804
672.7956, 36.70929
673.2777, 38.26801
673.7598, 34.00989
674.2419, 29.59741
674.7241, 27.31244
675.2062, 26.18713
675.6883, 25.29767
676.1704, 25.35767
676.6525, 24.42340
677.1346, 21.80304
677.6168, 18.51978
678.0989, 16.68427
678.5810, 16.60114
679.0631, 15.86389
679.5452, 12.65460
680.0273, 9.325867
680.5095, 14.07434
680.9916, 25.45490
681.4737, 33.62189
681.9558, 29.04993
682.4379, 21.00183
682.9200, 19.05676
683.4022, 23.27686
683.8843, 28.64319
684.3664, 35.13300
684.8485, 40.49005
685.3306, 43.67792
685.8127, 44.87250
686.2949, 42.08459
686.7770, 31.70245
687.2591, 21.25134
687.7412, 18.15594
688.2233, 23.57501
688.7054, 27.21832
689.1876, 28.44971
689.6697, 26.89777
690.1518, 20.44580
690.6339, 10.46729
691.1160, 1.158569
691.5981, 9.157715
692.0803, 13.77979
692.5624, 0.4904790
693.0445, 24.98743
693.5266, 39.93872
694.0087, 30.21869
694.4908, 17.75128
694.9730, 7.693848
695.4551, 1.086243
695.9372, 4.001282
696.4193, 24.88000
696.9014, 40.79541
697.3835, 39.87909
697.8657, 22.98224
698.3478, 13.14722
698.8299, 10.73926
699.3120, 12.40332
699.7941, 18.38452
700.2762, 25.89221
700.7584, 27.65149
701.2405, 22.24463
701.7226, 17.46777
702.2047, 21.69293
702.6868, 28.39142
703.1689, 30.43225
703.6511, 23.35065
704.1332, 16.60968
704.6153, 10.87262
705.0974, 6.844788
705.5795, 5.690674
706.0616, 8.459595
706.5438, 11.85883
707.0259, 16.55817
707.5080, 20.33319
707.9901, 15.96375
708.4722, 4.155762
708.9543, 4.241516
709.4365, 3.410522
709.9186, 2.207397
710.4007, 7.568054
710.8828, 12.48230
711.3649, 16.30487
711.8470, 18.19794
712.3292, 19.32306
712.8113, 19.66754
713.2934, 19.16187
713.7755, 21.20685
714.2576, 33.47974
714.7397, 39.81989
715.2219, 29.01740
715.7040, 2.546570
716.1861, 17.74475
716.6682, 14.50531
717.1503, 2.890747
717.6324, 11.75293
718.1146, 27.34003
718.5967, 37.45435
719.0788, 41.25891
719.5609, 39.43262
720.0430, 26.74133
720.5251, 10.98425
721.0073, 1.882202
721.4894, 5.546509
721.9715, 11.10736
722.4536, 17.00494
722.9357, 22.76245
723.4178, 27.86969
723.9000, 33.03668
724.3821, 35.96729
724.8642, 36.54108
725.3463, 34.36340
725.8284, 25.27722
726.3105, 9.900940
726.7927, 1.754578
727.2748, 10.34766
727.7569, 26.35199
728.2390, 40.52423
728.7211, 51.24445
729.2032, 51.99579
729.6853, 25.09924
730.1674, 0.1497800
730.6495, 3.998596
731.1317, 13.69263
731.6138, 27.58990
732.0959, 37.40424
732.5780, 41.59009
733.0601, 37.70923
733.5422, 24.97583
734.0244, 17.23364
734.5065, 14.88959
734.9886, 14.75598
735.4707, 14.67822
735.9528, 14.59607
736.4349, 14.33594
736.9171, 13.86816
737.3992, 13.32739
737.8813, 11.15576
738.3634, 9.786621
738.8455, 12.51385
739.3276, 25.16962
739.8098, 31.93445
740.2919, 23.83423
740.7740, 12.00269
741.2561, 9.156494
741.7382, 19.75256
742.2203, 23.66998
742.7025, 15.90228
743.1846, 4.801208
743.6667, 6.591187
744.1488, 17.80048
744.6309, 28.88788
745.1130, 37.55054
745.5952, 42.59833
746.0773, 40.26343
746.5594, 33.30963
747.0415, 28.24750
747.5236, 29.81311
748.0057, 31.24408
748.4879, 28.34399
748.9700, 22.83624
749.4521, 23.52753
749.9342, 33.94391
750.4163, 42.59357
750.8984, 43.83142
751.3806, 38.91510
751.8627, 33.05902
752.3448, 26.35590
752.8269, 21.03607
753.3090, 19.29907
753.7911, 19.50317
754.2733, 18.66931
754.7554, 17.00525
755.2375, 18.72687
755.7196, 31.05811
756.2017, 43.40222
756.6838, 48.85364
757.1660, 44.90936
757.6481, 42.19781
758.1302, 42.08636
758.6123, 41.20404
759.0944, 35.25256
759.5765, 24.09772
760.0587, 22.40796
760.5408, 32.08795
761.0229, 42.54816
761.5050, 43.70752
761.9871, 38.47882
762.4692, 30.66650
762.9514, 19.19818
763.4335, 12.50635
763.9156, 22.90381
764.3977, 36.96429
764.8798, 40.42230
765.3619, 17.22351
765.8441, 4.242065
766.3262, 5.712585
766.8083, 13.34802
767.2904, 16.24384
767.7725, 14.21356
768.2546, 14.29492
768.7368, 18.13843
769.2189, 23.81085
769.7010, 31.20807
770.1831, 38.18414
770.6652, 39.54803
771.1473, 28.81549
771.6295, 17.66895
772.1116, 9.234558
772.5937, 5.167969
773.0758, 9.553345
773.5579, 35.50354
774.0400, 50.69312
774.5222, 48.21295
775.0043, 34.45020
775.4864, 25.66107
775.9685, 21.89233
776.4506, 19.98413
776.9327, 19.14008
777.4149, 19.00220
777.8970, 19.66522
778.3791, 20.64612
778.8612, 20.18109
779.3433, 15.17957
779.8254, 10.44971
780.3076, 8.964172
780.7897, 10.41748
781.2718, 11.80609
781.7539, 12.02118
782.2360, 13.43933
782.7181, 17.75525
783.2003, 24.30487
783.6824, 26.25861
784.1645, 23.35040
784.6466, 20.36615
785.1287, 22.72211
785.6108, 26.00757
786.0930, 20.52271
786.5751, 6.982971
787.0572, 4.145630
787.5393, 6.264282
788.0214, 4.648193
788.5035, 1.924255
788.9857, 2.390869
789.4678, 5.320679
789.9499, 6.546814
790.4320, 6.828674
790.9141, 5.890259
791.3962, 3.723633
791.8784, 5.353333
792.3605, 11.09961
792.8426, 16.84698
793.3247, 19.07953
793.8068, 19.16943
794.2889, 19.11859
794.7711, 19.15814
795.2531, 18.96100
795.7352, 19.21631
796.2173, 18.58929
796.6995, 15.02692
797.1816, 4.939819
797.6637, 3.564514
798.1458, 14.56592
798.6279, 28.83459
799.1100, 40.24103
799.5922, 48.34711
800.0743, 40.14124
800.5564, 11.94110
801.0385, 11.51312
801.5206, 3.755066
802.0027, 34.27032
802.4849, 47.42688
802.9670, 31.42017
803.4491, 16.03833
803.9312, 10.63275
804.4133, 10.43304
804.8954, 10.86908
805.3776, 13.24615
805.8597, 11.57159
806.3418, 2.780518
806.8239, 4.141479
807.3060, 5.760864
807.7881, 28.08173
808.2703, 41.45789
808.7524, 40.72308
809.2345, 36.23364
809.7166, 38.26727
810.1987, 41.75372
810.6808, 39.98267
811.1630, 26.57025
811.6451, 15.74042
812.1272, 10.83167
812.6093, 8.689880
813.0914, 5.468933
813.5735, 8.2457997E-02
814.0557, 0.7765500
814.5378, 4.049377
815.0199, 12.64398
815.5020, 27.61578
815.9841, 44.00903
816.4662, 46.94128
816.9484, 26.02026
817.4305, 5.918945
817.9126, 7.471985
818.3947, 18.27045
818.8768, 22.13757
819.3589, 7.244629
819.8411, 2.576782
820.3232, 6.819397
820.8053, 5.073853
821.2874, 6.779968
821.7695, 28.81146
822.2516, 42.11536
822.7338, 42.04608
823.2159, 34.81616
823.6980, 24.99072
824.1801, 14.39270
824.6622, 6.569824
825.1443, 2.716675
825.6265, 1.601135
826.1086, 4.510254
826.5907, 9.336609
827.0728, 12.83295
827.5549, 15.21387
828.0370, 15.23804
828.5192, 11.45624
829.0013, 7.397400
829.4834, 10.56513
829.9655, 19.89258
830.4476, 25.87097
830.9297, 26.01373
831.4119, 24.66833
831.8940, 26.19617
832.3761, 28.69073
832.8582, 29.23767
833.3403, 23.32977
833.8224, 20.37091
834.3046, 23.28784
834.7867, 28.37250
835.2688, 30.48761
835.7509, 29.62384
836.2330, 25.08844
836.7151, 15.18317
837.1973, 5.535950
837.6794, 5.239685
838.1615, 11.05865
838.6436, 15.62665
839.1257, 15.37531
839.6078, 15.45654
840.0900, 20.30170
840.5721, 26.28137
841.0542, 27.67456
841.5363, 19.89954
842.0184, 16.90045
842.5005, 21.58331
842.9827, 29.07642
843.4648, 32.91724
843.9469, 33.30164
844.4290, 28.22491
844.9111, 15.73041
845.3932, 3.628418
845.8754, 0.1573490
846.3575, 1.867432
846.8396, 3.747986
847.3217, 0.9078980
847.8038, 3.136841
848.2859, 17.13660
848.7681, 32.83710
849.2502, 37.51410
849.7323, 29.42511
850.2144, 23.85443
850.6965, 23.49072
851.1786, 23.85376
851.6608, 15.15350
852.1429, 3.637268
852.6250, 3.388733
853.1071, 23.68970
853.5892, 39.91492
854.0714, 37.70258
854.5535, 26.04541
855.0356, 14.23578
855.5177, 1.362671
855.9998, 7.429382
856.4819, 1.354858
856.9641, 9.636719
857.4462, 17.95532
857.9283, 23.80988
858.4104, 28.48010
858.8925, 31.94171
859.3746, 31.90979
859.8568, 17.07318
860.3389, 6.0059000E-02
860.8210, 3.912170
861.3030, 17.39331
861.7852, 28.42035
862.2673, 20.20685
862.7494, 7.746582
863.2315, 3.548584
863.7136, 8.075317
864.1957, 12.33887
864.6779, 15.68719
865.1600, 17.89240
865.6421, 15.46130
866.1242, 11.99261
866.6063, 13.34882
867.0884, 20.97198
867.5706, 28.42798
868.0527, 37.42120
868.5348, 41.68335
869.0169, 35.02612
869.4990, 13.14410
869.9811, 7.187134
870.4633, 21.11755
870.9454, 36.21509
871.4275, 34.30505
871.9096, 22.53809
872.3917, 19.29736
872.8738, 25.25989
873.3560, 31.46301
873.8381, 31.59460
874.3202, 30.54187
874.8023, 32.89117
875.2844, 39.79816
875.7665, 38.88831
876.2487, 24.45050
876.7308, 13.71521
877.2129, 19.42303
877.6950, 36.77368
878.1771, 38.55609
878.6592, 26.23505
879.1414, 13.50201
879.6235, 4.766663
880.1056, 2.018005
880.5877, 10.99384
881.0698, 29.47485
881.5519, 41.80560
882.0341, 43.23187
882.5162, 40.05103
882.9983, 32.54468
883.4804, 22.29797
883.9625, 13.66400
884.4446, 6.036194
884.9268, 5.110657
885.4089, 22.34650
885.8910, 40.58484
886.3731, 31.41620
886.8552, 5.330139
887.3373, 8.220703
887.8195, 19.16840
888.3016, 39.07501
888.7837, 31.31592
889.2658, 9.574524
889.7479, 9.120544
890.2300, 33.28491
890.7122, 52.68066
891.1943, 60.10406
891.6764, 58.28308
892.1585, 43.42175
892.6406, 23.40125
893.1227, 16.36578
893.6049, 44.85229
894.0870, 64.59528
894.5691, 50.33307
895.0512, 21.52649
895.5333, 5.854126
896.0154, 7.373962
896.4976, 9.348694
896.9797, 10.11658
897.4618, 10.78638
897.9439, 12.34778
898.4260, 14.99957
898.9081, 20.78650
899.3903, 32.41473
899.8724, 38.10083
900.3545, 20.85614
900.8366, 0.4416500
901.3187, 5.869263
901.8008, 14.12305
902.2830, 22.73950
902.7651, 16.11578
903.2472, 7.166138
903.7293, 8.189270
904.2114, 16.51129
904.6935, 20.48425
905.1757, 19.46161
905.6578, 18.59308
906.1399, 24.18530
906.6220, 29.28149
907.1041, 26.53137
907.5862, 14.01843
908.0684, 10.14124
908.5505, 19.99585
909.0326, 29.96429
909.5147, 33.93372
909.9968, 32.65149
910.4789, 27.26227
910.9611, 18.58167
911.4432, 14.27582
911.9253, 24.14532
912.4074, 35.96704
912.8895, 40.39050
913.3716, 38.01245
913.8538, 33.69604
914.3359, 26.16754
914.8180, 21.77509
915.3001, 22.48895
915.7822, 26.70264
916.2643, 31.58801
916.7465, 36.64276
917.2286, 37.31323
917.7107, 28.43628
918.1928, 20.50317
918.6749, 26.69952
919.1570, 39.86670
919.6392, 47.01257
920.1213, 39.33612
920.6034, 33.05145
921.0855, 30.15137
921.5676, 28.08704
922.0497, 21.31622
922.5319, 10.64062
923.0140, 10.59314
923.4961, 25.30383
923.9782, 38.50940
924.4603, 31.09064
924.9424, 15.94604
925.4246, 7.166870
925.9067, 8.350769
926.3888, 12.68018
926.8708, 22.91248
927.3530, 31.39801
927.8351, 31.65411
928.3172, 23.88702
928.7993, 23.37762
929.2814, 30.18024
929.7635, 35.04797
930.2457, 26.09949
930.7278, 15.08716
931.2099, 16.66028
931.6920, 29.86530
932.1741, 37.25562
932.6563, 29.97064
933.1384, 22.38831
933.6205, 17.98633
934.1026, 16.64172
934.5847, 19.85785
935.0668, 27.21246
935.5490, 30.82269
936.0311, 25.74878
936.5132, 17.32819
936.9953, 8.751282
937.4774, 1.195068
937.9595, 2.777466
938.4417, 0.4904170
938.9238, 3.363892
939.4059, 10.83997
939.8880, 16.95758
940.3701, 11.45331
940.8522, 4.597595
941.3344, 13.83722
941.8165, 12.97913
942.2986, 6.421326
942.7807, 8.627808
943.2628, 23.35565
943.7449, 25.41937
944.2271, 4.336487
944.7092, 1.479492
945.1913, 21.18738
945.6734, 44.75513
946.1555, 46.55945
946.6376, 28.43958
947.1198, 16.86249
947.6019, 11.83209
948.0840, 13.11969
948.5661, 28.90588
949.0482, 44.40790
949.5303, 43.35071
950.0125, 27.27924
950.4946, 19.78778
950.9767, 29.96558
951.4588, 37.27448
951.9409, 34.83307
952.4230, 26.15051
952.9052, 21.14270
953.3873, 19.48169
953.8694, 19.20544
954.3515, 20.20001
954.8336, 21.29425
955.3157, 23.57245
955.7979, 24.79730
956.2800, 20.65002
956.7621, 1.559998
957.2442, 5.354248
957.7263, 18.18982
958.2084, 48.16101
958.6906, 58.97809
959.1727, 54.33148
959.6548, 50.05817
960.1369, 47.70862
960.6190, 45.07483
961.1011, 40.63403
961.5833, 35.40631
962.0654, 30.49335
962.5475, 24.41235
963.0296, 19.08795
963.5117, 14.08337
963.9938, 14.14362
964.4760, 25.48053
964.9581, 42.83508
965.4402, 51.07941
965.9223, 51.14758
966.4044, 47.40247
966.8865, 36.99908
967.3687, 28.66431
967.8508, 30.75641
968.3329, 37.61627
968.8150, 32.92792
969.2971, 12.08966
969.7792, 1.129761
970.2614, 1.099243
970.7435, 5.678223
971.2256, 11.37396
971.7077, 16.39679
972.1898, 21.68903
972.6719, 27.41199
973.1541, 33.34485
973.6362, 43.10846
974.1183, 50.07275
974.6004, 48.41492
975.0825, 36.34814
975.5646, 27.32483
976.0468, 21.38239
976.5289, 18.08905
977.0110, 17.56262
977.4931, 19.21185
977.9752, 24.43793
978.4573, 32.17273
978.9395, 34.92938
979.4216, 20.79980
979.9037, 12.94696
980.3858, 20.68903
980.8679, 37.70367
981.3500, 44.86432
981.8322, 42.54974
982.3143, 38.63678
982.7964, 35.47479
983.2785, 32.18652
983.7606, 27.58496
984.2427, 22.45740
984.7249, 17.91254
985.2070, 13.69141
985.6891, 10.52118
986.1712, 6.600708
986.6533, 6.717468
987.1354, 21.08795
987.6176, 44.48932
988.0997, 49.07263
988.5818, 33.42560
989.0639, 18.73334
989.5460, 21.07898
990.0281, 28.15753
990.5103, 33.09772
990.9924, 35.19983
991.4745, 32.84668
991.9566, 23.88556
992.4387, 17.81805
992.9208, 19.25549
993.4029, 24.30670
993.8850, 25.07178
994.3671, 22.86768
994.8492, 21.11725
995.3314, 20.63599
995.8135, 21.24268
996.2956, 24.24353
996.7777, 28.11853
997.2598, 32.04755
997.7419, 36.86432
998.2241, 33.74500
998.7062, 20.57617
999.1883, 8.211365
999.6704, 9.149658
1000.153, 17.23602
1000.635, 26.40381
1001.117, 35.46454
1001.599, 39.53247
1002.081, 35.78833
1002.563, 29.09619
1003.045, 18.12079
1003.527, 6.219482
1004.009, 7.249146
1004.492, 19.57581
1004.974, 30.60468
1005.456, 36.94556
1005.938, 37.45441
1006.420, 26.73328
1006.902, 11.24725
1007.384, 1.273254
1007.866, 2.748718
1008.349, 0.8237300
1008.831, 15.19720
1009.313, 29.39880
1009.795, 29.98547
1010.277, 21.57617
1010.759, 14.92786
1011.241, 11.06061
1011.723, 8.444458
1012.205, 4.911438
1012.688, 3.880310
1013.170, 8.532410
1013.652, 17.46063
1014.134, 22.38477
1014.616, 22.94025
1015.098, 21.54724
1015.580, 18.90369
1016.062, 16.40210
1016.544, 17.26147
1017.027, 19.62573
1017.509, 20.30212
1017.991, 20.13586
1018.473, 14.52441
1018.955, 2.233643
1019.437, 16.74695
1019.919, 12.21698
1020.401, 7.976807
1020.884, 22.20862
1021.366, 29.00562
1021.848, 30.26855
1022.330, 20.78479
1022.812, 11.83411
1023.294, 13.72180
1023.776, 25.17725
1024.258, 27.83789
1024.740, 18.83972
1025.223, 12.17480
1025.705, 13.17505
1026.187, 17.22522
1026.669, 15.64563
1027.151, 11.22021
1027.633, 10.37537
1028.115, 19.38831
1028.597, 24.20447
1029.079, 14.93469
1029.562, 5.650146
1030.044, 10.36267
1030.526, 29.32263
1031.008, 33.22852
1031.490, 21.45959
1031.972, 9.175781
1032.454, 6.365112
1032.936, 9.414185
1033.419, 18.13989
1033.901, 31.30664
1034.383, 34.83044
1034.865, 21.87512
1035.347, 14.63611
1035.829, 19.76221
1036.311, 30.19934
1036.793, 34.16333
1037.276, 33.60364
1037.758, 32.63794
1038.240, 31.43335
1038.722, 32.85681
1039.204, 42.93335
1039.686, 51.87732
1040.168, 52.14014
1040.650, 43.38428
1041.132, 38.61951
1041.615, 37.84595
1042.097, 39.35962
1042.579, 45.34631
1043.061, 50.41711
1043.543, 47.19812
1044.025, 38.84851
1044.507, 34.71765
1044.989, 40.28076
1045.471, 42.53528
1045.954, 39.41467
1046.436, 33.41321
1046.918, 25.62390
1047.400, 18.00769
1047.882, 17.09058
1048.364, 24.38855
1048.846, 31.40271
1049.328, 35.15491
1049.811, 35.85437
1050.293, 33.14917
1050.775, 27.46289
1051.257, 21.98083
1051.739, 16.68481
1052.221, 12.25806
1052.703, 7.531494
1053.185, 5.834106
1053.667, 15.18396
1054.150, 28.74475
1054.632, 34.89905
1055.114, 22.32605
1055.596, 17.61682
1056.078, 23.50659
1056.560, 32.18250
1057.042, 38.60168
1057.524, 41.37256
1058.006, 34.30676
1058.489, 18.09802
1058.971, 3.623413
1059.453, 8.414917
1059.935, 11.68677
1060.417, 2.460815
1060.899, 25.21277
1061.381, 29.21289
1061.863, 14.45605
1062.346, 3.167358
1062.828, 1.075806
1063.310, 3.699341
1063.792, 8.169189
1064.274, 13.98889
1064.756, 21.67981
1065.238, 34.16687
1065.720, 36.37683
1066.203, 25.23279
1066.685, 13.86829
1067.167, 11.59790
1067.649, 14.29761
1068.131, 11.94360
1068.613, 6.077515
1069.095, 1.959839
1069.577, 1.491089
1070.059, 3.462646
1070.542, 7.201172
1071.024, 13.33691
1071.506, 25.01477
1071.988, 41.49170
1072.470, 51.81848
1072.952, 54.79993
1073.434, 50.36670
1073.916, 26.90857
1074.398, 5.371582
1074.881, 6.938721
1075.363, 30.19189
1075.845, 37.97595
1076.327, 25.85950
1076.809, 17.03589
1077.291, 18.80371
1077.773, 26.08240
1078.255, 33.55750
1078.738, 38.41174
1079.220, 36.13635
1079.702, 20.21289
1080.184, 11.09192
1080.666, 13.11011
1081.148, 18.81152
1081.630, 25.75818
1082.112, 32.39514
1082.594, 27.71106
1083.077, 13.59143
1083.559, 1.860962
1084.041, 1.318481
1084.523, 1.9286999E-02
1085.005, 5.609131
1085.487, 13.93420
1085.969, 23.27942
1086.451, 34.16760
1086.933, 41.88721
1087.416, 46.10706
1087.898, 45.62585
1088.380, 37.93494
1088.862, 26.05713
1089.344, 8.826538
1089.826, 12.92480
1090.308, 18.04773
1090.790, 1.636353
1091.272, 17.86462
1091.755, 21.44202
1092.237, 17.99658
1092.719, 16.40552
1093.201, 15.84058
1093.683, 14.12781
1094.165, 9.057129
1094.647, 7.606934
1095.129, 14.58264
1095.612, 21.97864
1096.094, 24.52087
1096.576, 22.94812
1097.058, 23.73877
1097.540, 26.40552
1098.022, 28.30640
1098.504, 27.11621
1098.986, 25.66943
1099.469, 27.53479
1099.951, 28.98047
1100.433, 22.33740
1100.915, 5.125366
1101.397, 1.511475
1101.879, 5.103149
1102.361, 14.82800
1102.843, 20.08386
1103.325, 22.85999
1103.807, 25.75330
1104.290, 28.55469
1104.772, 26.67834
1105.254, 16.36426
1105.736, 11.21313
1106.218, 16.34229
1106.700, 24.62451
1107.182, 23.77307
1107.664, 18.03625
1108.147, 15.73218
1108.629, 19.77820
1109.111, 22.24341
1109.593, 19.56165
1110.075, 16.83594
1110.557, 16.29309
1111.039, 17.68677
1111.521, 21.18872
1112.004, 26.63403
1112.486, 30.23608
1112.968, 28.88550
1113.450, 25.17224
1113.932, 15.47620
1114.414, 7.774170
1114.896, 12.48511
1115.378, 31.59595
1115.860, 37.58862
1116.343, 29.49609
1116.825, 20.07056
1117.307, 17.04529
1117.789, 17.32581
1118.271, 20.36499
1118.753, 24.62061
1119.235, 27.54358
1119.717, 28.54260
1120.199, 30.10852
1120.682, 32.67725
1121.164, 35.69800
1121.646, 38.94189
1122.128, 42.06140
1122.610, 46.31104
1123.092, 52.08484
1123.574, 48.37549
1124.056, 26.57178
1124.539, 10.43091
1125.021, 8.118042
1125.503, 15.08301
1125.985, 26.44812
1126.467, 38.81689
1126.949, 43.36267
1127.431, 35.25134
1127.913, 26.37195
1128.396, 18.32166
1128.878, 12.81506
1129.360, 11.86780
1129.842, 14.54712
1130.324, 13.81946
1130.806, 10.53772
1131.288, 9.756836
1131.770, 19.58484
1132.252, 26.00500
1132.734, 14.98486
1133.217, 1.870605
1133.699, 7.152222
1134.181, 32.94983
1134.663, 46.66785
1135.145, 46.95422
1135.627, 41.93054
1136.109, 29.95203
1136.591, 22.00330
1137.074, 33.24634
1137.556, 55.81128
1138.038, 60.60242
1138.520, 42.51221
1139.002, 29.37585
1139.484, 26.16650
1139.966, 25.75806
1140.448, 18.96753
1140.931, 11.85315
1141.413, 12.15234
1141.895, 20.83240
1142.377, 26.57239
1142.859, 29.19409
1143.341, 26.50781
1143.823, 15.53540
1144.305, 3.392700
1144.787, 3.469849
1145.270, 10.70703
1145.752, 16.29309
1146.234, 18.20007
1146.716, 18.16785
1147.198, 14.53760
1147.680, 11.90552
1148.162, 14.65747
1148.644, 21.63208
1149.126, 22.22961
1149.609, 19.09583
1150.091, 20.69312
1150.573, 36.55310
1151.055, 47.26428
1151.537, 46.37012
1152.019, 40.25757
1152.501, 32.82324
1152.983, 24.25208
1153.466, 14.51184
1153.948, 4.429443
1154.430, 0.4407960
1154.912, 10.20215
1155.394, 18.55823
1155.876, 11.07251
1156.358, 4.5898002E-02
1156.840, 5.234497
1157.322, 26.85559
1157.805, 35.28955
1158.287, 28.16650
1158.769, 21.16443
1159.251, 29.19373
1159.733, 38.28333
1160.215, 37.99194
1160.697, 30.71069
1161.179, 22.55005
1161.661, 12.78931
1162.144, 14.54761
1162.626, 32.71960
1163.108, 48.03552
1163.590, 37.68359
1164.072, 18.96130
1164.554, 6.016968
1165.036, 0.1906740
1165.518, 6.535767
1166.000, 28.98486
1166.483, 39.12976
1166.965, 23.84558
1167.447, 3.184326
1167.929, 4.285889
1168.411, 13.30322
1168.893, 11.26453
1169.375, 9.470215
1169.857, 19.45044
1170.340, 17.20764
1170.822, 9.983643
1171.304, 0.4093020
1171.786, 10.91235
1172.268, 28.14783
1172.750, 45.00305
1173.232, 49.77917
1173.714, 30.37830
1174.197, 15.55334
1174.679, 5.871460
1175.161, 0.5866700
1175.643, 1.149902
1176.125, 4.884644
1176.607, 6.264526
1177.089, 6.212280
1177.571, 7.444946
1178.053, 10.84753
1178.536, 16.61597
1179.018, 27.70862
1179.500, 35.03723
1179.982, 22.86389
1180.464, 2.246948
1180.946, 2.758057
1181.428, 21.81213
1181.910, 35.16504
1182.392, 25.47107
1182.875, 20.49890
1183.357, 27.51685
1183.839, 38.01074
1184.321, 40.27991
1184.803, 35.88257
1185.285, 27.49170
1185.767, 15.86926
1186.249, 12.21545
1186.732, 31.92566
1187.214, 47.28345
1187.696, 49.48718
1188.178, 43.25867
1188.660, 34.72791
1189.142, 25.97839
1189.624, 25.89075
1190.106, 37.09692
1190.589, 45.61316
1191.071, 45.17358
1191.553, 39.68140
1192.035, 28.28137
1192.517, 14.80518
1192.999, 13.83276
1193.481, 21.88940
1193.963, 22.92078
1194.445, 9.428223
1194.927, 1.072388
1195.410, 12.75354
1195.892, 27.36047
1196.374, 37.42432
1196.856, 41.99890
1197.338, 30.87549
1197.820, 8.454712
1198.302, 2.709106
1198.784, 11.48108
1199.267, 26.45117
1199.749, 31.15857
1200.231, 30.98572
1200.713, 29.25317
1201.195, 26.02844
1201.677, 19.84155
1202.159, 11.88257
1202.641, 10.35193
1203.124, 25.99194
1203.606, 39.79651
1204.088, 40.43591
1204.570, 37.19385
1205.052, 40.54553
1205.534, 50.06665
1206.016, 42.19043
1206.498, 19.00806
1206.980, 2.774536
1207.463, 15.12280
1207.945, 27.24768
1208.427, 21.59460
1208.909, 10.37695
1209.391, 6.977417
1209.873, 11.09900
1210.355, 16.22461
1210.837, 21.82727
1211.319, 25.27087
1211.802, 25.75073
1212.284, 22.46472
1212.766, 8.657593
1213.248, 5.289307
1213.730, 0.5930180
1214.212, 21.07214
1214.694, 29.36182
1215.176, 21.78723
1215.659, 17.29565
1216.141, 39.22119
1216.623, 55.42859
1217.105, 43.31885
1217.587, 17.82983
1218.069, 7.588989
1218.551, 11.35901
1219.033, 16.84033
1219.516, 22.34253
1219.998, 27.71790
1220.480, 38.07629
1220.962, 42.14905
1221.444, 29.04272
1221.926, 8.249634
1222.408, 5.368652
1222.890, 18.21912
1223.372, 28.53552
1223.854, 32.97253
1224.337, 34.09961
1224.819, 30.69128
1225.301, 27.33423
1225.783, 26.36597
1226.265, 27.39819
1226.747, 29.34839
1227.229, 31.52356
1227.711, 34.17432
1228.193, 38.88794
1228.676, 41.19556
1229.158, 35.13940
1229.640, 29.09741
1230.122, 27.82996
1230.604, 30.36096
1231.086, 33.96375
1231.568, 38.14307
1232.050, 40.58582
1232.533, 40.82825
1233.015, 38.70459
1233.497, 31.13708
1233.979, 24.02466
1234.461, 19.76587
1234.943, 18.87366
1235.425, 28.03430
1235.907, 42.99597
1236.390, 46.10645
1236.872, 24.24426
1237.354, 8.484619
1237.836, 17.52820
1238.318, 28.33887
1238.800, 28.32617
1239.282, 20.36707
1239.764, 13.37866
1240.246, 7.463135
1240.729, 2.498291
1241.211, 2.920044
1241.693, 3.945679
1242.175, 2.544067
1242.657, 10.72119
1243.139, 17.98621
1243.621, 23.69495
1244.103, 22.19360
1244.585, 16.84814
1245.068, 18.13794
1245.550, 37.46582
1246.032, 49.58386
1246.514, 51.12671
1246.996, 46.35950
1247.478, 34.88318
1247.960, 20.65894
1248.442, 13.04858
1248.925, 11.64233
1249.407, 15.83386
1249.889, 34.30432
1250.371, 43.03174
1250.853, 37.85498
1251.335, 31.79700
1251.817, 38.20129
1252.299, 49.47644
1252.781, 50.64722
1253.264, 44.63110
1253.746, 39.72229
1254.228, 40.49023
1254.710, 36.78210
1255.192, 26.57288
1255.674, 18.34827
1256.156, 22.59827
1256.638, 30.93616
1257.120, 31.41479
1257.603, 26.39392
1258.085, 22.67590
1258.567, 24.66772
1259.049, 20.83923
1259.531, 9.342285
1260.013, 0.1511230
1260.495, 5.556885
1260.977, 14.14124
1261.460, 10.24573
1261.942, 0.5361330
1262.424, 5.209717
1262.906, 29.99939
1263.388, 42.91565
1263.870, 41.60852
1264.352, 33.06006
1264.834, 13.33044
1265.317, 2.344482
1265.799, 0.7103270
1266.281, 16.85229
1266.763, 34.51929
1267.245, 54.79395
1267.727, 59.98096
1268.209, 48.70959
1268.691, 34.13770
1269.173, 19.50598
1269.656, 10.94324
1270.138, 17.45776
1270.620, 29.72986
1271.102, 32.62402
1271.584, 27.25171
1272.066, 31.22095
1272.548, 46.51001
1273.030, 55.41699
1273.512, 36.57434
1273.995, 22.85889
1274.477, 30.74878
1274.959, 45.90308
1275.441, 46.92017
1275.923, 36.99695
1276.405, 27.17798
1276.887, 18.84692
1277.369, 17.02991
1277.852, 31.00378
1278.334, 41.78064
1278.816, 43.65918
1279.298, 43.40332
1279.780, 54.79956
1280.262, 69.44055
1280.744, 62.81079
1281.226, 36.96802
1281.708, 21.49426
1282.191, 28.26929
1282.673, 40.25745
1283.155, 57.70032
1283.637, 72.35852
1284.119, 74.71289
1284.601, 68.38416
1285.083, 50.70166
1285.565, 25.20068
1286.047, 14.02783
1286.530, 22.53149
1287.012, 30.67798
1287.494, 35.71704
1287.976, 40.07764
1288.458, 51.83569
1288.940, 59.44556
1289.422, 46.47644
1289.904, 18.85132
1290.386, 3.215576
1290.869, 9.5581003E-02
1291.351, 5.478149
1291.833, 19.29858
1292.315, 33.84033
1292.797, 49.24011
1293.279, 57.02063
1293.761, 45.95044
1294.243, 25.32849
1294.726, 9.181519
1295.208, 2.117798
1295.690, 1.017578
1296.172, 12.89246
1296.654, 22.26001
1297.136, 14.73511
1297.618, 11.99536
1298.100, 23.96619
1298.583, 40.19019
1299.065, 35.30334
1299.547, 30.94312
1300.029, 21.22998
1300.511, 8.120239
1300.993, 0.4107670
1301.475, 5.330566
1301.957, 0.0000000E+00
##END=



