##NAMES=Calcioburbankite
##RRUFFID=R140485
##IDEAL CHEMISTRY=Na_3_(Ca,Ce^3+^,Sr,La)_3_(CO_3_)_5_
##LOCALITY=Eboundja, Kribi, South Region, Cameroon
##OWNER=RRUFF
##SOURCE=Rock Currier
##DESCRIPTION=Pink massive
##STATUS=The identification of this mineral is confirmed by single-crystal X-ray diffraction and chemical analysis.
##URL=rruff.info/R140485
##MEASURED CHEMISTRY=(Na_2.89_K_0.02_)(Ca_1.14_Ce_0.61_La_0.39_Sr_0.23_Nd_0.15_Pr_0.06_)(CO_3_)_5_ ; The dark mineral is analcime.
8.813672e+001, 1.486871e+002
8.861884e+001, 1.499960e+002
8.910095e+001, 1.517911e+002
8.958307e+001, 1.545395e+002
9.006519e+001, 1.577163e+002
9.054730e+001, 1.606716e+002
9.102942e+001, 1.635496e+002
9.151154e+001, 1.663554e+002
9.199365e+001, 1.694862e+002
9.247577e+001, 1.726792e+002
9.295789e+001, 1.751071e+002
9.344000e+001, 1.759237e+002
9.392212e+001, 1.756573e+002
9.440424e+001, 1.758270e+002
9.488635e+001, 1.766824e+002
9.536847e+001, 1.779688e+002
9.585059e+001, 1.793398e+002
9.633270e+001, 1.807844e+002
9.681482e+001, 1.822468e+002
9.729694e+001, 1.835847e+002
9.777905e+001, 1.848259e+002
9.826117e+001, 1.863881e+002
9.874329e+001, 1.883083e+002
9.922540e+001, 1.905128e+002
9.970752e+001, 1.930168e+002
1.001896e+002, 1.959223e+002
1.006718e+002, 1.985958e+002
1.011539e+002, 2.004281e+002
1.016360e+002, 2.011629e+002
1.021181e+002, 2.023524e+002
1.026002e+002, 2.043205e+002
1.030823e+002, 2.069331e+002
1.035645e+002, 2.091534e+002
1.040466e+002, 2.107251e+002
1.045287e+002, 2.122945e+002
1.050108e+002, 2.144097e+002
1.054929e+002, 2.170687e+002
1.059750e+002, 2.202604e+002
1.064572e+002, 2.241780e+002
1.069393e+002, 2.289655e+002
1.074214e+002, 2.332700e+002
1.079035e+002, 2.372653e+002
1.083856e+002, 2.407681e+002
1.088677e+002, 2.435129e+002
1.093499e+002, 2.447527e+002
1.098320e+002, 2.460425e+002
1.103141e+002, 2.476806e+002
1.107962e+002, 2.497435e+002
1.112783e+002, 2.520266e+002
1.117604e+002, 2.544515e+002
1.122426e+002, 2.571251e+002
1.127247e+002, 2.601691e+002
1.132068e+002, 2.641185e+002
1.136889e+002, 2.680490e+002
1.141710e+002, 2.714739e+002
1.146531e+002, 2.738850e+002
1.151353e+002, 2.766531e+002
1.156174e+002, 2.806630e+002
1.160995e+002, 2.853816e+002
1.165816e+002, 2.895045e+002
1.170637e+002, 2.919342e+002
1.175458e+002, 2.939319e+002
1.180280e+002, 2.963865e+002
1.185101e+002, 2.997207e+002
1.189922e+002, 3.032661e+002
1.194743e+002, 3.066964e+002
1.199564e+002, 3.100355e+002
1.204385e+002, 3.133272e+002
1.209207e+002, 3.164327e+002
1.214028e+002, 3.195528e+002
1.218849e+002, 3.229076e+002
1.223670e+002, 3.268116e+002
1.228491e+002, 3.308510e+002
1.233312e+002, 3.346995e+002
1.238134e+002, 3.383607e+002
1.242955e+002, 3.417329e+002
1.247776e+002, 3.444757e+002
1.252597e+002, 3.468509e+002
1.257418e+002, 3.493952e+002
1.262239e+002, 3.524092e+002
1.267061e+002, 3.557223e+002
1.271882e+002, 3.588870e+002
1.276703e+002, 3.618956e+002
1.281524e+002, 3.650966e+002
1.286345e+002, 3.689059e+002
1.291166e+002, 3.732577e+002
1.295988e+002, 3.778426e+002
1.300809e+002, 3.827459e+002
1.305630e+002, 3.878046e+002
1.310451e+002, 3.925104e+002
1.315272e+002, 3.968237e+002
1.320093e+002, 4.007230e+002
1.324915e+002, 4.040197e+002
1.329736e+002, 4.067130e+002
1.334557e+002, 4.094999e+002
1.339378e+002, 4.128250e+002
1.344199e+002, 4.166515e+002
1.349020e+002, 4.201645e+002
1.353842e+002, 4.231383e+002
1.358663e+002, 4.259496e+002
1.363484e+002, 4.297021e+002
1.368305e+002, 4.345664e+002
1.373126e+002, 4.395043e+002
1.377947e+002, 4.437503e+002
1.382769e+002, 4.471870e+002
1.387590e+002, 4.508085e+002
1.392411e+002, 4.548648e+002
1.397232e+002, 4.591217e+002
1.402053e+002, 4.623969e+002
1.406874e+002, 4.645177e+002
1.411696e+002, 4.661202e+002
1.416517e+002, 4.675850e+002
1.421338e+002, 4.688948e+002
1.426159e+002, 4.702108e+002
1.430980e+002, 4.715474e+002
1.435801e+002, 4.729322e+002
1.440623e+002, 4.745719e+002
1.445444e+002, 4.766794e+002
1.450265e+002, 4.788561e+002
1.455086e+002, 4.807743e+002
1.459907e+002, 4.825000e+002
1.464728e+002, 4.839087e+002
1.469550e+002, 4.848409e+002
1.474371e+002, 4.852418e+002
1.479192e+002, 4.860560e+002
1.484013e+002, 4.875736e+002
1.488834e+002, 4.893226e+002
1.493655e+002, 4.908845e+002
1.498477e+002, 4.919594e+002
1.503298e+002, 4.931350e+002
1.508119e+002, 4.946613e+002
1.512940e+002, 4.967019e+002
1.517761e+002, 4.981124e+002
1.522583e+002, 4.981180e+002
1.527404e+002, 4.977216e+002
1.532225e+002, 4.979811e+002
1.537046e+002, 4.998442e+002
1.541867e+002, 5.015855e+002
1.546688e+002, 5.027596e+002
1.551510e+002, 5.032844e+002
1.556331e+002, 5.035627e+002
1.561152e+002, 5.036220e+002
1.565973e+002, 5.034939e+002
1.570794e+002, 5.032178e+002
1.575615e+002, 5.026736e+002
1.580437e+002, 5.021007e+002
1.585258e+002, 5.016107e+002
1.590079e+002, 5.012620e+002
1.594900e+002, 5.008687e+002
1.599721e+002, 5.002390e+002
1.604542e+002, 4.995379e+002
1.609364e+002, 4.990534e+002
1.614185e+002, 4.988486e+002
1.619006e+002, 4.988985e+002
1.623827e+002, 4.993175e+002
1.628648e+002, 5.004577e+002
1.633469e+002, 5.011442e+002
1.638291e+002, 5.004922e+002
1.643112e+002, 4.989598e+002
1.647933e+002, 4.976089e+002
1.652754e+002, 4.973049e+002
1.657575e+002, 4.971534e+002
1.662396e+002, 4.964074e+002
1.667218e+002, 4.946035e+002
1.672039e+002, 4.928008e+002
1.676860e+002, 4.918782e+002
1.681681e+002, 4.915640e+002
1.686502e+002, 4.909579e+002
1.691323e+002, 4.891815e+002
1.696145e+002, 4.870407e+002
1.700966e+002, 4.853636e+002
1.705787e+002, 4.844908e+002
1.710608e+002, 4.839068e+002
1.715429e+002, 4.832565e+002
1.720250e+002, 4.825382e+002
1.725072e+002, 4.817967e+002
1.729893e+002, 4.809952e+002
1.734714e+002, 4.801788e+002
1.739535e+002, 4.794306e+002
1.744356e+002, 4.788627e+002
1.749177e+002, 4.782462e+002
1.753999e+002, 4.773254e+002
1.758820e+002, 4.761032e+002
1.763641e+002, 4.747250e+002
1.768462e+002, 4.730628e+002
1.773283e+002, 4.713199e+002
1.778104e+002, 4.698601e+002
1.782926e+002, 4.687506e+002
1.787747e+002, 4.680368e+002
1.792568e+002, 4.680876e+002
1.797389e+002, 4.688600e+002
1.802210e+002, 4.694443e+002
1.807031e+002, 4.687975e+002
1.811853e+002, 4.673260e+002
1.816674e+002, 4.660835e+002
1.821495e+002, 4.653672e+002
1.826316e+002, 4.650941e+002
1.831137e+002, 4.654015e+002
1.835958e+002, 4.663054e+002
1.840780e+002, 4.669289e+002
1.845601e+002, 4.662003e+002
1.850422e+002, 4.644057e+002
1.855243e+002, 4.626855e+002
1.860064e+002, 4.612698e+002
1.864885e+002, 4.602210e+002
1.869707e+002, 4.598358e+002
1.874528e+002, 4.601452e+002
1.879349e+002, 4.607742e+002
1.884170e+002, 4.616544e+002
1.888991e+002, 4.626884e+002
1.893812e+002, 4.630345e+002
1.898634e+002, 4.620848e+002
1.903455e+002, 4.602593e+002
1.908276e+002, 4.590220e+002
1.913097e+002, 4.583526e+002
1.917918e+002, 4.583347e+002
1.922739e+002, 4.593887e+002
1.927561e+002, 4.614975e+002
1.932382e+002, 4.632655e+002
1.937203e+002, 4.641029e+002
1.942024e+002, 4.641751e+002
1.946845e+002, 4.645090e+002
1.951666e+002, 4.651508e+002
1.956488e+002, 4.658394e+002
1.961309e+002, 4.661967e+002
1.966130e+002, 4.661935e+002
1.970951e+002, 4.662935e+002
1.975772e+002, 4.666397e+002
1.980593e+002, 4.672236e+002
1.985415e+002, 4.680719e+002
1.990236e+002, 4.693276e+002
1.995057e+002, 4.704989e+002
1.999878e+002, 4.707827e+002
2.004699e+002, 4.700541e+002
2.009520e+002, 4.695044e+002
2.014342e+002, 4.696396e+002
2.019163e+002, 4.704479e+002
2.023984e+002, 4.709436e+002
2.028805e+002, 4.709774e+002
2.033626e+002, 4.710327e+002
2.038447e+002, 4.719384e+002
2.043269e+002, 4.739446e+002
2.048090e+002, 4.755797e+002
2.052911e+002, 4.760484e+002
2.057732e+002, 4.752953e+002
2.062553e+002, 4.759183e+002
2.067374e+002, 4.785514e+002
2.072196e+002, 4.815363e+002
2.077017e+002, 4.822327e+002
2.081838e+002, 4.798294e+002
2.086659e+002, 4.779294e+002
2.091480e+002, 4.778716e+002
2.096301e+002, 4.798034e+002
2.101123e+002, 4.814954e+002
2.105944e+002, 4.829916e+002
2.110765e+002, 4.841916e+002
2.115586e+002, 4.848614e+002
2.120407e+002, 4.847851e+002
2.125228e+002, 4.847778e+002
2.130050e+002, 4.851387e+002
2.134871e+002, 4.859188e+002
2.139692e+002, 4.865417e+002
2.144513e+002, 4.870311e+002
2.149334e+002, 4.873359e+002
2.154155e+002, 4.873577e+002
2.158977e+002, 4.869970e+002
2.163798e+002, 4.866074e+002
2.168619e+002, 4.863576e+002
2.173440e+002, 4.863130e+002
2.178261e+002, 4.858621e+002
2.183082e+002, 4.847717e+002
2.187904e+002, 4.835271e+002
2.192725e+002, 4.828761e+002
2.197546e+002, 4.831542e+002
2.202367e+002, 4.833149e+002
2.207188e+002, 4.829667e+002
2.212009e+002, 4.819762e+002
2.216831e+002, 4.814538e+002
2.221652e+002, 4.815587e+002
2.226473e+002, 4.819942e+002
2.231294e+002, 4.823171e+002
2.236115e+002, 4.823361e+002
2.240936e+002, 4.826578e+002
2.245758e+002, 4.836359e+002
2.250579e+002, 4.854672e+002
2.255400e+002, 4.864595e+002
2.260221e+002, 4.862298e+002
2.265042e+002, 4.854999e+002
2.269863e+002, 4.852426e+002
2.274685e+002, 4.857763e+002
2.279506e+002, 4.861694e+002
2.284327e+002, 4.861956e+002
2.289148e+002, 4.858341e+002
2.293969e+002, 4.851598e+002
2.298790e+002, 4.839518e+002
2.303612e+002, 4.826024e+002
2.308433e+002, 4.816400e+002
2.313254e+002, 4.813779e+002
2.318075e+002, 4.808889e+002
2.322896e+002, 4.798457e+002
2.327717e+002, 4.781587e+002
2.332539e+002, 4.768055e+002
2.337360e+002, 4.759884e+002
2.342181e+002, 4.753595e+002
2.347002e+002, 4.744645e+002
2.351823e+002, 4.729307e+002
2.356644e+002, 4.718589e+002
2.361466e+002, 4.717338e+002
2.366287e+002, 4.727088e+002
2.371108e+002, 4.728720e+002
2.375929e+002, 4.720708e+002
2.380750e+002, 4.706219e+002
2.385571e+002, 4.686778e+002
2.390393e+002, 4.654132e+002
2.395214e+002, 4.632411e+002
2.400035e+002, 4.630448e+002
2.404856e+002, 4.649838e+002
2.409677e+002, 4.658128e+002
2.414498e+002, 4.650524e+002
2.419320e+002, 4.636328e+002
2.424141e+002, 4.623778e+002
2.428962e+002, 4.612218e+002
2.433783e+002, 4.603068e+002
2.438604e+002, 4.595315e+002
2.443425e+002, 4.588866e+002
2.448247e+002, 4.591219e+002
2.453068e+002, 4.608771e+002
2.457889e+002, 4.628083e+002
2.462710e+002, 4.636833e+002
2.467531e+002, 4.627325e+002
2.472352e+002, 4.622758e+002
2.477174e+002, 4.630440e+002
2.481995e+002, 4.649110e+002
2.486816e+002, 4.653961e+002
2.491637e+002, 4.638398e+002
2.496458e+002, 4.617018e+002
2.501279e+002, 4.601909e+002
2.506101e+002, 4.597212e+002
2.510922e+002, 4.589731e+002
2.515743e+002, 4.575724e+002
2.520564e+002, 4.556746e+002
2.525385e+002, 4.546011e+002
2.530206e+002, 4.547275e+002
2.535028e+002, 4.551889e+002
2.539849e+002, 4.553529e+002
2.544670e+002, 4.550043e+002
2.549491e+002, 4.548463e+002
2.554312e+002, 4.548629e+002
2.559133e+002, 4.550951e+002
2.563955e+002, 4.559739e+002
2.568776e+002, 4.581707e+002
2.573597e+002, 4.599511e+002
2.578418e+002, 4.600117e+002
2.583239e+002, 4.573994e+002
2.588061e+002, 4.556186e+002
2.592882e+002, 4.551140e+002
2.597703e+002, 4.555755e+002
2.602524e+002, 4.559349e+002
2.607345e+002, 4.563724e+002
2.612166e+002, 4.564043e+002
2.616988e+002, 4.556313e+002
2.621809e+002, 4.537163e+002
2.626630e+002, 4.522229e+002
2.631451e+002, 4.513864e+002
2.636272e+002, 4.509660e+002
2.641093e+002, 4.502368e+002
2.645915e+002, 4.489310e+002
2.650736e+002, 4.479375e+002
2.655557e+002, 4.479105e+002
2.660378e+002, 4.493346e+002
2.665199e+002, 4.496772e+002
2.670020e+002, 4.484947e+002
2.674842e+002, 4.465384e+002
2.679663e+002, 4.454826e+002
2.684484e+002, 4.456425e+002
2.689305e+002, 4.457789e+002
2.694126e+002, 4.452185e+002
2.698947e+002, 4.437176e+002
2.703769e+002, 4.429130e+002
2.708590e+002, 4.429144e+002
2.713411e+002, 4.434359e+002
2.718232e+002, 4.441044e+002
2.723053e+002, 4.449976e+002
2.727874e+002, 4.456908e+002
2.732696e+002, 4.460734e+002
2.737517e+002, 4.461408e+002
2.742338e+002, 4.455600e+002
2.747159e+002, 4.440096e+002
2.751980e+002, 4.424040e+002
2.756801e+002, 4.421968e+002
2.761623e+002, 4.436349e+002
2.766444e+002, 4.450050e+002
2.771265e+002, 4.457338e+002
2.776086e+002, 4.458797e+002
2.780907e+002, 4.462273e+002
2.785728e+002, 4.468875e+002
2.790550e+002, 4.474742e+002
2.795371e+002, 4.472675e+002
2.800192e+002, 4.461555e+002
2.805013e+002, 4.459194e+002
2.809834e+002, 4.474752e+002
2.814655e+002, 4.503083e+002
2.819477e+002, 4.516292e+002
2.824298e+002, 4.512436e+002
2.829119e+002, 4.502283e+002
2.833940e+002, 4.494597e+002
2.838761e+002, 4.489321e+002
2.843582e+002, 4.485116e+002
2.848404e+002, 4.481839e+002
2.853225e+002, 4.479248e+002
2.858046e+002, 4.475782e+002
2.862867e+002, 4.471116e+002
2.867688e+002, 4.468914e+002
2.872509e+002, 4.474105e+002
2.877331e+002, 4.485628e+002
2.882152e+002, 4.494398e+002
2.886973e+002, 4.499251e+002
2.891794e+002, 4.500122e+002
2.896615e+002, 4.495464e+002
2.901436e+002, 4.485286e+002
2.906258e+002, 4.474765e+002
2.911079e+002, 4.468522e+002
2.915900e+002, 4.465158e+002
2.920721e+002, 4.458254e+002
2.925542e+002, 4.446685e+002
2.930363e+002, 4.432567e+002
2.935185e+002, 4.419006e+002
2.940006e+002, 4.405788e+002
2.944827e+002, 4.392172e+002
2.949648e+002, 4.378211e+002
2.954469e+002, 4.363255e+002
2.959290e+002, 4.345257e+002
2.964112e+002, 4.323515e+002
2.968933e+002, 4.300894e+002
2.973754e+002, 4.280221e+002
2.978575e+002, 4.261655e+002
2.983396e+002, 4.245363e+002
2.988217e+002, 4.229473e+002
2.993039e+002, 4.216516e+002
2.997860e+002, 4.214394e+002
3.002681e+002, 4.224104e+002
3.007502e+002, 4.232759e+002
3.012323e+002, 4.225835e+002
3.017144e+002, 4.207938e+002
3.021966e+002, 4.190530e+002
3.026787e+002, 4.179320e+002
3.031608e+002, 4.170062e+002
3.036429e+002, 4.155612e+002
3.041250e+002, 4.136475e+002
3.046071e+002, 4.119946e+002
3.050893e+002, 4.112657e+002
3.055714e+002, 4.111668e+002
3.060535e+002, 4.112633e+002
3.065356e+002, 4.115204e+002
3.070177e+002, 4.118070e+002
3.074998e+002, 4.121300e+002
3.079820e+002, 4.124356e+002
3.084641e+002, 4.124220e+002
3.089462e+002, 4.116225e+002
3.094283e+002, 4.105154e+002
3.099104e+002, 4.096319e+002
3.103925e+002, 4.091680e+002
3.108747e+002, 4.088452e+002
3.113568e+002, 4.085799e+002
3.118389e+002, 4.083303e+002
3.123210e+002, 4.079788e+002
3.128031e+002, 4.071939e+002
3.132852e+002, 4.064486e+002
3.137674e+002, 4.062046e+002
3.142495e+002, 4.067550e+002
3.147316e+002, 4.071385e+002
3.152137e+002, 4.067181e+002
3.156958e+002, 4.058285e+002
3.161779e+002, 4.050410e+002
3.166601e+002, 4.048639e+002
3.171422e+002, 4.046154e+002
3.176243e+002, 4.037631e+002
3.181064e+002, 4.021181e+002
3.185885e+002, 4.009096e+002
3.190706e+002, 4.010910e+002
3.195528e+002, 4.017549e+002
3.200349e+002, 4.018704e+002
3.205170e+002, 4.009098e+002
3.209991e+002, 3.996088e+002
3.214812e+002, 3.980680e+002
3.219633e+002, 3.962874e+002
3.224455e+002, 3.946622e+002
3.229276e+002, 3.933224e+002
3.234097e+002, 3.921243e+002
3.238918e+002, 3.909599e+002
3.243739e+002, 3.903523e+002
3.248560e+002, 3.891794e+002
3.253382e+002, 3.869342e+002
3.258203e+002, 3.837952e+002
3.263024e+002, 3.810572e+002
3.267845e+002, 3.786681e+002
3.272666e+002, 3.767821e+002
3.277487e+002, 3.754999e+002
3.282309e+002, 3.758940e+002
3.287130e+002, 3.754229e+002
3.291951e+002, 3.734597e+002
3.296772e+002, 3.706493e+002
3.301593e+002, 3.686429e+002
3.306414e+002, 3.683984e+002
3.311236e+002, 3.678849e+002
3.316057e+002, 3.663244e+002
3.320878e+002, 3.632677e+002
3.325699e+002, 3.604985e+002
3.330520e+002, 3.579715e+002
3.335341e+002, 3.557900e+002
3.340163e+002, 3.541860e+002
3.344984e+002, 3.535141e+002
3.349805e+002, 3.527601e+002
3.354626e+002, 3.515907e+002
3.359447e+002, 3.499750e+002
3.364268e+002, 3.487147e+002
3.369090e+002, 3.479395e+002
3.373911e+002, 3.473056e+002
3.378732e+002, 3.465006e+002
3.383553e+002, 3.455098e+002
3.388374e+002, 3.443859e+002
3.393195e+002, 3.430517e+002
3.398017e+002, 3.415934e+002
3.402838e+002, 3.403168e+002
3.407659e+002, 3.391761e+002
3.412480e+002, 3.383434e+002
3.417301e+002, 3.381095e+002
3.422122e+002, 3.385077e+002
3.426944e+002, 3.384873e+002
3.431765e+002, 3.378803e+002
3.436586e+002, 3.368875e+002
3.441407e+002, 3.357902e+002
3.446228e+002, 3.345840e+002
3.451049e+002, 3.336613e+002
3.455871e+002, 3.334492e+002
3.460692e+002, 3.337916e+002
3.465513e+002, 3.338007e+002
3.470334e+002, 3.334237e+002
3.475155e+002, 3.328578e+002
3.479977e+002, 3.323441e+002
3.484798e+002, 3.318646e+002
3.489619e+002, 3.313301e+002
3.494440e+002, 3.306192e+002
3.499261e+002, 3.298566e+002
3.504082e+002, 3.291814e+002
3.508904e+002, 3.285905e+002
3.513725e+002, 3.283795e+002
3.518546e+002, 3.292277e+002
3.523367e+002, 3.306099e+002
3.528188e+002, 3.314057e+002
3.533009e+002, 3.310667e+002
3.537831e+002, 3.302829e+002
3.542652e+002, 3.296634e+002
3.547473e+002, 3.292130e+002
3.552294e+002, 3.289643e+002
3.557115e+002, 3.294218e+002
3.561936e+002, 3.298805e+002
3.566758e+002, 3.294223e+002
3.571579e+002, 3.275457e+002
3.576400e+002, 3.257252e+002
3.581221e+002, 3.249813e+002
3.586042e+002, 3.250477e+002
3.590863e+002, 3.253679e+002
3.595685e+002, 3.261240e+002
3.600506e+002, 3.267533e+002
3.605327e+002, 3.268146e+002
3.610148e+002, 3.262142e+002
3.614969e+002, 3.256364e+002
3.619790e+002, 3.253443e+002
3.624612e+002, 3.252289e+002
3.629433e+002, 3.251679e+002
3.634254e+002, 3.250328e+002
3.639075e+002, 3.250288e+002
3.643896e+002, 3.252598e+002
3.648717e+002, 3.257017e+002
3.653539e+002, 3.261343e+002
3.658360e+002, 3.266513e+002
3.663181e+002, 3.270355e+002
3.668002e+002, 3.271598e+002
3.672823e+002, 3.266061e+002
3.677644e+002, 3.262951e+002
3.682466e+002, 3.264888e+002
3.687287e+002, 3.269793e+002
3.692108e+002, 3.271830e+002
3.696929e+002, 3.268893e+002
3.701750e+002, 3.265332e+002
3.706571e+002, 3.262536e+002
3.711393e+002, 3.260610e+002
3.716214e+002, 3.259005e+002
3.721035e+002, 3.256488e+002
3.725856e+002, 3.255278e+002
3.730677e+002, 3.259542e+002
3.735498e+002, 3.275145e+002
3.740320e+002, 3.283229e+002
3.745141e+002, 3.275692e+002
3.749962e+002, 3.254313e+002
3.754783e+002, 3.247959e+002
3.759604e+002, 3.263212e+002
3.764425e+002, 3.279240e+002
3.769247e+002, 3.276133e+002
3.774068e+002, 3.250438e+002
3.778889e+002, 3.233092e+002
3.783710e+002, 3.229667e+002
3.788531e+002, 3.235347e+002
3.793352e+002, 3.238217e+002
3.798174e+002, 3.237784e+002
3.802995e+002, 3.239881e+002
3.807816e+002, 3.250274e+002
3.812637e+002, 3.267204e+002
3.817458e+002, 3.278505e+002
3.822279e+002, 3.283483e+002
3.827101e+002, 3.283643e+002
3.831922e+002, 3.278089e+002
3.836743e+002, 3.268336e+002
3.841564e+002, 3.262087e+002
3.846385e+002, 3.264894e+002
3.851206e+002, 3.271734e+002
3.856028e+002, 3.272506e+002
3.860849e+002, 3.267573e+002
3.865670e+002, 3.263741e+002
3.870491e+002, 3.268626e+002
3.875312e+002, 3.277715e+002
3.880133e+002, 3.283488e+002
3.884955e+002, 3.283156e+002
3.889776e+002, 3.280869e+002
3.894597e+002, 3.278587e+002
3.899418e+002, 3.277076e+002
3.904239e+002, 3.278456e+002
3.909060e+002, 3.288716e+002
3.913882e+002, 3.299215e+002
3.918703e+002, 3.302749e+002
3.923524e+002, 3.297623e+002
3.928345e+002, 3.290515e+002
3.933166e+002, 3.279240e+002
3.937987e+002, 3.269417e+002
3.942809e+002, 3.268233e+002
3.947630e+002, 3.288513e+002
3.952451e+002, 3.307159e+002
3.957272e+002, 3.315651e+002
3.962093e+002, 3.314214e+002
3.966914e+002, 3.312264e+002
3.971736e+002, 3.311356e+002
3.976557e+002, 3.310718e+002
3.981378e+002, 3.309852e+002
3.986199e+002, 3.306072e+002
3.991020e+002, 3.305435e+002
3.995841e+002, 3.311105e+002
4.000663e+002, 3.319870e+002
4.005484e+002, 3.323962e+002
4.010305e+002, 3.320739e+002
4.015126e+002, 3.316115e+002
4.019947e+002, 3.311700e+002
4.024768e+002, 3.307427e+002
4.029590e+002, 3.303598e+002
4.034411e+002, 3.298892e+002
4.039232e+002, 3.296156e+002
4.044053e+002, 3.299030e+002
4.048874e+002, 3.308855e+002
4.053695e+002, 3.320186e+002
4.058517e+002, 3.333359e+002
4.063338e+002, 3.347069e+002
4.068159e+002, 3.355459e+002
4.072980e+002, 3.357848e+002
4.077801e+002, 3.358369e+002
4.082622e+002, 3.359544e+002
4.087444e+002, 3.361332e+002
4.092265e+002, 3.362904e+002
4.097086e+002, 3.363957e+002
4.101907e+002, 3.365338e+002
4.106728e+002, 3.369975e+002
4.111549e+002, 3.376978e+002
4.116371e+002, 3.380583e+002
4.121192e+002, 3.374745e+002
4.126013e+002, 3.364438e+002
4.130834e+002, 3.359173e+002
4.135655e+002, 3.358955e+002
4.140476e+002, 3.362430e+002
4.145298e+002, 3.373751e+002
4.150119e+002, 3.386922e+002
4.154940e+002, 3.391497e+002
4.159761e+002, 3.380185e+002
4.164582e+002, 3.366104e+002
4.169403e+002, 3.360279e+002
4.174225e+002, 3.360724e+002
4.179046e+002, 3.361811e+002
4.183867e+002, 3.360588e+002
4.188688e+002, 3.359101e+002
4.193509e+002, 3.359015e+002
4.198330e+002, 3.360888e+002
4.203152e+002, 3.362478e+002
4.207973e+002, 3.364120e+002
4.212794e+002, 3.364644e+002
4.217615e+002, 3.362709e+002
4.222436e+002, 3.353760e+002
4.227257e+002, 3.346803e+002
4.232079e+002, 3.343882e+002
4.236900e+002, 3.344955e+002
4.241721e+002, 3.348454e+002
4.246542e+002, 3.356813e+002
4.251363e+002, 3.365516e+002
4.256184e+002, 3.372687e+002
4.261006e+002, 3.379511e+002
4.265827e+002, 3.381899e+002
4.270648e+002, 3.376320e+002
4.275469e+002, 3.367986e+002
4.280290e+002, 3.366896e+002
4.285111e+002, 3.376425e+002
4.289933e+002, 3.385727e+002
4.294754e+002, 3.392528e+002
4.299575e+002, 3.396740e+002
4.304396e+002, 3.393297e+002
4.309217e+002, 3.378988e+002
4.314038e+002, 3.366356e+002
4.318860e+002, 3.369641e+002
4.323681e+002, 3.389062e+002
4.328502e+002, 3.402703e+002
4.333323e+002, 3.405974e+002
4.338144e+002, 3.403886e+002
4.342965e+002, 3.406935e+002
4.347787e+002, 3.414591e+002
4.352608e+002, 3.420126e+002
4.357429e+002, 3.417743e+002
4.362250e+002, 3.410878e+002
4.367071e+002, 3.407580e+002
4.371892e+002, 3.408324e+002
4.376714e+002, 3.409858e+002
4.381535e+002, 3.408210e+002
4.386356e+002, 3.405420e+002
4.391177e+002, 3.405079e+002
4.395998e+002, 3.408906e+002
4.400819e+002, 3.414991e+002
4.405641e+002, 3.423384e+002
4.410462e+002, 3.433181e+002
4.415283e+002, 3.441128e+002
4.420104e+002, 3.446768e+002
4.424925e+002, 3.449116e+002
4.429746e+002, 3.445593e+002
4.434568e+002, 3.433084e+002
4.439389e+002, 3.425735e+002
4.444210e+002, 3.432670e+002
4.449031e+002, 3.445530e+002
4.453852e+002, 3.454356e+002
4.458673e+002, 3.453188e+002
4.463495e+002, 3.451866e+002
4.468316e+002, 3.447285e+002
4.473137e+002, 3.440823e+002
4.477958e+002, 3.452558e+002
4.482779e+002, 3.510365e+002
4.487600e+002, 3.557722e+002
4.492422e+002, 3.563002e+002
4.497243e+002, 3.499770e+002
4.502064e+002, 3.457473e+002
4.506885e+002, 3.440739e+002
4.511706e+002, 3.439861e+002
4.516527e+002, 3.440692e+002
4.521349e+002, 3.444177e+002
4.526170e+002, 3.445668e+002
4.530991e+002, 3.442552e+002
4.535812e+002, 3.436266e+002
4.540633e+002, 3.435666e+002
4.545454e+002, 3.441254e+002
4.550276e+002, 3.448560e+002
4.555097e+002, 3.452767e+002
4.559918e+002, 3.455152e+002
4.564739e+002, 3.463361e+002
4.569560e+002, 3.480728e+002
4.574381e+002, 3.497540e+002
4.579203e+002, 3.497500e+002
4.584024e+002, 3.485270e+002
4.588845e+002, 3.475814e+002
4.593666e+002, 3.476672e+002
4.598488e+002, 3.483864e+002
4.603309e+002, 3.496358e+002
4.608130e+002, 3.513329e+002
4.612951e+002, 3.525244e+002
4.617772e+002, 3.520810e+002
4.622593e+002, 3.510559e+002
4.627415e+002, 3.504679e+002
4.632236e+002, 3.507182e+002
4.637057e+002, 3.511465e+002
4.641878e+002, 3.515273e+002
4.646699e+002, 3.519073e+002
4.651520e+002, 3.523829e+002
4.656342e+002, 3.531819e+002
4.661163e+002, 3.538856e+002
4.665984e+002, 3.544384e+002
4.670805e+002, 3.548611e+002
4.675626e+002, 3.548319e+002
4.680447e+002, 3.537402e+002
4.685269e+002, 3.526894e+002
4.690090e+002, 3.524775e+002
4.694911e+002, 3.536663e+002
4.699732e+002, 3.545195e+002
4.704553e+002, 3.547856e+002
4.709374e+002, 3.547437e+002
4.714196e+002, 3.551505e+002
4.719017e+002, 3.562345e+002
4.723838e+002, 3.568969e+002
4.728659e+002, 3.564923e+002
4.733480e+002, 3.551620e+002
4.738301e+002, 3.545079e+002
4.743123e+002, 3.545952e+002
4.747944e+002, 3.549081e+002
4.752765e+002, 3.549663e+002
4.757586e+002, 3.548390e+002
4.762407e+002, 3.548175e+002
4.767228e+002, 3.549739e+002
4.772050e+002, 3.552291e+002
4.776871e+002, 3.553501e+002
4.781692e+002, 3.554496e+002
4.786513e+002, 3.558894e+002
4.791334e+002, 3.571246e+002
4.796155e+002, 3.586202e+002
4.800977e+002, 3.600474e+002
4.805798e+002, 3.613730e+002
4.810619e+002, 3.621237e+002
4.815440e+002, 3.615711e+002
4.820261e+002, 3.605421e+002
4.825082e+002, 3.597620e+002
4.829904e+002, 3.593810e+002
4.834725e+002, 3.592967e+002
4.839546e+002, 3.595695e+002
4.844367e+002, 3.601192e+002
4.849188e+002, 3.607666e+002
4.854009e+002, 3.620434e+002
4.858831e+002, 3.628530e+002
4.863652e+002, 3.626194e+002
4.868473e+002, 3.612165e+002
4.873294e+002, 3.608069e+002
4.878115e+002, 3.620448e+002
4.882936e+002, 3.635111e+002
4.887758e+002, 3.641582e+002
4.892579e+002, 3.637271e+002
4.897400e+002, 3.633562e+002
4.902221e+002, 3.630802e+002
4.907042e+002, 3.629565e+002
4.911863e+002, 3.630746e+002
4.916685e+002, 3.634283e+002
4.921506e+002, 3.641131e+002
4.926327e+002, 3.653810e+002
4.931148e+002, 3.669808e+002
4.935969e+002, 3.680077e+002
4.940790e+002, 3.684758e+002
4.945612e+002, 3.685782e+002
4.950433e+002, 3.682809e+002
4.955254e+002, 3.677669e+002
4.960075e+002, 3.673742e+002
4.964896e+002, 3.671731e+002
4.969717e+002, 3.670816e+002
4.974539e+002, 3.668043e+002
4.979360e+002, 3.666071e+002
4.984181e+002, 3.669872e+002
4.989002e+002, 3.689684e+002
4.993823e+002, 3.708692e+002
4.998644e+002, 3.715145e+002
5.003466e+002, 3.710450e+002
5.008287e+002, 3.710205e+002
5.013108e+002, 3.724313e+002
5.017929e+002, 3.740551e+002
5.022750e+002, 3.752300e+002
5.027571e+002, 3.760172e+002
5.032393e+002, 3.761097e+002
5.037214e+002, 3.749151e+002
5.042035e+002, 3.733406e+002
5.046856e+002, 3.726018e+002
5.051677e+002, 3.731491e+002
5.056498e+002, 3.736269e+002
5.061320e+002, 3.736751e+002
5.066141e+002, 3.734383e+002
5.070962e+002, 3.738298e+002
5.075783e+002, 3.750367e+002
5.080604e+002, 3.760724e+002
5.085425e+002, 3.761177e+002
5.090247e+002, 3.753071e+002
5.095068e+002, 3.751295e+002
5.099889e+002, 3.757477e+002
5.104710e+002, 3.764077e+002
5.109531e+002, 3.759309e+002
5.114352e+002, 3.747596e+002
5.119174e+002, 3.742705e+002
5.123995e+002, 3.752826e+002
5.128816e+002, 3.766163e+002
5.133637e+002, 3.768411e+002
5.138458e+002, 3.762930e+002
5.143279e+002, 3.760529e+002
5.148101e+002, 3.772389e+002
5.152922e+002, 3.785512e+002
5.157743e+002, 3.789729e+002
5.162564e+002, 3.783380e+002
5.167385e+002, 3.777899e+002
5.172206e+002, 3.775677e+002
5.177028e+002, 3.776917e+002
5.181849e+002, 3.781800e+002
5.186670e+002, 3.794462e+002
5.191491e+002, 3.805677e+002
5.196312e+002, 3.816485e+002
5.201133e+002, 3.825143e+002
5.205955e+002, 3.826857e+002
5.210776e+002, 3.814363e+002
5.215597e+002, 3.808671e+002
5.220418e+002, 3.819414e+002
5.225239e+002, 3.845427e+002
5.230060e+002, 3.857510e+002
5.234882e+002, 3.852314e+002
5.239703e+002, 3.845186e+002
5.244524e+002, 3.851015e+002
5.249345e+002, 3.867927e+002
5.254166e+002, 3.874614e+002
5.258987e+002, 3.866486e+002
5.263809e+002, 3.856484e+002
5.268630e+002, 3.867030e+002
5.273451e+002, 3.890547e+002
5.278272e+002, 3.902616e+002
5.283093e+002, 3.882460e+002
5.287914e+002, 3.856164e+002
5.292736e+002, 3.852994e+002
5.297557e+002, 3.868508e+002
5.302378e+002, 3.882785e+002
5.307199e+002, 3.882234e+002
5.312020e+002, 3.879113e+002
5.316841e+002, 3.883308e+002
5.321663e+002, 3.898568e+002
5.326484e+002, 3.909229e+002
5.331305e+002, 3.907739e+002
5.336126e+002, 3.901670e+002
5.340947e+002, 3.898082e+002
5.345768e+002, 3.893833e+002
5.350590e+002, 3.897138e+002
5.355411e+002, 3.910642e+002
5.360232e+002, 3.931672e+002
5.365053e+002, 3.954723e+002
5.369874e+002, 3.984328e+002
5.374695e+002, 4.003305e+002
5.379517e+002, 4.001625e+002
5.384338e+002, 3.981118e+002
5.389159e+002, 3.967904e+002
5.393980e+002, 3.962538e+002
5.398801e+002, 3.961046e+002
5.403622e+002, 3.962320e+002
5.408444e+002, 3.965127e+002
5.413265e+002, 3.963382e+002
5.418086e+002, 3.955027e+002
5.422907e+002, 3.946996e+002
5.427728e+002, 3.948114e+002
5.432549e+002, 3.955531e+002
5.437371e+002, 3.963044e+002
5.442192e+002, 3.969200e+002
5.447013e+002, 3.973656e+002
5.451834e+002, 3.973597e+002
5.456655e+002, 3.970939e+002
5.461476e+002, 3.973326e+002
5.466298e+002, 3.995018e+002
5.471119e+002, 4.013637e+002
5.475940e+002, 4.013804e+002
5.480761e+002, 3.986429e+002
5.485582e+002, 3.971842e+002
5.490403e+002, 3.981794e+002
5.495225e+002, 3.999631e+002
5.500046e+002, 4.011753e+002
5.504867e+002, 4.013998e+002
5.509688e+002, 4.019861e+002
5.514509e+002, 4.032365e+002
5.519330e+002, 4.047601e+002
5.524152e+002, 4.056924e+002
5.528973e+002, 4.059955e+002
5.533794e+002, 4.060101e+002
5.538615e+002, 4.057972e+002
5.543436e+002, 4.054050e+002
5.548257e+002, 4.047735e+002
5.553079e+002, 4.039264e+002
5.557900e+002, 4.036287e+002
5.562721e+002, 4.048817e+002
5.567542e+002, 4.069390e+002
5.572363e+002, 4.086805e+002
5.577184e+002, 4.099974e+002
5.582006e+002, 4.108042e+002
5.586827e+002, 4.106577e+002
5.591648e+002, 4.100934e+002
5.596469e+002, 4.097863e+002
5.601290e+002, 4.100775e+002
5.606111e+002, 4.105331e+002
5.610933e+002, 4.109223e+002
5.615754e+002, 4.113628e+002
5.620575e+002, 4.121767e+002
5.625396e+002, 4.143979e+002
5.630217e+002, 4.159493e+002
5.635038e+002, 4.159689e+002
5.639860e+002, 4.143671e+002
5.644681e+002, 4.136890e+002
5.649502e+002, 4.141880e+002
5.654323e+002, 4.151363e+002
5.659144e+002, 4.161499e+002
5.663965e+002, 4.172621e+002
5.668787e+002, 4.179565e+002
5.673608e+002, 4.181351e+002
5.678429e+002, 4.180723e+002
5.683250e+002, 4.180577e+002
5.688071e+002, 4.181041e+002
5.692892e+002, 4.182760e+002
5.697714e+002, 4.186217e+002
5.702535e+002, 4.190659e+002
5.707356e+002, 4.194834e+002
5.712177e+002, 4.199115e+002
5.716998e+002, 4.204499e+002
5.721819e+002, 4.212279e+002
5.726641e+002, 4.220822e+002
5.731462e+002, 4.229742e+002
5.736283e+002, 4.239075e+002
5.741104e+002, 4.246034e+002
5.745925e+002, 4.247654e+002
5.750746e+002, 4.248126e+002
5.755568e+002, 4.250384e+002
5.760389e+002, 4.256642e+002
5.765210e+002, 4.260914e+002
5.770031e+002, 4.261959e+002
5.774852e+002, 4.262017e+002
5.779673e+002, 4.263844e+002
5.784495e+002, 4.267414e+002
5.789316e+002, 4.273446e+002
5.794137e+002, 4.283095e+002
5.798958e+002, 4.294566e+002
5.803779e+002, 4.304097e+002
5.808600e+002, 4.311636e+002
5.813422e+002, 4.315969e+002
5.818243e+002, 4.312799e+002
5.823064e+002, 4.306797e+002
5.827885e+002, 4.308604e+002
5.832706e+002, 4.318141e+002
5.837527e+002, 4.329652e+002
5.842349e+002, 4.340883e+002
5.847170e+002, 4.350864e+002
5.851991e+002, 4.358007e+002
5.856812e+002, 4.360958e+002
5.861633e+002, 4.364566e+002
5.866454e+002, 4.372164e+002
5.871276e+002, 4.381092e+002
5.876097e+002, 4.388039e+002
5.880918e+002, 4.392344e+002
5.885739e+002, 4.394748e+002
5.890560e+002, 4.393461e+002
5.895381e+002, 4.390622e+002
5.900203e+002, 4.393374e+002
5.905024e+002, 4.405897e+002
5.909845e+002, 4.414702e+002
5.914666e+002, 4.412872e+002
5.919487e+002, 4.402250e+002
5.924308e+002, 4.400507e+002
5.929130e+002, 4.408680e+002
5.933951e+002, 4.417681e+002
5.938772e+002, 4.417943e+002
5.943593e+002, 4.413345e+002
5.948414e+002, 4.416378e+002
5.953235e+002, 4.429010e+002
5.958057e+002, 4.442880e+002
5.962878e+002, 4.450207e+002
5.967699e+002, 4.453723e+002
5.972520e+002, 4.457398e+002
5.977341e+002, 4.462225e+002
5.982162e+002, 4.467700e+002
5.986984e+002, 4.474430e+002
5.991805e+002, 4.481524e+002
5.996626e+002, 4.487387e+002
6.001447e+002, 4.489717e+002
6.006268e+002, 4.492919e+002
6.011089e+002, 4.497684e+002
6.015911e+002, 4.504124e+002
6.020732e+002, 4.514205e+002
6.025553e+002, 4.531914e+002
6.030374e+002, 4.545835e+002
6.035195e+002, 4.547836e+002
6.040016e+002, 4.537302e+002
6.044838e+002, 4.533568e+002
6.049659e+002, 4.537738e+002
6.054480e+002, 4.543719e+002
6.059301e+002, 4.542721e+002
6.064122e+002, 4.538006e+002
6.068943e+002, 4.542767e+002
6.073765e+002, 4.562407e+002
6.078586e+002, 4.582350e+002
6.083407e+002, 4.582943e+002
6.088228e+002, 4.573640e+002
6.093049e+002, 4.571688e+002
6.097870e+002, 4.592353e+002
6.102692e+002, 4.613704e+002
6.107513e+002, 4.624383e+002
6.112334e+002, 4.627039e+002
6.117155e+002, 4.631497e+002
6.121976e+002, 4.640748e+002
6.126797e+002, 4.651092e+002
6.131619e+002, 4.662589e+002
6.136440e+002, 4.675638e+002
6.141261e+002, 4.681722e+002
6.146082e+002, 4.677360e+002
6.150903e+002, 4.672532e+002
6.155724e+002, 4.674155e+002
6.160546e+002, 4.682291e+002
6.165367e+002, 4.692457e+002
6.170188e+002, 4.705380e+002
6.175009e+002, 4.716126e+002
6.179830e+002, 4.716033e+002
6.184651e+002, 4.708954e+002
6.189473e+002, 4.706283e+002
6.194294e+002, 4.712154e+002
6.199115e+002, 4.720869e+002
6.203936e+002, 4.731181e+002
6.208757e+002, 4.740279e+002
6.213578e+002, 4.742531e+002
6.218400e+002, 4.721092e+002
6.223221e+002, 4.706678e+002
6.228042e+002, 4.719002e+002
6.232863e+002, 4.753224e+002
6.237684e+002, 4.775799e+002
6.242505e+002, 4.776910e+002
6.247327e+002, 4.772998e+002
6.252148e+002, 4.767965e+002
6.256969e+002, 4.761172e+002
6.261790e+002, 4.761266e+002
6.266611e+002, 4.770229e+002
6.271432e+002, 4.780781e+002
6.276254e+002, 4.785594e+002
6.281075e+002, 4.785551e+002
6.285896e+002, 4.792852e+002
6.290717e+002, 4.810013e+002
6.295538e+002, 4.826685e+002
6.300359e+002, 4.827625e+002
6.305181e+002, 4.819774e+002
6.310002e+002, 4.818292e+002
6.314823e+002, 4.832191e+002
6.319644e+002, 4.846244e+002
6.324465e+002, 4.847807e+002
6.329286e+002, 4.842115e+002
6.334108e+002, 4.839498e+002
6.338929e+002, 4.843846e+002
6.343750e+002, 4.850992e+002
6.348571e+002, 4.860843e+002
6.353392e+002, 4.872838e+002
6.358214e+002, 4.883210e+002
6.363035e+002, 4.890948e+002
6.367856e+002, 4.898365e+002
6.372677e+002, 4.906337e+002
6.377498e+002, 4.914712e+002
6.382319e+002, 4.923213e+002
6.387141e+002, 4.932240e+002
6.391962e+002, 4.939139e+002
6.396783e+002, 4.939298e+002
6.401604e+002, 4.935485e+002
6.406425e+002, 4.938333e+002
6.411246e+002, 4.950012e+002
6.416068e+002, 4.961788e+002
6.420889e+002, 4.965176e+002
6.425710e+002, 4.963987e+002
6.430531e+002, 4.963221e+002
6.435352e+002, 4.963801e+002
6.440173e+002, 4.966124e+002
6.444995e+002, 4.971600e+002
6.449816e+002, 4.978739e+002
6.454637e+002, 4.985002e+002
6.459458e+002, 4.984579e+002
6.464279e+002, 4.989927e+002
6.469100e+002, 5.006198e+002
6.473922e+002, 5.029526e+002
6.478743e+002, 5.043689e+002
6.483564e+002, 5.046781e+002
6.488385e+002, 5.046891e+002
6.493206e+002, 5.045551e+002
6.498027e+002, 5.043963e+002
6.502849e+002, 5.050574e+002
6.507670e+002, 5.065161e+002
6.512491e+002, 5.077610e+002
6.517312e+002, 5.077154e+002
6.522133e+002, 5.071107e+002
6.526954e+002, 5.069390e+002
6.531776e+002, 5.073148e+002
6.536597e+002, 5.081001e+002
6.541418e+002, 5.097916e+002
6.546239e+002, 5.115508e+002
6.551060e+002, 5.125544e+002
6.555881e+002, 5.119265e+002
6.560703e+002, 5.118551e+002
6.565524e+002, 5.131656e+002
6.570345e+002, 5.148930e+002
6.575166e+002, 5.158815e+002
6.579987e+002, 5.158509e+002
6.584808e+002, 5.157923e+002
6.589630e+002, 5.157600e+002
6.594451e+002, 5.158531e+002
6.599272e+002, 5.163747e+002
6.604093e+002, 5.173107e+002
6.608914e+002, 5.182751e+002
6.613735e+002, 5.192816e+002
6.618557e+002, 5.201070e+002
6.623378e+002, 5.200043e+002
6.628199e+002, 5.192825e+002
6.633020e+002, 5.192512e+002
6.637841e+002, 5.217286e+002
6.642662e+002, 5.243516e+002
6.647484e+002, 5.250759e+002
6.652305e+002, 5.237995e+002
6.657126e+002, 5.233929e+002
6.661947e+002, 5.255129e+002
6.666768e+002, 5.279005e+002
6.671589e+002, 5.292733e+002
6.676411e+002, 5.292377e+002
6.681232e+002, 5.297053e+002
6.686053e+002, 5.308228e+002
6.690874e+002, 5.321292e+002
6.695695e+002, 5.331638e+002
6.700516e+002, 5.339244e+002
6.705338e+002, 5.348253e+002
6.710159e+002, 5.359425e+002
6.714980e+002, 5.370298e+002
6.719801e+002, 5.378526e+002
6.724622e+002, 5.384005e+002
6.729443e+002, 5.385509e+002
6.734265e+002, 5.378071e+002
6.739086e+002, 5.374737e+002
6.743907e+002, 5.389058e+002
6.748728e+002, 5.413317e+002
6.753549e+002, 5.432551e+002
6.758370e+002, 5.440788e+002
6.763192e+002, 5.446427e+002
6.768013e+002, 5.452272e+002
6.772834e+002, 5.457616e+002
6.777655e+002, 5.457551e+002
6.782476e+002, 5.447372e+002
6.787297e+002, 5.443186e+002
6.792119e+002, 5.451972e+002
6.796940e+002, 5.471873e+002
6.801761e+002, 5.494686e+002
6.806582e+002, 5.520421e+002
6.811403e+002, 5.541213e+002
6.816224e+002, 5.545840e+002
6.821046e+002, 5.543660e+002
6.825867e+002, 5.550101e+002
6.830688e+002, 5.565957e+002
6.835509e+002, 5.587463e+002
6.840330e+002, 5.620371e+002
6.845151e+002, 5.652813e+002
6.849973e+002, 5.673398e+002
6.854794e+002, 5.674495e+002
6.859615e+002, 5.682189e+002
6.864436e+002, 5.708623e+002
6.869257e+002, 5.738383e+002
6.874078e+002, 5.758690e+002
6.878900e+002, 5.765523e+002
6.883721e+002, 5.775468e+002
6.888542e+002, 5.789827e+002
6.893363e+002, 5.807385e+002
6.898184e+002, 5.829172e+002
6.903005e+002, 5.853893e+002
6.907827e+002, 5.869908e+002
6.912648e+002, 5.871907e+002
6.917469e+002, 5.867867e+002
6.922290e+002, 5.862436e+002
6.927111e+002, 5.858915e+002
6.931932e+002, 5.865060e+002
6.936754e+002, 5.895087e+002
6.941575e+002, 5.924766e+002
6.946396e+002, 5.940500e+002
6.951217e+002, 5.945684e+002
6.956038e+002, 5.953854e+002
6.960859e+002, 5.970543e+002
6.965681e+002, 5.985912e+002
6.970502e+002, 5.995782e+002
6.975323e+002, 6.001340e+002
6.980144e+002, 6.015853e+002
6.984965e+002, 6.041953e+002
6.989786e+002, 6.065779e+002
6.994608e+002, 6.078300e+002
6.999429e+002, 6.082059e+002
7.004250e+002, 6.084422e+002
7.009071e+002, 6.085714e+002
7.013892e+002, 6.092486e+002
7.018713e+002, 6.115417e+002
7.023535e+002, 6.143378e+002
7.028356e+002, 6.162698e+002
7.033177e+002, 6.170203e+002
7.037998e+002, 6.181519e+002
7.042819e+002, 6.208010e+002
7.047640e+002, 6.237338e+002
7.052462e+002, 6.259378e+002
7.057283e+002, 6.267750e+002
7.062104e+002, 6.279887e+002
7.066925e+002, 6.291360e+002
7.071746e+002, 6.311826e+002
7.076567e+002, 6.364869e+002
7.081389e+002, 6.452897e+002
7.086210e+002, 6.492061e+002
7.091031e+002, 6.461305e+002
7.095852e+002, 6.407644e+002
7.100673e+002, 6.391810e+002
7.105494e+002, 6.403773e+002
7.110316e+002, 6.418920e+002
7.115137e+002, 6.430486e+002
7.119958e+002, 6.440656e+002
7.124779e+002, 6.451614e+002
7.129600e+002, 6.462363e+002
7.134421e+002, 6.470802e+002
7.139243e+002, 6.473477e+002
7.144064e+002, 6.477755e+002
7.148885e+002, 6.486652e+002
7.153706e+002, 6.498279e+002
7.158527e+002, 6.504207e+002
7.163348e+002, 6.499745e+002
7.168170e+002, 6.506660e+002
7.172991e+002, 6.537384e+002
7.177812e+002, 6.582422e+002
7.182633e+002, 6.615060e+002
7.187454e+002, 6.634921e+002
7.192275e+002, 6.635566e+002
7.197097e+002, 6.595594e+002
7.201918e+002, 6.545961e+002
7.206739e+002, 6.521124e+002
7.211560e+002, 6.519938e+002
7.216381e+002, 6.522558e+002
7.221202e+002, 6.522527e+002
7.226024e+002, 6.521888e+002
7.230845e+002, 6.520981e+002
7.235666e+002, 6.519476e+002
7.240487e+002, 6.522408e+002
7.245308e+002, 6.532692e+002
7.250129e+002, 6.543209e+002
7.254951e+002, 6.551282e+002
7.259772e+002, 6.557256e+002
7.264593e+002, 6.551027e+002
7.269414e+002, 6.530671e+002
7.274235e+002, 6.512661e+002
7.279056e+002, 6.515743e+002
7.283878e+002, 6.531191e+002
7.288699e+002, 6.542792e+002
7.293520e+002, 6.548107e+002
7.298341e+002, 6.551066e+002
7.303162e+002, 6.554739e+002
7.307983e+002, 6.557015e+002
7.312805e+002, 6.555201e+002
7.317626e+002, 6.540954e+002
7.322447e+002, 6.537104e+002
7.327268e+002, 6.550605e+002
7.332089e+002, 6.570338e+002
7.336910e+002, 6.584940e+002
7.341732e+002, 6.594329e+002
7.346553e+002, 6.597108e+002
7.351374e+002, 6.590488e+002
7.356195e+002, 6.583190e+002
7.361016e+002, 6.591168e+002
7.365837e+002, 6.609988e+002
7.370659e+002, 6.624470e+002
7.375480e+002, 6.629475e+002
7.380301e+002, 6.629587e+002
7.385122e+002, 6.623940e+002
7.389943e+002, 6.617042e+002
7.394764e+002, 6.616722e+002
7.399586e+002, 6.633221e+002
7.404407e+002, 6.647736e+002
7.409228e+002, 6.658273e+002
7.414049e+002, 6.663506e+002
7.418870e+002, 6.657620e+002
7.423691e+002, 6.634659e+002
7.428513e+002, 6.619340e+002
7.433334e+002, 6.618578e+002
7.438155e+002, 6.629453e+002
7.442976e+002, 6.647283e+002
7.447797e+002, 6.671243e+002
7.452618e+002, 6.692948e+002
7.457440e+002, 6.711285e+002
7.462261e+002, 6.723320e+002
7.467082e+002, 6.719100e+002
7.471903e+002, 6.704340e+002
7.476724e+002, 6.700162e+002
7.481545e+002, 6.723008e+002
7.486367e+002, 6.750671e+002
7.491188e+002, 6.779055e+002
7.496009e+002, 6.806564e+002
7.500830e+002, 6.815266e+002
7.505651e+002, 6.795051e+002
7.510472e+002, 6.777094e+002
7.515294e+002, 6.774251e+002
7.520115e+002, 6.785349e+002
7.524936e+002, 6.805229e+002
7.529757e+002, 6.833920e+002
7.534578e+002, 6.862006e+002
7.539399e+002, 6.885532e+002
7.544221e+002, 6.902767e+002
7.549042e+002, 6.906131e+002
7.553863e+002, 6.896625e+002
7.558684e+002, 6.893561e+002
7.563505e+002, 6.911164e+002
7.568326e+002, 6.934385e+002
7.573148e+002, 6.955075e+002
7.577969e+002, 6.972607e+002
7.582790e+002, 6.985731e+002
7.587611e+002, 6.989964e+002
7.592432e+002, 6.996832e+002
7.597253e+002, 7.016373e+002
7.602075e+002, 7.048741e+002
7.606896e+002, 7.072108e+002
7.611717e+002, 7.086401e+002
7.616538e+002, 7.092943e+002
7.621359e+002, 7.087844e+002
7.626180e+002, 7.078021e+002
7.631002e+002, 7.073790e+002
7.635823e+002, 7.076524e+002
7.640644e+002, 7.085265e+002
7.645465e+002, 7.106550e+002
7.650286e+002, 7.129457e+002
7.655107e+002, 7.143987e+002
7.659929e+002, 7.142921e+002
7.664750e+002, 7.149477e+002
7.669571e+002, 7.165779e+002
7.674392e+002, 7.187079e+002
7.679213e+002, 7.212108e+002
7.684034e+002, 7.241057e+002
7.688856e+002, 7.256337e+002
7.693677e+002, 7.254041e+002
7.698498e+002, 7.251470e+002
7.703319e+002, 7.271073e+002
7.708140e+002, 7.302128e+002
7.712961e+002, 7.326011e+002
7.717783e+002, 7.338201e+002
7.722604e+002, 7.344778e+002
7.727425e+002, 7.342764e+002
7.732246e+002, 7.339849e+002
7.737067e+002, 7.344230e+002
7.741888e+002, 7.364612e+002
7.746710e+002, 7.379288e+002
7.751531e+002, 7.384680e+002
7.756352e+002, 7.388676e+002
7.761173e+002, 7.400681e+002
7.765994e+002, 7.420724e+002
7.770815e+002, 7.446737e+002
7.775637e+002, 7.480568e+002
7.780458e+002, 7.512730e+002
7.785279e+002, 7.529882e+002
7.790100e+002, 7.537625e+002
7.794921e+002, 7.545921e+002
7.799742e+002, 7.557534e+002
7.804564e+002, 7.570053e+002
7.809385e+002, 7.579915e+002
7.814206e+002, 7.590928e+002
7.819027e+002, 7.608971e+002
7.823848e+002, 7.640364e+002
7.828669e+002, 7.666982e+002
7.833491e+002, 7.687677e+002
7.838312e+002, 7.702701e+002
7.843133e+002, 7.707692e+002
7.847954e+002, 7.703631e+002
7.852775e+002, 7.713774e+002
7.857596e+002, 7.748155e+002
7.862418e+002, 7.785450e+002
7.867239e+002, 7.797419e+002
7.872060e+002, 7.793812e+002
7.876881e+002, 7.792503e+002
7.881702e+002, 7.799885e+002
7.886523e+002, 7.810421e+002
7.891345e+002, 7.823065e+002
7.896166e+002, 7.837656e+002
7.900987e+002, 7.854442e+002
7.905808e+002, 7.876024e+002
7.910629e+002, 7.893376e+002
7.915450e+002, 7.902610e+002
7.920272e+002, 7.910650e+002
7.925093e+002, 7.932790e+002
7.929914e+002, 7.967135e+002
7.934735e+002, 7.996295e+002
7.939556e+002, 8.014883e+002
7.944377e+002, 8.027634e+002
7.949199e+002, 8.035477e+002
7.954020e+002, 8.041962e+002
7.958841e+002, 8.053301e+002
7.963662e+002, 8.073171e+002
7.968483e+002, 8.095936e+002
7.973304e+002, 8.120958e+002
7.978126e+002, 8.147372e+002
7.982947e+002, 8.174587e+002
7.987768e+002, 8.205621e+002
7.992589e+002, 8.227012e+002
7.997410e+002, 8.234998e+002
8.002231e+002, 8.234345e+002
8.007053e+002, 8.227609e+002
8.011874e+002, 8.218663e+002
8.016695e+002, 8.224988e+002
8.021516e+002, 8.262348e+002
8.026337e+002, 8.301578e+002
8.031158e+002, 8.318665e+002
8.035980e+002, 8.320321e+002
8.040801e+002, 8.318506e+002
8.045622e+002, 8.302191e+002
8.050443e+002, 8.301593e+002
8.055264e+002, 8.326891e+002
8.060085e+002, 8.367025e+002
8.064907e+002, 8.404861e+002
8.069728e+002, 8.442228e+002
8.074549e+002, 8.463066e+002
8.079370e+002, 8.458235e+002
8.084191e+002, 8.446497e+002
8.089012e+002, 8.458485e+002
8.093834e+002, 8.488599e+002
8.098655e+002, 8.522887e+002
8.103476e+002, 8.563463e+002
8.108297e+002, 8.596117e+002
8.113118e+002, 8.605536e+002
8.117939e+002, 8.602823e+002
8.122761e+002, 8.606557e+002
8.127582e+002, 8.617645e+002
8.132403e+002, 8.639076e+002
8.137224e+002, 8.676946e+002
8.142045e+002, 8.720391e+002
8.146866e+002, 8.749138e+002
8.151688e+002, 8.763085e+002
8.156509e+002, 8.773640e+002
8.161330e+002, 8.782197e+002
8.166151e+002, 8.791961e+002
8.170972e+002, 8.803206e+002
8.175793e+002, 8.819250e+002
8.180615e+002, 8.847498e+002
8.185436e+002, 8.912532e+002
8.190257e+002, 8.959655e+002
8.195078e+002, 8.953640e+002
8.199899e+002, 8.924068e+002
8.204720e+002, 8.917062e+002
8.209542e+002, 8.941780e+002
8.214363e+002, 8.963618e+002
8.219184e+002, 8.975361e+002
8.224005e+002, 8.987943e+002
8.228826e+002, 9.027156e+002
8.233647e+002, 9.084876e+002
8.238469e+002, 9.121458e+002
8.243290e+002, 9.121733e+002
8.248111e+002, 9.114760e+002
8.252932e+002, 9.122549e+002
8.257753e+002, 9.140157e+002
8.262574e+002, 9.160548e+002
8.267396e+002, 9.185144e+002
8.272217e+002, 9.208719e+002
8.277038e+002, 9.229805e+002
8.281859e+002, 9.250995e+002
8.286681e+002, 9.275186e+002
8.291502e+002, 9.301978e+002
8.296323e+002, 9.334537e+002
8.301144e+002, 9.374362e+002
8.305966e+002, 9.415068e+002
8.310787e+002, 9.453307e+002
8.315608e+002, 9.486227e+002
8.320429e+002, 9.507268e+002
8.325250e+002, 9.510019e+002
8.330071e+002, 9.514550e+002
8.334893e+002, 9.527797e+002
8.339714e+002, 9.549396e+002
8.344535e+002, 9.580943e+002
8.349356e+002, 9.635644e+002
8.354177e+002, 9.669120e+002
8.358998e+002, 9.672256e+002
8.363820e+002, 9.670787e+002
8.368641e+002, 9.696857e+002
8.373462e+002, 9.745332e+002
8.378283e+002, 9.779285e+002
8.383104e+002, 9.793330e+002
8.387925e+002, 9.804064e+002
8.392747e+002, 9.823323e+002
8.397568e+002, 9.848691e+002
8.402389e+002, 9.878648e+002
8.407210e+002, 9.914906e+002
8.412031e+002, 9.947908e+002
8.416852e+002, 9.976095e+002
8.421674e+002, 9.999037e+002
8.426495e+002, 1.001249e+003
8.431316e+002, 1.001201e+003
8.436137e+002, 1.003446e+003
8.440958e+002, 1.008386e+003
8.445779e+002, 1.013228e+003
8.450601e+002, 1.015046e+003
8.455422e+002, 1.015185e+003
8.460243e+002, 1.016167e+003
8.465064e+002, 1.018241e+003
8.469885e+002, 1.020347e+003
8.474706e+002, 1.021444e+003
8.479528e+002, 1.022845e+003
8.484349e+002, 1.025732e+003
8.489170e+002, 1.030451e+003
8.493991e+002, 1.034053e+003
8.498812e+002, 1.036028e+003
8.503633e+002, 1.038206e+003
8.508455e+002, 1.042031e+003
8.513276e+002, 1.047069e+003
8.518097e+002, 1.050473e+003
8.522918e+002, 1.052405e+003
8.527739e+002, 1.054869e+003
8.532560e+002, 1.058696e+003
8.537382e+002, 1.063998e+003
8.542203e+002, 1.072748e+003
8.547024e+002, 1.084300e+003
8.551845e+002, 1.091040e+003
8.556666e+002, 1.086542e+003
8.561487e+002, 1.082914e+003
8.566309e+002, 1.084402e+003
8.571130e+002, 1.089919e+003
8.575951e+002, 1.093483e+003
8.580772e+002, 1.095067e+003
8.585593e+002, 1.096557e+003
8.590414e+002, 1.098784e+003
8.595236e+002, 1.101613e+003
8.600057e+002, 1.105136e+003
8.604878e+002, 1.109126e+003
8.609699e+002, 1.112801e+003
8.614520e+002, 1.115928e+003
8.619341e+002, 1.118650e+003
8.624163e+002, 1.120674e+003
8.628984e+002, 1.122383e+003
8.633805e+002, 1.124741e+003
8.638626e+002, 1.127918e+003
8.643447e+002, 1.131165e+003
8.648268e+002, 1.134362e+003
8.653090e+002, 1.137406e+003
8.657911e+002, 1.139942e+003
8.662732e+002, 1.142106e+003
8.667553e+002, 1.144233e+003
8.672374e+002, 1.146325e+003
8.677195e+002, 1.148627e+003
8.682017e+002, 1.151559e+003
8.686838e+002, 1.154699e+003
8.691659e+002, 1.157208e+003
8.696480e+002, 1.158039e+003
8.701301e+002, 1.160315e+003
8.706122e+002, 1.164643e+003
8.710944e+002, 1.169956e+003
8.715765e+002, 1.175502e+003
8.720586e+002, 1.180940e+003
8.725407e+002, 1.183811e+003
8.730228e+002, 1.183178e+003
8.735049e+002, 1.182386e+003
8.739871e+002, 1.183511e+003
8.744692e+002, 1.186532e+003
8.749513e+002, 1.191805e+003
8.754334e+002, 1.201238e+003
8.759155e+002, 1.208300e+003
8.763976e+002, 1.211482e+003
8.768798e+002, 1.213487e+003
8.773619e+002, 1.216407e+003
8.778440e+002, 1.220267e+003
8.783261e+002, 1.223755e+003
8.788082e+002, 1.226841e+003
8.792903e+002, 1.229519e+003
8.797725e+002, 1.231235e+003
8.802546e+002, 1.232877e+003
8.807367e+002, 1.235674e+003
8.812188e+002, 1.239755e+003
8.817009e+002, 1.243960e+003
8.821830e+002, 1.247977e+003
8.826652e+002, 1.251967e+003
8.831473e+002, 1.256057e+003
8.836294e+002, 1.260242e+003
8.841115e+002, 1.263755e+003
8.845936e+002, 1.266477e+003
8.850757e+002, 1.269421e+003
8.855579e+002, 1.273341e+003
8.860400e+002, 1.277802e+003
8.865221e+002, 1.282309e+003
8.870042e+002, 1.286690e+003
8.874863e+002, 1.290437e+003
8.879684e+002, 1.291811e+003
8.884506e+002, 1.294010e+003
8.889327e+002, 1.299260e+003
8.894148e+002, 1.306486e+003
8.898969e+002, 1.312150e+003
8.903790e+002, 1.315927e+003
8.908611e+002, 1.319123e+003
8.913433e+002, 1.322050e+003
8.918254e+002, 1.324706e+003
8.923075e+002, 1.326549e+003
8.927896e+002, 1.328151e+003
8.932717e+002, 1.331235e+003
8.937538e+002, 1.337424e+003
8.942360e+002, 1.343768e+003
8.947181e+002, 1.348450e+003
8.952002e+002, 1.352295e+003
8.956823e+002, 1.356443e+003
8.961644e+002, 1.360957e+003
8.966465e+002, 1.365787e+003
8.971287e+002, 1.371060e+003
8.976108e+002, 1.376323e+003
8.980929e+002, 1.380955e+003
8.985750e+002, 1.385025e+003
8.990571e+002, 1.388581e+003
8.995392e+002, 1.391544e+003
9.000214e+002, 1.394905e+003
9.005035e+002, 1.399573e+003
9.009856e+002, 1.404867e+003
9.014677e+002, 1.410367e+003
9.019498e+002, 1.416051e+003
9.024319e+002, 1.421365e+003
9.029141e+002, 1.426347e+003
9.033962e+002, 1.430896e+003
9.038783e+002, 1.434671e+003
9.043604e+002, 1.437857e+003
9.048425e+002, 1.441924e+003
9.053246e+002, 1.446922e+003
9.058068e+002, 1.452807e+003
9.062889e+002, 1.460946e+003
9.067710e+002, 1.468879e+003
9.072531e+002, 1.474560e+003
9.077352e+002, 1.478129e+003
9.082173e+002, 1.481500e+003
9.086995e+002, 1.484526e+003
9.091816e+002, 1.488176e+003
9.096637e+002, 1.493030e+003
9.101458e+002, 1.498475e+003
9.106279e+002, 1.502024e+003
9.111100e+002, 1.503985e+003
9.115922e+002, 1.507159e+003
9.120743e+002, 1.513099e+003
9.125564e+002, 1.520045e+003
9.130385e+002, 1.527250e+003
9.135206e+002, 1.534060e+003
9.140027e+002, 1.539478e+003
9.144849e+002, 1.541403e+003
9.149670e+002, 1.544476e+003
9.154491e+002, 1.549311e+003
9.159312e+002, 1.555071e+003
9.164133e+002, 1.560925e+003
9.168954e+002, 1.566854e+003
9.173776e+002, 1.571990e+003
9.178597e+002, 1.576098e+003
9.183418e+002, 1.580529e+003
9.188239e+002, 1.587401e+003
9.193060e+002, 1.594798e+003
9.197881e+002, 1.600471e+003
9.202703e+002, 1.603712e+003
9.207524e+002, 1.607042e+003
9.212345e+002, 1.610671e+003
9.217166e+002, 1.614667e+003
9.221987e+002, 1.619145e+003
9.226808e+002, 1.624092e+003
9.231630e+002, 1.629102e+003
9.236451e+002, 1.634214e+003
9.241272e+002, 1.639224e+003
9.246093e+002, 1.643882e+003
9.250914e+002, 1.648504e+003
9.255735e+002, 1.653123e+003
9.260557e+002, 1.657894e+003
9.265378e+002, 1.663576e+003
9.270199e+002, 1.671454e+003
9.275020e+002, 1.678964e+003
9.279841e+002, 1.685614e+003
9.284662e+002, 1.691557e+003
9.289484e+002, 1.696971e+003
9.294305e+002, 1.701916e+003
9.299126e+002, 1.707503e+003
9.303947e+002, 1.714152e+003
9.308768e+002, 1.721168e+003
9.313589e+002, 1.728040e+003
9.318411e+002, 1.734633e+003
9.323232e+002, 1.740650e+003
9.328053e+002, 1.745725e+003
9.332874e+002, 1.750667e+003
9.337695e+002, 1.755373e+003
9.342516e+002, 1.760174e+003
9.347338e+002, 1.765483e+003
9.352159e+002, 1.771326e+003
9.356980e+002, 1.776295e+003
9.361801e+002, 1.780250e+003
9.366622e+002, 1.784784e+003
9.371443e+002, 1.791597e+003
9.376265e+002, 1.799420e+003
9.381086e+002, 1.807212e+003
9.385907e+002, 1.814928e+003
9.390728e+002, 1.821627e+003
9.395549e+002, 1.826353e+003
9.400370e+002, 1.831036e+003
9.405192e+002, 1.836056e+003
9.410013e+002, 1.841572e+003
9.414834e+002, 1.848979e+003
9.419655e+002, 1.858077e+003
9.424476e+002, 1.866159e+003
9.429297e+002, 1.871313e+003
9.434119e+002, 1.875591e+003
9.438940e+002, 1.880703e+003
9.443761e+002, 1.886309e+003
9.448582e+002, 1.891676e+003
9.453403e+002, 1.896436e+003
9.458224e+002, 1.901298e+003
9.463046e+002, 1.905996e+003
9.467867e+002, 1.911282e+003
9.472688e+002, 1.918677e+003
9.477509e+002, 1.927759e+003
9.482330e+002, 1.935820e+003
9.487151e+002, 1.942376e+003
9.491973e+002, 1.948270e+003
9.496794e+002, 1.953577e+003
9.501615e+002, 1.958897e+003
9.506436e+002, 1.964684e+003
9.511257e+002, 1.970865e+003
9.516078e+002, 1.978287e+003
9.520900e+002, 1.988216e+003
9.525721e+002, 1.996726e+003
9.530542e+002, 2.000875e+003
9.535363e+002, 2.001878e+003
9.540184e+002, 2.004532e+003
9.545005e+002, 2.008748e+003
9.549827e+002, 2.013991e+003
9.554648e+002, 2.021294e+003
9.559469e+002, 2.028264e+003
9.564290e+002, 2.032802e+003
9.569111e+002, 2.035889e+003
9.573932e+002, 2.040577e+003
9.578754e+002, 2.047869e+003
9.583575e+002, 2.054290e+003
9.588396e+002, 2.058801e+003
9.593217e+002, 2.062918e+003
9.598038e+002, 2.069208e+003
9.602859e+002, 2.076935e+003
9.607681e+002, 2.084252e+003
9.612502e+002, 2.090856e+003
9.617323e+002, 2.096518e+003
9.622144e+002, 2.100543e+003
9.626965e+002, 2.103952e+003
9.631786e+002, 2.107612e+003
9.636608e+002, 2.111597e+003
9.641429e+002, 2.115254e+003
9.646250e+002, 2.118329e+003
9.651071e+002, 2.122200e+003
9.655892e+002, 2.129700e+003
9.660714e+002, 2.137877e+003
9.665535e+002, 2.139952e+003
9.670356e+002, 2.137118e+003
9.675177e+002, 2.135897e+003
9.679998e+002, 2.140593e+003
9.684819e+002, 2.145981e+003
9.689641e+002, 2.150312e+003
9.694462e+002, 2.153896e+003
9.699283e+002, 2.157691e+003
9.704104e+002, 2.161793e+003
9.708925e+002, 2.165104e+003
9.713746e+002, 2.167543e+003
9.718568e+002, 2.168688e+003
9.723389e+002, 2.165939e+003
9.728210e+002, 2.162344e+003
9.733031e+002, 2.162989e+003
9.737852e+002, 2.171103e+003
9.742673e+002, 2.177610e+003
9.747495e+002, 2.180556e+003
9.752316e+002, 2.181742e+003
9.757137e+002, 2.181755e+003
9.761958e+002, 2.180584e+003
9.766779e+002, 2.181517e+003
9.771600e+002, 2.184521e+003
9.776422e+002, 2.186858e+003
9.781243e+002, 2.185914e+003
9.786064e+002, 2.184065e+003
9.790885e+002, 2.183430e+003
9.795706e+002, 2.183817e+003
9.800527e+002, 2.184011e+003
9.805349e+002, 2.183863e+003
9.810170e+002, 2.183570e+003
9.814991e+002, 2.183455e+003
9.819812e+002, 2.182898e+003
9.824633e+002, 2.179667e+003
9.829454e+002, 2.174734e+003
9.834276e+002, 2.172374e+003
9.839097e+002, 2.174325e+003
9.843918e+002, 2.176679e+003
9.848739e+002, 2.177321e+003
9.853560e+002, 2.176739e+003
9.858381e+002, 2.175149e+003
9.863203e+002, 2.172217e+003
9.868024e+002, 2.169880e+003
9.872845e+002, 2.167969e+003
9.877666e+002, 2.167234e+003
9.882487e+002, 2.169859e+003
9.887308e+002, 2.173504e+003
9.892130e+002, 2.171826e+003
9.896951e+002, 2.165867e+003
9.901772e+002, 2.161053e+003
9.906593e+002, 2.160332e+003
9.911414e+002, 2.160833e+003
9.916235e+002, 2.162199e+003
9.921057e+002, 2.163762e+003
9.925878e+002, 2.164013e+003
9.930699e+002, 2.162784e+003
9.935520e+002, 2.162073e+003
9.940341e+002, 2.162503e+003
9.945162e+002, 2.162634e+003
9.949984e+002, 2.160234e+003
9.954805e+002, 2.156705e+003
9.959626e+002, 2.153887e+003
9.964447e+002, 2.152123e+003
9.969268e+002, 2.150982e+003
9.974089e+002, 2.150640e+003
9.978911e+002, 2.150585e+003
9.983732e+002, 2.150951e+003
9.988553e+002, 2.151486e+003
9.993374e+002, 2.149739e+003
9.998195e+002, 2.145949e+003
1.000302e+003, 2.142364e+003
1.000784e+003, 2.139984e+003
1.001266e+003, 2.138557e+003
1.001748e+003, 2.139024e+003
1.002230e+003, 2.140216e+003
1.002712e+003, 2.138831e+003
1.003194e+003, 2.132979e+003
1.003676e+003, 2.129160e+003
1.004159e+003, 2.128495e+003
1.004641e+003, 2.129229e+003
1.005123e+003, 2.129542e+003
1.005605e+003, 2.129304e+003
1.006087e+003, 2.127867e+003
1.006569e+003, 2.124896e+003
1.007051e+003, 2.122797e+003
1.007533e+003, 2.124255e+003
1.008016e+003, 2.125375e+003
1.008498e+003, 2.123511e+003
1.008980e+003, 2.118923e+003
1.009462e+003, 2.116462e+003
1.009944e+003, 2.116261e+003
1.010426e+003, 2.115612e+003
1.010908e+003, 2.112937e+003
1.011390e+003, 2.109505e+003
1.011872e+003, 2.106583e+003
1.012355e+003, 2.104088e+003
1.012837e+003, 2.101817e+003
1.013319e+003, 2.100018e+003
1.013801e+003, 2.097927e+003
1.014283e+003, 2.094970e+003
1.014765e+003, 2.092488e+003
1.015247e+003, 2.092898e+003
1.015729e+003, 2.095338e+003
1.016211e+003, 2.094081e+003
1.016694e+003, 2.088712e+003
1.017176e+003, 2.084287e+003
1.017658e+003, 2.084950e+003
1.018140e+003, 2.087233e+003
1.018622e+003, 2.089644e+003
1.019104e+003, 2.091778e+003
1.019586e+003, 2.091073e+003
1.020068e+003, 2.086558e+003
1.020551e+003, 2.083328e+003
1.021033e+003, 2.083434e+003
1.021515e+003, 2.084807e+003
1.021997e+003, 2.084188e+003
1.022479e+003, 2.082306e+003
1.022961e+003, 2.080472e+003
1.023443e+003, 2.078696e+003
1.023925e+003, 2.077795e+003
1.024407e+003, 2.078730e+003
1.024890e+003, 2.079841e+003
1.025372e+003, 2.079748e+003
1.025854e+003, 2.078453e+003
1.026336e+003, 2.078254e+003
1.026818e+003, 2.079128e+003
1.027300e+003, 2.079928e+003
1.027782e+003, 2.080690e+003
1.028264e+003, 2.080368e+003
1.028746e+003, 2.076953e+003
1.029229e+003, 2.071597e+003
1.029711e+003, 2.068796e+003
1.030193e+003, 2.069721e+003
1.030675e+003, 2.070642e+003
1.031157e+003, 2.070756e+003
1.031639e+003, 2.071052e+003
1.032121e+003, 2.074167e+003
1.032603e+003, 2.078341e+003
1.033086e+003, 2.079248e+003
1.033568e+003, 2.075878e+003
1.034050e+003, 2.071577e+003
1.034532e+003, 2.064965e+003
1.035014e+003, 2.060801e+003
1.035496e+003, 2.062889e+003
1.035978e+003, 2.070265e+003
1.036460e+003, 2.071712e+003
1.036943e+003, 2.067315e+003
1.037425e+003, 2.063674e+003
1.037907e+003, 2.065068e+003
1.038389e+003, 2.067240e+003
1.038871e+003, 2.064960e+003
1.039353e+003, 2.060913e+003
1.039835e+003, 2.059964e+003
1.040317e+003, 2.066299e+003
1.040799e+003, 2.069397e+003
1.041281e+003, 2.068505e+003
1.041764e+003, 2.065545e+003
1.042246e+003, 2.060927e+003
1.042728e+003, 2.055990e+003
1.043210e+003, 2.055420e+003
1.043692e+003, 2.059027e+003
1.044174e+003, 2.061320e+003
1.044656e+003, 2.057254e+003
1.045138e+003, 2.053829e+003
1.045621e+003, 2.054858e+003
1.046103e+003, 2.058415e+003
1.046585e+003, 2.058616e+003
1.047067e+003, 2.055381e+003
1.047549e+003, 2.054594e+003
1.048031e+003, 2.058409e+003
1.048513e+003, 2.062752e+003
1.048995e+003, 2.063734e+003
1.049478e+003, 2.062798e+003
1.049960e+003, 2.061256e+003
1.050442e+003, 2.058841e+003
1.050924e+003, 2.057868e+003
1.051406e+003, 2.058354e+003
1.051888e+003, 2.060300e+003
1.052370e+003, 2.063944e+003
1.052852e+003, 2.068887e+003
1.053334e+003, 2.074656e+003
1.053817e+003, 2.080865e+003
1.054299e+003, 2.086305e+003
1.054781e+003, 2.089310e+003
1.055263e+003, 2.092749e+003
1.055745e+003, 2.097033e+003
1.056227e+003, 2.102461e+003
1.056709e+003, 2.110369e+003
1.057191e+003, 2.120824e+003
1.057673e+003, 2.126659e+003
1.058156e+003, 2.127078e+003
1.058638e+003, 2.129179e+003
1.059120e+003, 2.140056e+003
1.059602e+003, 2.154100e+003
1.060084e+003, 2.167249e+003
1.060566e+003, 2.179305e+003
1.061048e+003, 2.190614e+003
1.061530e+003, 2.200554e+003
1.062013e+003, 2.211874e+003
1.062495e+003, 2.225232e+003
1.062977e+003, 2.240536e+003
1.063459e+003, 2.258429e+003
1.063941e+003, 2.278139e+003
1.064423e+003, 2.299004e+003
1.064905e+003, 2.321810e+003
1.065387e+003, 2.342144e+003
1.065870e+003, 2.356618e+003
1.066352e+003, 2.369992e+003
1.066834e+003, 2.384535e+003
1.067316e+003, 2.400035e+003
1.067798e+003, 2.416543e+003
1.068280e+003, 2.433856e+003
1.068762e+003, 2.449719e+003
1.069244e+003, 2.461582e+003
1.069726e+003, 2.473381e+003
1.070208e+003, 2.487823e+003
1.070691e+003, 2.503582e+003
1.071173e+003, 2.517840e+003
1.071655e+003, 2.529427e+003
1.072137e+003, 2.544486e+003
1.072619e+003, 2.563940e+003
1.073101e+003, 2.584292e+003
1.073583e+003, 2.603452e+003
1.074065e+003, 2.620909e+003
1.074548e+003, 2.635679e+003
1.075030e+003, 2.647922e+003
1.075512e+003, 2.660145e+003
1.075994e+003, 2.675776e+003
1.076476e+003, 2.686943e+003
1.076958e+003, 2.691820e+003
1.077440e+003, 2.691473e+003
1.077922e+003, 2.686561e+003
1.078405e+003, 2.678081e+003
1.078887e+003, 2.669401e+003
1.079369e+003, 2.661295e+003
1.079851e+003, 2.651875e+003
1.080333e+003, 2.639029e+003
1.080815e+003, 2.625454e+003
1.081297e+003, 2.613014e+003
1.081779e+003, 2.601582e+003
1.082261e+003, 2.590513e+003
1.082744e+003, 2.579704e+003
1.083226e+003, 2.568323e+003
1.083708e+003, 2.555571e+003
1.084190e+003, 2.542667e+003
1.084672e+003, 2.531394e+003
1.085154e+003, 2.520421e+003
1.085636e+003, 2.507660e+003
1.086118e+003, 2.491957e+003
1.086601e+003, 2.476739e+003
1.087083e+003, 2.462039e+003
1.087565e+003, 2.447756e+003
1.088047e+003, 2.433118e+003
1.088529e+003, 2.419255e+003
1.089011e+003, 2.409084e+003
1.089493e+003, 2.401596e+003
1.089975e+003, 2.392199e+003
1.090458e+003, 2.379233e+003
1.090940e+003, 2.364105e+003
1.091422e+003, 2.346941e+003
1.091904e+003, 2.328307e+003
1.092386e+003, 2.308516e+003
1.092868e+003, 2.288099e+003
1.093350e+003, 2.269807e+003
1.093832e+003, 2.253994e+003
1.094314e+003, 2.239415e+003
1.094797e+003, 2.224604e+003
1.095279e+003, 2.211500e+003
1.095761e+003, 2.201976e+003
1.096243e+003, 2.195112e+003
1.096725e+003, 2.186362e+003
1.097207e+003, 2.175649e+003
1.097689e+003, 2.165838e+003
1.098171e+003, 2.157556e+003
1.098653e+003, 2.150996e+003
1.099136e+003, 2.147678e+003
1.099618e+003, 2.145311e+003
1.100100e+003, 2.140975e+003
1.100582e+003, 2.133657e+003
1.101064e+003, 2.127621e+003
1.101546e+003, 2.122832e+003
1.102028e+003, 2.119368e+003
1.102510e+003, 2.117654e+003
1.102993e+003, 2.116878e+003
1.103475e+003, 2.116414e+003
1.103957e+003, 2.115650e+003
1.104439e+003, 2.113182e+003
1.104921e+003, 2.105789e+003
1.105403e+003, 2.100833e+003
1.105885e+003, 2.099455e+003
1.106367e+003, 2.099811e+003
1.106849e+003, 2.101230e+003
1.107332e+003, 2.102975e+003
1.107814e+003, 2.100973e+003
1.108296e+003, 2.095720e+003
1.108778e+003, 2.092077e+003
1.109260e+003, 2.094674e+003
1.109742e+003, 2.097092e+003
1.110224e+003, 2.096434e+003
1.110706e+003, 2.094204e+003
1.111188e+003, 2.092570e+003
1.111671e+003, 2.091553e+003
1.112153e+003, 2.091609e+003
1.112635e+003, 2.092825e+003
1.113117e+003, 2.095055e+003
1.113599e+003, 2.099478e+003
1.114081e+003, 2.103847e+003
1.114563e+003, 2.105694e+003
1.115045e+003, 2.105423e+003
1.115528e+003, 2.106867e+003
1.116010e+003, 2.110247e+003
1.116492e+003, 2.113881e+003
1.116974e+003, 2.117198e+003
1.117456e+003, 2.120609e+003
1.117938e+003, 2.125561e+003
1.118420e+003, 2.130376e+003
1.118902e+003, 2.132338e+003
1.119385e+003, 2.129593e+003
1.119867e+003, 2.129985e+003
1.120349e+003, 2.134986e+003
1.120831e+003, 2.139607e+003
1.121313e+003, 2.140789e+003
1.121795e+003, 2.140278e+003
1.122277e+003, 2.142465e+003
1.122759e+003, 2.146021e+003
1.123241e+003, 2.147719e+003
1.123724e+003, 2.144958e+003
1.124206e+003, 2.142912e+003
1.124688e+003, 2.142536e+003
1.125170e+003, 2.142986e+003
1.125652e+003, 2.144048e+003
1.126134e+003, 2.145492e+003
1.126616e+003, 2.145304e+003
1.127098e+003, 2.143893e+003
1.127580e+003, 2.143607e+003
1.128063e+003, 2.146064e+003
1.128545e+003, 2.149573e+003
1.129027e+003, 2.154857e+003
1.129509e+003, 2.159782e+003
1.129991e+003, 2.160507e+003
1.130473e+003, 2.157182e+003
1.130955e+003, 2.157144e+003
1.131437e+003, 2.161046e+003
1.131920e+003, 2.165542e+003
1.132402e+003, 2.168798e+003
1.132884e+003, 2.171117e+003
1.133366e+003, 2.172149e+003
1.133848e+003, 2.172395e+003
1.134330e+003, 2.173580e+003
1.134812e+003, 2.175741e+003
1.135294e+003, 2.178610e+003
1.135776e+003, 2.182228e+003
1.136259e+003, 2.186021e+003
1.136741e+003, 2.190104e+003
1.137223e+003, 2.193613e+003
1.137705e+003, 2.195280e+003
1.138187e+003, 2.194840e+003
1.138669e+003, 2.195730e+003
1.139151e+003, 2.198171e+003
1.139633e+003, 2.201456e+003
1.140115e+003, 2.205826e+003
1.140598e+003, 2.209954e+003
1.141080e+003, 2.211733e+003
1.141562e+003, 2.212019e+003
1.142044e+003, 2.212106e+003
1.142526e+003, 2.212152e+003
1.143008e+003, 2.212362e+003
1.143490e+003, 2.212391e+003
1.143972e+003, 2.213465e+003
1.144455e+003, 2.216999e+003
1.144937e+003, 2.221491e+003
1.145419e+003, 2.222875e+003
1.145901e+003, 2.222297e+003
1.146383e+003, 2.222767e+003
1.146865e+003, 2.226603e+003
1.147347e+003, 2.229433e+003
1.147829e+003, 2.229845e+003
1.148312e+003, 2.230281e+003
1.148794e+003, 2.232823e+003
1.149276e+003, 2.237090e+003
1.149758e+003, 2.241808e+003
1.150240e+003, 2.246618e+003
1.150722e+003, 2.249698e+003
1.151204e+003, 2.247761e+003
1.151686e+003, 2.246924e+003
1.152168e+003, 2.249948e+003
1.152651e+003, 2.254353e+003
1.153133e+003, 2.257547e+003
1.153615e+003, 2.259563e+003
1.154097e+003, 2.260451e+003
1.154579e+003, 2.260263e+003
1.155061e+003, 2.260494e+003
1.155543e+003, 2.261977e+003
1.156025e+003, 2.264246e+003
1.156507e+003, 2.267457e+003
1.156990e+003, 2.271120e+003
1.157472e+003, 2.274283e+003
1.157954e+003, 2.276942e+003
1.158436e+003, 2.280299e+003
1.158918e+003, 2.284635e+003
1.159400e+003, 2.288395e+003
1.159882e+003, 2.289277e+003
1.160364e+003, 2.289999e+003
1.160847e+003, 2.293089e+003
1.161329e+003, 2.297992e+003
1.161811e+003, 2.301713e+003
1.162293e+003, 2.304208e+003
1.162775e+003, 2.305714e+003
1.163257e+003, 2.306245e+003
1.163739e+003, 2.305984e+003
1.164221e+003, 2.303749e+003
1.164703e+003, 2.301767e+003
1.165186e+003, 2.302849e+003
1.165668e+003, 2.307379e+003
1.166150e+003, 2.310415e+003
1.166632e+003, 2.311822e+003
1.167114e+003, 2.312319e+003
1.167596e+003, 2.311328e+003
1.168078e+003, 2.311370e+003
1.168560e+003, 2.317706e+003
1.169042e+003, 2.326136e+003
1.169525e+003, 2.330373e+003
1.170007e+003, 2.327535e+003
1.170489e+003, 2.328302e+003
1.170971e+003, 2.333391e+003
1.171453e+003, 2.339538e+003
1.171935e+003, 2.345822e+003
1.172417e+003, 2.351319e+003
1.172899e+003, 2.353774e+003
1.173382e+003, 2.354605e+003
1.173864e+003, 2.356355e+003
1.174346e+003, 2.359875e+003
1.174828e+003, 2.363999e+003
1.175310e+003, 2.369124e+003
1.175792e+003, 2.373624e+003
1.176274e+003, 2.376323e+003
1.176756e+003, 2.377654e+003
1.177239e+003, 2.378237e+003
1.177721e+003, 2.378277e+003
1.178203e+003, 2.378319e+003
1.178685e+003, 2.377848e+003
1.179167e+003, 2.378755e+003
1.179649e+003, 2.381657e+003
1.180131e+003, 2.385060e+003
1.180613e+003, 2.387534e+003
1.181095e+003, 2.389595e+003
1.181578e+003, 2.393019e+003
1.182060e+003, 2.397272e+003
1.182542e+003, 2.399689e+003
1.183024e+003, 2.396842e+003
1.183506e+003, 2.395588e+003
1.183988e+003, 2.396922e+003
1.184470e+003, 2.400019e+003
1.184952e+003, 2.404891e+003
1.185434e+003, 2.410497e+003
1.185917e+003, 2.413736e+003
1.186399e+003, 2.414709e+003
1.186881e+003, 2.416437e+003
1.187363e+003, 2.420962e+003
1.187845e+003, 2.425152e+003
1.188327e+003, 2.427923e+003
1.188809e+003, 2.430511e+003
1.189291e+003, 2.435786e+003
1.189774e+003, 2.442357e+003
1.190256e+003, 2.445642e+003
1.190738e+003, 2.445169e+003
1.191220e+003, 2.444828e+003
1.191702e+003, 2.446042e+003
1.192184e+003, 2.448198e+003
1.192666e+003, 2.451690e+003
1.193148e+003, 2.455351e+003
1.193630e+003, 2.455867e+003
1.194113e+003, 2.454589e+003
1.194595e+003, 2.456430e+003
1.195077e+003, 2.462510e+003
1.195559e+003, 2.468420e+003
1.196041e+003, 2.471996e+003
1.196523e+003, 2.475094e+003
1.197005e+003, 2.478402e+003
1.197487e+003, 2.481742e+003
1.197969e+003, 2.485151e+003
1.198452e+003, 2.488171e+003
1.198934e+003, 2.488721e+003
1.199416e+003, 2.485582e+003
1.199898e+003, 2.483645e+003
1.200380e+003, 2.485652e+003
1.200862e+003, 2.488924e+003
1.201344e+003, 2.492432e+003
1.201826e+003, 2.496034e+003
1.202309e+003, 2.499336e+003
1.202791e+003, 2.502263e+003
1.203273e+003, 2.504360e+003
1.203755e+003, 2.505413e+003
1.204237e+003, 2.506065e+003
1.204719e+003, 2.505691e+003
1.205201e+003, 2.506111e+003
1.205683e+003, 2.508833e+003
1.206166e+003, 2.513125e+003
1.206648e+003, 2.514923e+003
1.207130e+003, 2.515097e+003
1.207612e+003, 2.517613e+003
1.208094e+003, 2.525542e+003
1.208576e+003, 2.532380e+003
1.209058e+003, 2.534449e+003
1.209540e+003, 2.535220e+003
1.210022e+003, 2.536651e+003
1.210505e+003, 2.538614e+003
1.210987e+003, 2.539923e+003
1.211469e+003, 2.540917e+003
1.211951e+003, 2.543229e+003
1.212433e+003, 2.548502e+003
1.212915e+003, 2.553732e+003
1.213397e+003, 2.558204e+003
1.213879e+003, 2.561686e+003
1.214361e+003, 2.563345e+003
1.214844e+003, 2.563588e+003
1.215326e+003, 2.565655e+003
1.215808e+003, 2.569299e+003
1.216290e+003, 2.573337e+003
1.216772e+003, 2.578294e+003
1.217254e+003, 2.582024e+003
1.217736e+003, 2.582848e+003
1.218218e+003, 2.583273e+003
1.218701e+003, 2.585938e+003
1.219183e+003, 2.590242e+003
1.219665e+003, 2.591747e+003
1.220147e+003, 2.590924e+003
1.220629e+003, 2.590640e+003
1.221111e+003, 2.592981e+003
1.221593e+003, 2.595211e+003
1.222075e+003, 2.596376e+003
1.222557e+003, 2.597433e+003
1.223040e+003, 2.599872e+003
1.223522e+003, 2.603137e+003
1.224004e+003, 2.603522e+003
1.224486e+003, 2.601599e+003
1.224968e+003, 2.601194e+003
1.225450e+003, 2.606052e+003
1.225932e+003, 2.610090e+003
1.226414e+003, 2.611316e+003
1.226896e+003, 2.611896e+003
1.227379e+003, 2.614694e+003
1.227861e+003, 2.618889e+003
1.228343e+003, 2.621357e+003
1.228825e+003, 2.622225e+003
1.229307e+003, 2.623541e+003
1.229789e+003, 2.626709e+003
1.230271e+003, 2.629788e+003
1.230753e+003, 2.632496e+003
1.231236e+003, 2.634729e+003
1.231718e+003, 2.636148e+003
1.232200e+003, 2.637011e+003
1.232682e+003, 2.637724e+003
1.233164e+003, 2.638441e+003
1.233646e+003, 2.639948e+003
1.234128e+003, 2.642036e+003
1.234610e+003, 2.646144e+003
1.235093e+003, 2.653443e+003
1.235575e+003, 2.661115e+003
1.236057e+003, 2.664773e+003
1.236539e+003, 2.666006e+003
1.237021e+003, 2.668238e+003
1.237503e+003, 2.671640e+003
1.237985e+003, 2.675110e+003
1.238467e+003, 2.678864e+003
1.238949e+003, 2.681442e+003
1.239432e+003, 2.682029e+003
1.239914e+003, 2.682560e+003
1.240396e+003, 2.686491e+003
1.240878e+003, 2.691897e+003
1.241360e+003, 2.694675e+003
1.241842e+003, 2.694751e+003
1.242324e+003, 2.696317e+003
1.242806e+003, 2.701444e+003
1.243288e+003, 2.705427e+003
1.243771e+003, 2.707193e+003
1.244253e+003, 2.708094e+003
1.244735e+003, 2.709446e+003
1.245217e+003, 2.711380e+003
1.245699e+003, 2.714133e+003
1.246181e+003, 2.717714e+003
1.246663e+003, 2.722070e+003
1.247145e+003, 2.728209e+003
1.247628e+003, 2.731889e+003
1.248110e+003, 2.731608e+003
1.248592e+003, 2.730807e+003
1.249074e+003, 2.734816e+003
1.249556e+003, 2.740126e+003
1.250038e+003, 2.742149e+003
1.250520e+003, 2.740710e+003
1.251002e+003, 2.741108e+003
1.251484e+003, 2.744107e+003
1.251967e+003, 2.746130e+003
1.252449e+003, 2.746005e+003
1.252931e+003, 2.746237e+003
1.253413e+003, 2.750656e+003
1.253895e+003, 2.756041e+003
1.254377e+003, 2.758446e+003
1.254859e+003, 2.758070e+003
1.255341e+003, 2.760465e+003
1.255823e+003, 2.765976e+003
1.256306e+003, 2.771368e+003
1.256788e+003, 2.776050e+003
1.257270e+003, 2.779277e+003
1.257752e+003, 2.779104e+003
1.258234e+003, 2.778134e+003
1.258716e+003, 2.778525e+003
1.259198e+003, 2.780157e+003
1.259680e+003, 2.782282e+003
1.260163e+003, 2.784922e+003
1.260645e+003, 2.787857e+003
1.261127e+003, 2.791269e+003
1.261609e+003, 2.793802e+003
1.262091e+003, 2.794746e+003
1.262573e+003, 2.794030e+003
1.263055e+003, 2.789924e+003
1.263537e+003, 2.784631e+003
1.264020e+003, 2.787467e+003
1.264502e+003, 2.797188e+003
1.264984e+003, 2.803870e+003
1.265466e+003, 2.804792e+003
1.265948e+003, 2.805736e+003
1.266430e+003, 2.811658e+003
1.266912e+003, 2.816621e+003
1.267394e+003, 2.817219e+003
1.267876e+003, 2.815142e+003
1.268359e+003, 2.815218e+003
1.268841e+003, 2.816765e+003
1.269323e+003, 2.816802e+003
1.269805e+003, 2.814277e+003
1.270287e+003, 2.813803e+003
1.270769e+003, 2.819701e+003
1.271251e+003, 2.825108e+003
1.271733e+003, 2.827721e+003
1.272215e+003, 2.828631e+003
1.272698e+003, 2.829753e+003
1.273180e+003, 2.831141e+003
1.273662e+003, 2.833214e+003
1.274144e+003, 2.836325e+003
1.274626e+003, 2.837651e+003
1.275108e+003, 2.834948e+003
1.275590e+003, 2.834425e+003
1.276072e+003, 2.838527e+003
1.276555e+003, 2.844941e+003
1.277037e+003, 2.851229e+003
1.277519e+003, 2.856473e+003
1.278001e+003, 2.858439e+003
1.278483e+003, 2.856347e+003
1.278965e+003, 2.857509e+003
1.279447e+003, 2.863005e+003
1.279929e+003, 2.868844e+003
1.280411e+003, 2.874169e+003
1.280894e+003, 2.877966e+003
1.281376e+003, 2.877032e+003
1.281858e+003, 2.875187e+003
1.282340e+003, 2.877498e+003
1.282822e+003, 2.884127e+003
1.283304e+003, 2.888316e+003
1.283786e+003, 2.890000e+003
1.284268e+003, 2.889800e+003
1.284750e+003, 2.887494e+003
1.285233e+003, 2.885211e+003
1.285715e+003, 2.884041e+003
1.286197e+003, 2.884611e+003
1.286679e+003, 2.888835e+003
1.287161e+003, 2.895314e+003
1.287643e+003, 2.897598e+003
1.288125e+003, 2.896054e+003
1.288607e+003, 2.894849e+003
1.289090e+003, 2.894880e+003
1.289572e+003, 2.896158e+003
1.290054e+003, 2.899356e+003
1.290536e+003, 2.903260e+003
1.291018e+003, 2.907384e+003
1.291500e+003, 2.911504e+003
1.291982e+003, 2.915260e+003
1.292464e+003, 2.918478e+003
1.292947e+003, 2.920323e+003
1.293429e+003, 2.920422e+003
1.293911e+003, 2.921149e+003
1.294393e+003, 2.922535e+003
1.294875e+003, 2.926203e+003
1.295357e+003, 2.933560e+003
1.295839e+003, 2.941798e+003
1.296321e+003, 2.946003e+003
1.296803e+003, 2.947688e+003
1.297286e+003, 2.949148e+003
1.297768e+003, 2.950651e+003
1.298250e+003, 2.952786e+003
1.298732e+003, 2.955869e+003
1.299214e+003, 2.958792e+003
1.299696e+003, 2.961586e+003
1.300178e+003, 2.963724e+003
1.300660e+003, 2.965712e+003
##END=



