##NAMES=Calcioburbankite
##RRUFFID=R140485
##IDEAL CHEMISTRY=Na_3_(Ca,Ce^3+^,Sr,La)_3_(CO_3_)_5_
##LOCALITY=Eboundja, Kribi, South Region, Cameroon
##OWNER=RRUFF
##SOURCE=Rock Currier
##DESCRIPTION=Pink massive
##STATUS=The identification of this mineral is confirmed by single-crystal X-ray diffraction and chemical analysis.
##URL=rruff.info/R140485
##MEASURED CHEMISTRY=(Na_2.89_K_0.02_)(Ca_1.14_Ce_0.61_La_0.39_Sr_0.23_Nd_0.15_Pr_0.06_)(CO_3_)_5_ ; The dark mineral is analcime.
88.13672, 0.0000000E+00
88.61884, 0.7937770
89.10095, 0.3966980
89.58307, 1.095306
90.06519, 2.328201
90.54730, 3.471161
91.02942, 4.769257
91.51154, 5.832092
91.99365, 7.230499
92.47577, 8.874908
92.95789, 10.19676
93.44000, 10.31110
93.92212, 8.684341
94.40424, 6.511703
94.88635, 5.185684
95.36847, 4.936737
95.85059, 4.180450
96.33270, 3.634186
96.81482, 2.908386
97.29694, 1.891403
97.77905, 0.8122100
98.26117, 8.6852998E-02
98.74329, 0.2491300
99.22540, 0.2707210
99.70752, 3.6224000E-02
100.1896, 0.7727360
100.6718, 1.304474
101.1539, 1.021576
101.6360, 0.3329160
102.1181, 1.207321
102.6002, 1.278259
103.0823, 0.6809540
103.5645, 0.4537810
104.0466, 0.8543090
104.5287, 1.237366
105.0108, 1.055817
105.4929, 0.3126370
105.9750, 0.9803770
106.4572, 3.015793
106.9393, 5.937164
107.4214, 8.391235
107.9035, 10.55148
108.3856, 12.23444
108.8677, 13.17444
109.3499, 12.62430
109.8320, 12.13888
110.3141, 12.01640
110.7962, 12.33327
111.2783, 12.88478
111.7604, 13.59247
112.2426, 14.56314
112.7247, 15.91853
113.2068, 18.19360
113.6889, 20.46404
114.1710, 22.24309
114.6531, 23.02251
115.1353, 24.17316
115.6174, 26.57983
116.0995, 29.70944
116.5816, 32.25754
117.0637, 33.12433
117.5458, 33.56375
118.0280, 34.46503
118.5101, 36.25110
118.9922, 38.25363
119.4743, 40.14651
119.9564, 41.95355
120.4385, 43.71875
120.9207, 45.30341
121.4028, 46.90829
121.8849, 48.75314
122.3670, 51.15189
122.8491, 53.69107
123.3312, 56.04605
123.8134, 58.22086
124.2955, 60.11292
124.7776, 61.38232
125.2597, 62.29132
125.7418, 63.37683
126.2239, 64.94016
126.7061, 66.81079
127.1882, 68.54147
127.6703, 70.12451
128.1524, 71.90848
128.6345, 74.30936
129.1166, 77.26144
129.5988, 80.45532
130.0809, 83.97650
130.5630, 87.66183
131.0451, 91.00320
131.5272, 93.96100
132.0093, 96.51379
132.4915, 98.47299
132.9736, 99.83783
133.4557, 101.3053
133.9378, 103.3202
134.4199, 105.8455
134.9020, 108.0666
135.3842, 109.7577
135.8663, 111.2955
136.3484, 113.7838
136.8305, 117.3934
137.3126, 121.0863
137.7947, 124.0973
138.2769, 126.3086
138.7590, 128.7141
139.2411, 131.5638
139.7232, 134.6235
140.2053, 136.7110
140.6874, 137.6534
141.1696, 138.0872
141.6517, 138.3933
142.1338, 138.5548
142.6159, 138.7325
143.0980, 138.9407
143.5801, 139.2068
144.0623, 139.7372
144.5444, 140.7450
145.0265, 141.8313
145.5086, 142.6686
145.9907, 143.0627
146.4728, 143.1389
146.9550, 142.7404
147.4371, 141.8239
147.9192, 141.3280
148.4013, 141.5415
148.8834, 141.9916
149.3655, 142.2605
149.8477, 142.0483
150.3298, 141.9419
150.8119, 142.1895
151.2940, 142.9529
151.7761, 143.0906
152.2583, 141.8322
152.7404, 140.1798
153.2225, 139.1885
153.7046, 139.8047
154.1867, 140.3008
154.6688, 140.2306
155.1510, 139.5073
155.6331, 138.5255
156.1152, 137.3159
156.5973, 135.9228
157.0794, 134.4010
157.5615, 132.6440
158.0437, 130.8981
158.5258, 129.2511
159.0079, 127.7536
159.4900, 126.1940
159.9721, 124.3754
160.4542, 122.4963
160.9364, 120.8703
161.4185, 119.5433
161.9006, 118.4683
162.3827, 117.7601
162.8648, 117.7897
163.3469, 117.3949
163.8291, 115.6733
164.3112, 113.0789
164.7933, 110.6736
165.2754, 109.3228
165.7575, 108.1319
166.2396, 106.3540
166.7218, 103.5257
167.2039, 100.7059
167.6860, 98.77365
168.1681, 97.45709
168.6502, 95.85596
169.1323, 93.09183
169.6145, 89.97052
170.0966, 87.32013
170.5787, 85.48129
171.0608, 83.93835
171.5429, 82.33627
172.0250, 80.67328
172.5072, 78.99423
172.9893, 77.26218
173.4714, 75.52225
173.9535, 73.85757
174.4356, 72.38010
174.9177, 70.86096
175.3999, 69.04456
175.8820, 66.93369
176.3641, 64.67380
176.8462, 62.13693
177.3283, 59.52637
177.8104, 57.20596
178.2926, 55.24286
178.7747, 53.68253
179.2568, 52.89380
179.7389, 52.83377
180.2210, 52.59274
180.7031, 51.12769
181.1853, 48.84503
181.6674, 46.79843
182.1495, 45.28516
182.6316, 44.22217
183.1137, 43.74673
183.5958, 43.87497
184.0780, 43.72986
184.5601, 42.23972
185.0422, 39.69095
185.5243, 37.23151
186.0064, 35.09338
186.4885, 33.33984
186.9707, 32.26529
187.4528, 31.88586
187.9349, 31.80670
188.4170, 31.98178
188.8991, 32.31763
189.3812, 31.97263
189.8634, 30.33878
190.3455, 27.83612
190.8276, 25.92859
191.3097, 24.59592
191.7918, 23.92172
192.2739, 24.32639
192.7561, 25.79266
193.2382, 26.92508
193.7203, 27.13379
194.2024, 26.59439
194.6845, 26.34964
195.1666, 26.43652
195.6488, 26.56897
196.1309, 26.36301
196.6130, 25.79608
197.0951, 25.34018
197.5772, 25.13516
198.0593, 25.16940
198.5415, 25.46683
199.0236, 26.16843
199.5057, 26.79230
199.9878, 26.53528
200.4699, 25.27249
200.9520, 24.19525
201.4342, 23.80942
201.9163, 24.10333
202.3984, 24.09119
202.8805, 23.62360
203.3626, 23.18408
203.8447, 23.60260
204.3269, 25.12939
204.8090, 26.29269
205.2911, 26.29736
205.7732, 25.08783
206.2553, 25.26215
206.7374, 27.45419
207.2196, 30.01343
207.7017, 30.30115
208.1838, 27.49057
208.6659, 25.18018
209.1480, 24.71970
209.6301, 26.25647
210.1123, 27.56747
210.5944, 28.70035
211.0765, 29.53506
211.5586, 29.84073
212.0407, 29.40891
212.5228, 29.06897
213.0050, 29.11087
213.4871, 29.57208
213.9692, 29.86993
214.4513, 30.04144
214.9334, 30.03613
215.4155, 29.75540
215.8977, 29.09973
216.3798, 28.42252
216.8619, 27.89258
217.3440, 27.57532
217.8261, 26.85941
218.3082, 25.51163
218.7904, 24.01706
219.2725, 23.12350
219.7546, 23.16647
220.2367, 23.09946
220.7188, 22.53091
221.2009, 21.32739
221.6831, 20.59933
222.1652, 20.50595
222.6473, 20.75058
223.1294, 20.89001
223.6115, 20.73300
224.0936, 20.88626
224.5758, 21.70361
225.0579, 23.38208
225.5400, 24.22971
226.0221, 23.86349
226.5042, 23.00546
226.9863, 22.62820
227.4685, 23.04999
227.9506, 23.33902
228.4327, 23.26904
228.9148, 22.81943
229.3969, 22.06506
229.8790, 20.78540
230.3612, 19.37271
230.8433, 18.35535
231.3254, 18.04639
231.8075, 17.51852
232.2896, 16.44446
232.7717, 14.73450
233.2539, 13.36633
233.7360, 12.54221
234.2181, 11.91428
234.7002, 11.02829
235.1823, 9.511536
235.6644, 8.464966
236.1466, 8.373352
236.6287, 9.389923
237.1108, 9.602539
237.5929, 8.858093
238.0750, 7.473083
238.5571, 5.600006
239.0393, 2.413574
239.5214, 0.3268430
240.0035, 0.2231140
240.4856, 2.261871
240.9677, 3.197632
241.4498, 2.550873
241.9320, 1.251770
242.4141, 0.1244200
242.8962, 0.8966060
243.3783, 1.669220
243.8604, 2.295013
244.3425, 2.783417
244.8247, 2.384979
245.3068, 0.4600830
245.7889, 1.647491
246.2710, 2.705627
246.7531, 1.944824
247.2352, 1.684784
247.7174, 2.656494
248.1995, 4.733643
248.6816, 5.435516
249.1637, 4.102600
249.6458, 2.194458
250.1279, 0.9197690
250.6101, 0.6925960
251.0922, 0.1932370
251.5743, 0.9526670
252.0564, 2.589783
252.5385, 3.396790
253.0206, 2.998413
253.5028, 2.259460
253.9849, 1.812347
254.4670, 1.872223
254.9491, 1.735931
255.4312, 1.419464
255.9133, 0.8818050
256.3955, 0.3081360
256.8776, 2.821716
257.3597, 4.924683
257.8418, 5.313477
258.3239, 3.034973
258.8061, 1.593445
259.2882, 1.433472
259.7703, 2.245026
260.2524, 2.959869
260.7345, 3.758362
261.2166, 4.156555
261.6988, 3.755096
262.1809, 2.216827
262.6630, 1.105438
263.1451, 0.6563110
263.6272, 0.6286620
264.1093, 0.2974550
264.5915, 0.6051330
265.0736, 1.190338
265.5557, 0.8041080
266.0378, 1.038147
266.5199, 1.803711
267.0020, 1.048920
267.4842, 0.4749760
267.9663, 1.093750
268.4484, 0.4924320
268.9305, 8.9996003E-02
269.4126, 1.9774999E-02
269.8947, 1.065552
270.3769, 1.410675
270.8590, 0.9455570
271.3411, 4.3915000E-02
271.8232, 1.184784
272.3053, 2.554688
272.7874, 3.728821
273.2696, 4.596558
273.7517, 5.153229
274.2338, 5.065826
274.7159, 4.012909
275.1980, 2.908813
275.6801, 3.207153
276.1623, 5.154663
276.6444, 7.038055
277.1265, 8.283905
277.6086, 8.950653
278.0907, 9.822845
278.5728, 11.01797
279.0550, 12.16064
279.5371, 12.52017
280.0192, 11.98196
280.5013, 12.33350
280.9834, 14.49814
281.4655, 17.96957
281.9477, 19.97452
282.4298, 20.32855
282.9119, 20.09872
283.3940, 20.15720
283.8761, 20.48132
284.3582, 20.90222
284.8404, 21.36874
285.3225, 21.88156
285.8046, 22.31912
286.2867, 22.67160
286.7688, 23.31146
287.2509, 24.73807
287.7331, 26.82870
288.2152, 28.63330
288.6973, 30.00296
289.1794, 30.95065
289.6615, 31.34454
290.1436, 31.19714
290.6258, 31.02344
291.1079, 31.28397
291.5900, 31.84250
292.0721, 32.06760
292.5542, 31.84998
293.0363, 31.39832
293.5185, 31.01898
294.0006, 30.66696
294.4827, 30.20181
294.9648, 29.60974
295.4469, 28.87354
295.9290, 27.83521
296.4112, 26.44135
296.8933, 24.97314
297.3754, 23.70834
297.8575, 22.65384
298.3396, 21.79779
298.8217, 20.95654
299.3039, 20.41702
299.7860, 21.02548
300.2681, 22.88980
300.7502, 24.66605
301.2323, 24.85715
301.7144, 23.91278
302.1966, 22.96585
302.6787, 22.61282
303.1608, 22.47244
303.6429, 21.83032
304.1250, 20.73264
304.6071, 19.89874
305.0893, 19.98584
305.5714, 20.69852
306.0535, 21.60458
306.5356, 22.66495
307.0177, 23.74237
307.4998, 24.83801
307.9820, 25.90076
308.4641, 26.62726
308.9462, 26.55594
309.4283, 26.16141
309.9104, 25.97305
310.3925, 26.19119
310.8747, 26.55170
311.3568, 26.97052
311.8389, 27.40616
312.3210, 27.74182
312.8031, 27.65042
313.2852, 27.60678
313.7674, 28.07358
314.2495, 29.34537
314.7316, 30.45276
315.2137, 30.75616
315.6958, 30.58133
316.1779, 30.48083
316.6601, 30.97928
317.1422, 31.41443
317.6243, 31.27750
318.1064, 30.35657
318.5885, 29.84464
319.0706, 30.69998
319.5528, 32.04037
320.0349, 32.86783
320.5170, 32.64697
320.9991, 32.09024
321.4812, 31.28064
321.9633, 30.22437
322.4455, 29.31442
322.9276, 28.67484
323.4097, 28.16379
323.8918, 27.67365
324.3739, 27.72443
324.8560, 27.20367
325.3382, 25.60272
325.8203, 23.10144
326.3024, 21.02112
326.7845, 19.30243
327.2666, 18.08069
327.7487, 17.43729
328.2309, 18.46152
328.7130, 18.63263
329.1951, 17.32852
329.6772, 15.17004
330.1593, 13.80518
330.6414, 14.19577
331.1236, 14.31607
331.6057, 13.38968
332.0878, 10.96735
332.5699, 8.832062
333.0520, 6.936127
333.5341, 5.375427
334.0163, 4.381683
334.4984, 4.315338
334.9805, 4.169373
335.4626, 3.612152
335.9447, 2.616180
336.4268, 1.981750
336.9090, 1.831238
337.3911, 1.802643
337.8732, 1.587097
338.3553, 1.179718
338.8374, 0.6372380
339.3195, 0.1175540
339.8017, 0.9993290
340.2838, 1.702911
340.7659, 2.274414
341.2480, 2.540741
341.7301, 2.212769
342.2122, 1.259674
342.6944, 0.7330930
343.1765, 0.7988590
343.6586, 1.253204
344.1407, 1.814575
344.6228, 2.487762
345.1049, 2.880890
345.5871, 2.567200
346.0692, 1.700195
346.5513, 1.169037
347.0334, 1.030914
347.5155, 1.093109
347.9977, 1.112762
348.4798, 1.108582
348.9619, 1.169220
349.4440, 1.411743
349.9261, 1.711548
350.4082, 1.929840
350.8904, 2.069885
351.3725, 1.836273
351.8546, 0.5495910
352.3367, 1.265503
352.8188, 2.489502
353.3009, 2.574310
353.7831, 2.209961
354.2652, 2.005432
354.7473, 1.965302
355.2294, 2.122131
355.7115, 2.980408
356.1936, 3.835663
356.6758, 3.769409
357.1579, 2.280304
357.6400, 0.8423460
358.1221, 0.4754030
358.6042, 0.9130550
359.0863, 1.599365
359.5685, 2.719208
360.0506, 3.707764
360.5327, 4.123718
361.0148, 3.874298
361.4969, 3.643829
361.9790, 3.694672
362.4612, 3.917023
362.9433, 4.188660
363.4254, 4.381165
363.9075, 4.700195
364.3896, 5.250702
364.8717, 6.011719
365.3539, 6.762238
365.8360, 7.594421
366.3181, 8.289520
366.8002, 8.719604
367.2823, 8.464539
367.7644, 8.444946
368.2466, 8.923523
368.7287, 9.692505
369.2108, 10.17023
369.6929, 10.14938
370.1750, 10.06616
370.6571, 10.05634
371.1393, 10.12592
371.6214, 10.22006
372.1035, 10.21646
372.5856, 10.33807
373.0677, 11.00482
373.5498, 12.80777
374.0320, 13.86063
374.5141, 13.34671
374.9962, 11.43692
375.4783, 11.02029
375.9604, 12.75925
376.4425, 14.57303
376.9247, 14.46863
377.4068, 12.09879
377.8889, 10.55789
378.3710, 10.40622
378.8531, 11.16400
379.3352, 11.63828
379.8174, 11.77823
380.2995, 12.16672
380.7816, 13.38190
381.2637, 15.24832
381.7458, 16.54858
382.2279, 17.21158
382.7101, 17.38696
383.1922, 16.98419
383.6743, 16.15414
384.1564, 15.66782
384.6385, 16.08133
385.1206, 16.89392
385.6028, 17.09769
386.0849, 16.73297
386.5670, 16.47815
387.0491, 17.08871
387.5312, 18.11096
388.0133, 18.79459
388.4955, 18.86493
388.9776, 18.73709
389.4597, 18.60840
389.9418, 18.55624
390.4239, 18.78506
390.9060, 19.89072
391.3882, 21.01630
391.8703, 21.44147
392.3524, 20.99677
392.8345, 20.35883
393.3166, 19.30798
393.7987, 18.39294
394.2809, 18.32080
394.7630, 20.38370
395.2451, 22.27560
395.7272, 23.14062
396.2093, 22.99789
396.6914, 22.77600
397.1736, 22.60889
397.6557, 22.40808
398.1378, 22.13611
398.6199, 21.53027
399.1020, 21.21078
399.5841, 21.52527
400.0663, 22.18945
400.5484, 22.40875
401.0305, 21.88947
401.5126, 21.19916
401.9947, 20.48831
402.4768, 19.74118
402.9590, 19.00229
403.4411, 18.17917
403.9232, 17.59207
404.4053, 17.59052
404.8874, 18.28900
405.3695, 19.12955
405.8517, 20.14505
406.3338, 21.20563
406.8159, 21.72217
407.2980, 21.61603
407.7801, 21.29697
408.2622, 21.01868
408.7444, 20.78156
409.2265, 20.52707
409.7086, 20.29181
410.1907, 20.18121
410.6728, 20.44476
411.1549, 20.94666
411.6371, 21.09009
412.1192, 20.26993
412.6013, 18.99005
413.0834, 18.21289
413.5655, 17.96878
414.0476, 18.11685
414.5298, 19.03574
415.0119, 20.07153
415.4940, 20.17554
415.9761, 18.67026
416.4582, 16.90729
416.9403, 15.99615
417.4225, 15.75281
417.9046, 15.60480
418.3867, 15.23413
418.8688, 14.82260
419.3509, 14.53629
419.8330, 14.44077
420.3152, 14.31821
420.7973, 14.20367
421.2794, 13.97626
421.7615, 13.50290
422.2436, 12.33295
422.7257, 11.37311
423.2079, 10.82663
423.6900, 10.69412
424.1721, 10.81384
424.6542, 11.42798
425.1363, 12.06958
425.6184, 12.55438
426.1006, 13.01019
426.5827, 13.03265
427.0648, 12.26086
427.5469, 11.20636
428.0290, 10.86526
428.5111, 11.57816
428.9933, 12.26651
429.4754, 12.70840
429.9575, 12.88885
430.4396, 12.29709
430.9217, 10.62006
431.4038, 9.134216
431.8860, 9.251587
432.3681, 10.97418
432.8502, 12.08646
433.3323, 12.15192
433.8144, 11.70731
434.2965, 11.79608
434.7787, 12.33850
435.2608, 12.62616
435.7429, 12.08566
436.2250, 11.08707
436.7071, 10.45505
437.1892, 10.23099
437.6714, 10.08566
438.1535, 9.627838
438.6356, 9.074890
439.1177, 8.789185
439.5998, 8.934326
440.0819, 9.310760
440.5641, 9.918365
441.0462, 10.65982
441.5283, 11.19562
442.0104, 11.48444
442.4925, 11.44522
442.9746, 10.82800
443.4568, 9.312683
443.9389, 8.302094
444.4210, 8.713440
444.9031, 9.721832
445.3852, 10.33371
445.8673, 9.949066
446.3495, 9.546906
446.8316, 8.816772
447.3137, 7.898987
447.7958, 8.796661
448.2779, 14.29993
448.7600, 18.76581
449.2422, 19.03311
449.7243, 12.44974
450.2064, 7.949860
450.6885, 5.995331
451.1706, 5.616089
451.6527, 5.402374
452.1349, 5.453339
452.6170, 5.318878
453.0991, 4.734100
453.5812, 3.837494
454.0633, 3.513458
454.5454, 3.809204
455.0276, 4.272156
455.5097, 4.419647
455.9918, 4.384003
456.4739, 4.932159
456.9560, 6.397675
457.4381, 7.805725
457.9203, 7.527313
458.4024, 6.030243
458.8845, 4.812317
459.3666, 4.626770
459.8488, 5.074554
460.3309, 6.051758
460.8130, 7.473572
461.2951, 8.381500
461.7772, 7.648132
462.2593, 6.331604
462.7415, 5.455963
463.2236, 5.423523
463.7057, 5.580719
464.1878, 5.698456
464.6699, 5.812225
465.1520, 6.012177
465.6342, 6.532013
466.1163, 6.960358
466.5984, 7.242554
467.0805, 7.393951
467.5626, 7.087769
468.0447, 5.717682
468.5269, 4.392334
469.0090, 3.910919
469.4911, 4.826660
469.9732, 5.399353
470.4553, 5.384552
470.9374, 5.066254
471.4196, 5.208221
471.9017, 6.036804
472.3838, 6.431305
472.8659, 5.753998
473.3480, 4.152649
473.8301, 3.230469
474.3123, 3.049042
474.7944, 3.085266
475.2765, 2.863220
475.7586, 2.457336
476.2407, 2.159821
476.7228, 2.041718
477.2050, 2.029816
477.6871, 1.884521
478.1692, 1.707703
478.6513, 1.863708
479.1334, 2.806580
479.6155, 4.008209
480.0977, 5.136780
480.5798, 6.159943
481.0619, 6.605988
481.5440, 5.749664
482.0261, 4.421021
482.5082, 3.345764
482.9904, 2.673096
483.4725, 2.299347
483.9546, 2.286682
484.4367, 2.555786
484.9188, 2.947937
485.4009, 3.976990
485.8831, 4.520172
486.3652, 4.007538
486.8473, 2.322144
487.3294, 1.630829
487.8115, 2.598053
488.2936, 3.820190
488.7758, 4.223206
489.2579, 3.492065
489.7400, 2.814972
490.2221, 2.241119
490.7042, 1.889252
491.1863, 1.883209
491.6685, 2.072388
492.1506, 2.518768
492.6327, 3.512512
493.1148, 4.846222
493.5969, 5.596619
494.0790, 5.771637
494.5612, 5.573669
495.0433, 4.973022
495.5254, 4.155457
496.0075, 3.458923
496.4896, 2.954163
496.9717, 2.560883
497.4539, 2.009521
497.9360, 1.601196
498.4181, 1.811066
498.9002, 3.579620
499.3823, 5.192535
499.8644, 5.541840
500.3466, 4.772064
500.8287, 4.442993
501.3108, 5.544952
501.7929, 6.859589
502.2750, 7.729919
502.7571, 8.217102
503.2393, 8.011749
503.7214, 6.517517
504.2035, 4.641357
504.6856, 3.595947
505.1677, 3.825073
505.6498, 3.983429
506.1320, 3.720367
506.6141, 3.180145
507.0962, 3.272217
507.5783, 4.178741
508.0604, 4.902344
508.5425, 4.624725
509.0247, 3.486572
509.5068, 2.979279
509.9889, 3.268982
510.4710, 3.601746
510.9531, 2.796112
511.4352, 1.290161
511.9174, 0.4649050
512.3995, 1.143738
512.8816, 2.148102
513.3637, 2.045013
513.8458, 1.168610
514.3279, 0.6018070
514.8101, 1.465485
515.2922, 2.459351
515.7743, 2.559174
516.2564, 1.593781
516.7385, 0.7086790
517.2206, 0.1495360
517.7028, 6.0242001E-02
518.1849, 9.8907001E-02
518.6670, 1.040833
519.1491, 1.840759
519.6312, 2.598907
520.1133, 3.138092
520.5955, 2.980011
521.0776, 1.401031
521.5597, 0.5018310
522.0418, 1.244049
522.5239, 3.510345
523.0060, 4.382019
523.4882, 3.526276
523.9703, 2.478760
524.4524, 2.730896
524.9345, 4.095764
525.4166, 4.437714
525.8987, 3.289948
526.3809, 1.945831
526.8630, 2.651245
527.3451, 4.654785
527.8272, 5.514465
528.3093, 3.151794
528.7914, 0.1737060
529.2736, 0.4928890
529.7557, 0.7098390
530.2378, 1.789093
530.7199, 1.382294
531.2020, 0.7123110
531.6841, 0.7721250
532.1663, 1.940247
532.6484, 2.648926
533.1305, 2.137695
533.6126, 1.164642
534.0947, 0.4406430
534.5768, 0.3441160
535.0590, 0.3714600
535.5411, 0.6183170
536.0232, 2.357605
536.5053, 4.300964
536.9874, 6.907074
537.4695, 8.455658
537.9517, 7.939667
538.4338, 5.540009
538.9159, 3.868164
539.3980, 2.980743
539.8801, 2.475128
540.3622, 2.240997
540.8444, 2.156616
541.3265, 1.614136
541.8086, 0.4091190
542.2907, 0.7633970
542.7728, 1.019287
543.2549, 0.6414490
543.7371, 0.2524720
544.2192, 2.5940000E-03
544.7013, 6.7566000E-02
545.1834, 0.3223270
545.6655, 0.9716190
546.1476, 1.111938
546.6298, 0.6853030
547.1119, 2.175323
547.5940, 1.817261
548.0761, 1.297943
548.5582, 3.134094
549.0403, 2.514679
549.5225, 1.108063
550.0046, 0.2784730
550.4867, 0.4392400
550.9688, 0.2312620
551.4509, 0.6485600
551.9330, 1.803680
552.4152, 2.360229
552.8973, 2.278503
553.3794, 1.901825
553.8615, 1.295105
554.3436, 0.5065310
554.8257, 0.5253910
555.3079, 1.776794
555.7900, 2.482422
556.2721, 1.638855
556.7542, 1.4465000E-02
557.2363, 1.357788
557.7184, 2.277039
558.2006, 2.684662
558.6827, 2.135681
559.1648, 1.170258
559.6469, 0.4611510
560.1290, 0.3494870
560.6111, 0.4011230
561.0933, 0.3869020
561.5754, 0.4263920
562.0575, 0.8363040
562.5396, 2.646942
563.0217, 3.785950
563.5038, 3.391541
563.9860, 1.375244
564.4681, 0.2909550
564.9502, 0.3916320
565.4323, 0.9415890
565.9144, 1.547028
566.3965, 2.242767
566.8787, 2.516266
567.3608, 2.274963
567.8429, 1.797119
568.3250, 1.373230
568.8071, 1.008423
569.2892, 0.7606510
569.7714, 0.6803890
570.2535, 0.7010190
570.7356, 0.7006840
571.2177, 0.7089840
571.6998, 0.8182070
572.1819, 1.159241
572.6641, 1.581299
573.1462, 2.049896
573.6283, 2.562317
574.1104, 2.829010
574.5925, 2.553833
575.0746, 2.162354
575.5568, 1.951874
576.0389, 2.145325
576.5210, 2.143738
577.0031, 1.821320
577.4852, 1.400696
577.9673, 1.155731
578.4495, 1.081543
578.9316, 1.245270
579.4137, 1.765289
579.8958, 2.468781
580.3779, 2.985809
580.8600, 3.305206
581.3422, 3.298218
581.8243, 2.535187
582.3064, 1.491394
582.7885, 1.237366
583.2706, 1.757660
583.7527, 2.467590
584.2349, 3.140442
584.7170, 3.691467
585.1991, 3.967773
585.6812, 3.826721
586.1633, 3.747803
586.6454, 4.056885
587.1276, 4.489777
587.6097, 4.733521
588.0918, 4.716492
588.5739, 4.528625
589.0560, 3.971619
589.5381, 3.231415
590.0203, 3.047058
590.5024, 3.838409
590.9845, 4.256195
591.4666, 3.607971
591.9487, 2.079712
592.4308, 1.433319
592.9130, 1.776581
593.3951, 2.208008
593.8772, 1.769257
594.3593, 0.8541560
594.8414, 0.7147220
595.3235, 1.567169
595.8057, 2.554840
596.2878, 2.880981
596.7699, 2.782013
597.2520, 2.682312
597.7341, 2.693115
598.2162, 2.774933
598.6984, 3.007172
599.1805, 3.248749
599.6626, 3.351257
600.1447, 3.069000
600.6268, 2.863556
601.1089, 2.839996
601.5911, 3.024200
602.0732, 3.602539
602.5553, 4.950256
603.0374, 5.895142
603.5195, 5.605164
604.0016, 4.039581
604.4838, 3.196747
604.9659, 3.180939
605.4480, 3.412323
605.9301, 2.920746
606.4122, 1.857605
606.8943, 1.710541
607.3765, 3.123779
607.8586, 4.673096
608.3407, 4.334412
608.8228, 2.943024
609.3049, 2.243805
609.7870, 3.807007
610.2692, 5.443390
610.7513, 6.015503
611.2334, 5.776825
611.7155, 5.712097
612.1976, 6.120789
612.6797, 6.609924
613.1619, 7.150604
613.6440, 7.804871
614.1261, 7.805054
614.6082, 6.836182
615.0903, 5.829376
615.5724, 5.472626
616.0546, 5.774292
616.5367, 6.301208
617.0188, 7.078583
617.5009, 7.622101
617.9830, 7.074982
618.4651, 5.827881
618.9473, 5.020935
619.4294, 5.067719
619.9115, 5.400208
620.3936, 5.901825
620.8757, 6.297668
621.3578, 6.039124
621.8400, 3.396332
622.3221, 1.418579
622.8042, 2.105652
623.2863, 4.975739
623.7684, 6.676849
624.2505, 6.234436
624.7327, 5.293610
625.2148, 4.238892
625.6969, 3.001343
626.1790, 2.443634
626.6611, 2.759369
627.1432, 3.221558
627.6254, 3.108185
628.1075, 2.507996
628.5896, 2.640869
629.0717, 3.758453
629.5538, 4.826324
630.0359, 4.321198
630.5181, 2.937347
631.0002, 2.190979
631.4823, 2.983429
631.9644, 3.791046
632.4465, 3.347260
632.9286, 2.175018
633.4108, 1.308197
633.8929, 1.137238
634.3750, 1.244629
634.8571, 1.619690
635.3392, 2.205933
635.8214, 2.627441
636.3035, 2.783875
636.7856, 2.907654
637.2677, 3.087891
637.7498, 3.310089
638.2319, 3.545715
638.7141, 3.833832
639.1962, 3.907745
639.6783, 3.303070
640.1604, 2.295380
640.6425, 1.951294
641.1246, 2.491058
641.6068, 3.042084
642.0889, 2.755737
642.5710, 2.012604
643.0531, 1.311401
643.5352, 0.7426760
644.0173, 0.3464050
644.4995, 0.2652280
644.9816, 0.3507080
645.4637, 0.3480830
645.9458, 0.3248900
646.4279, 0.4233700
646.9100, 0.5662230
647.3922, 2.256866
647.8743, 3.028778
648.3564, 2.695496
648.8385, 2.064362
649.3206, 1.284180
649.8027, 0.4713130
650.2849, 0.4742430
650.7670, 1.274780
651.2491, 1.861908
651.7312, 1.155243
652.2133, 0.1158750
652.6954, 0.9562990
653.1776, 1.247772
653.6597, 1.127960
654.1418, 0.1028750
654.6239, 0.9878540
655.1060, 1.320984
655.5881, 2.1179000E-02
656.0703, 0.7235720
656.5524, 8.7341003E-02
657.0345, 0.9650270
657.5166, 1.277466
657.9987, 0.5682370
658.4808, 0.1709590
658.9630, 0.8853760
659.4451, 1.475586
659.9272, 1.637146
660.4093, 1.380981
660.8914, 1.095398
661.3735, 0.7697140
661.8557, 0.6332400
662.3378, 1.430237
662.8199, 2.848633
663.3020, 3.578735
663.7841, 1.805542
664.2662, 0.1077270
664.7484, 0.1210330
665.2305, 1.861694
665.7126, 2.970581
666.1947, 1.557251
666.6768, 0.1156010
667.1589, 0.7690430
667.6411, 1.8982001E-02
668.1232, 0.2227170
668.6053, 0.1859740
669.0874, 0.7808230
669.5695, 1.101868
670.0516, 1.148926
670.5338, 1.335388
671.0159, 1.736816
671.4980, 2.107239
671.9801, 2.211914
672.4622, 2.040222
672.9443, 1.468506
673.4265, 6.0999999E-04
673.9086, 1.059875
674.3907, 0.3541870
674.8728, 1.343506
675.3549, 2.537048
675.8370, 2.629272
676.3192, 2.458740
676.8013, 2.303711
677.2834, 2.097168
677.7655, 1.349854
678.2476, 0.4011230
678.7297, 1.551941
679.2119, 1.412415
679.6940, 0.1762700
680.1761, 1.343384
680.6582, 3.160706
681.1403, 4.500793
681.6224, 4.236389
682.1046, 3.293152
682.5867, 3.203796
683.0688, 4.048157
683.5509, 5.450806
684.0330, 7.991882
684.5151, 10.49298
684.9973, 11.82269
685.4794, 11.21252
685.9615, 11.26282
686.4436, 13.18597
686.9257, 15.44189
687.4078, 16.74982
687.8900, 16.70215
688.3721, 16.95502
688.8542, 17.64410
689.3363, 18.66113
689.8184, 20.11346
690.3005, 21.86798
690.7827, 22.73517
691.2648, 22.18817
691.7469, 21.02777
692.2290, 19.72009
692.7111, 18.60437
693.1932, 18.46918
693.6754, 20.73938
694.1575, 22.98541
694.6396, 23.83575
695.1217, 23.62299
695.6038, 23.69403
696.0859, 24.60925
696.5681, 25.38678
697.0502, 25.61060
697.5323, 25.40240
698.0144, 26.09271
698.4965, 27.94727
698.9786, 29.56995
699.4608, 30.05780
699.9429, 29.66266
700.4250, 29.12054
700.9071, 28.46594
701.3892, 28.35840
701.8713, 29.86450
702.3535, 31.86713
702.8356, 32.99713
703.3177, 32.93939
703.7998, 33.23773
704.2819, 35.05005
704.7640, 37.17853
705.2462, 38.59259
705.7283, 38.64954
706.2104, 39.08765
706.6925, 39.45776
707.1746, 40.71472
707.6567, 45.21753
708.1389, 53.21631
708.6210, 56.33813
709.1031, 52.47351
709.5852, 46.31030
710.0673, 43.90753
710.5494, 44.24451
711.0316, 44.87866
711.5137, 45.15808
711.9958, 45.34381
712.4779, 45.62482
712.9600, 45.88190
713.4421, 45.89020
713.9243, 45.28943
714.4064, 44.87122
714.8885, 44.92560
715.3706, 45.25861
715.8527, 45.02344
716.3348, 43.74390
716.8170, 43.56799
717.2991, 45.74512
717.7812, 49.35107
718.2633, 51.73529
718.7454, 52.85364
719.2275, 52.05652
719.7097, 47.19098
720.1918, 41.31696
720.6739, 37.84351
721.1560, 36.69019
721.6381, 36.01282
722.1202, 35.13916
722.6024, 34.20349
723.0845, 33.16992
723.5666, 32.02069
724.0487, 31.38452
724.5308, 31.53387
725.0129, 31.69983
725.4951, 31.61035
725.9772, 31.30133
726.4593, 29.77484
726.9414, 26.83948
727.4235, 24.14514
727.9056, 23.55951
728.3878, 24.20081
728.8699, 24.44714
729.3520, 24.06519
729.8341, 23.45288
730.3162, 22.91516
730.7983, 22.23596
731.2805, 21.14075
731.7626, 18.77509
732.2447, 17.46710
732.7268, 17.90332
733.2089, 18.96356
733.6910, 19.50830
734.1732, 19.53137
734.6553, 18.89349
735.1374, 17.30988
735.6195, 15.64532
736.1016, 15.48828
736.5837, 16.37811
737.0659, 16.83801
737.5480, 16.38226
738.0301, 15.44653
738.5122, 13.94147
738.9943, 12.31183
739.4764, 11.33191
739.9586, 12.02216
740.4407, 12.50513
740.9228, 12.58496
741.4049, 12.13007
741.8870, 10.56781
742.3691, 7.307373
742.8513, 4.814087
743.3334, 3.781921
743.8155, 3.930176
744.2976, 4.779175
744.7797, 6.220764
745.2618, 7.415405
745.7440, 8.268677
746.2261, 8.501038
746.7082, 7.119934
747.1903, 4.710938
747.6724, 3.379822
748.1545, 4.738586
748.6367, 6.548218
749.1188, 8.409302
749.6009, 10.16254
750.0830, 10.02869
750.5651, 7.018066
751.0472, 4.262512
751.5294, 3.022949
752.0115, 3.159729
752.4936, 4.151855
752.9757, 6.000854
753.4578, 7.773804
753.9399, 9.094849
754.4221, 9.804443
754.9042, 9.143494
755.3863, 7.203308
755.8684, 5.901733
756.3505, 6.640442
756.8326, 7.908997
757.3148, 8.911682
757.7969, 9.598145
758.2790, 9.849854
758.7611, 9.223633
759.2432, 8.871338
759.7253, 9.794861
760.2075, 12.00323
760.6896, 13.29724
761.1717, 13.62384
761.6538, 13.14728
762.1359, 11.52319
762.6180, 9.484680
763.1002, 8.047302
763.5823, 7.295471
764.0644, 7.138306
764.5465, 8.246826
765.0286, 9.532043
765.5107, 9.941223
765.9929, 8.725891
766.4750, 8.248474
766.9571, 8.771851
767.4392, 9.838806
767.9213, 11.30408
768.4034, 13.16620
768.8856, 13.66052
769.3677, 12.38751
769.8498, 11.07965
770.3319, 11.98730
770.8140, 14.03851
771.2961, 15.36407
771.7783, 15.50592
772.2604, 15.06030
772.7425, 13.71436
773.2246, 12.23889
773.7067, 11.46149
774.1888, 12.26160
774.6710, 12.48785
775.1531, 11.81317
775.6352, 11.03143
776.1173, 11.06635
776.5994, 11.90466
777.0815, 13.31476
777.5637, 15.43561
778.0458, 17.36603
778.5279, 17.83008
779.0100, 17.40607
779.4921, 17.02625
779.9742, 16.91406
780.4564, 16.86487
780.9385, 16.56427
781.4206, 16.40558
781.9027, 16.95685
782.3848, 18.83429
782.8669, 20.21405
783.3491, 20.96545
783.8312, 21.12201
784.3133, 20.25983
784.7954, 18.49030
785.2775, 18.16290
785.7596, 20.32672
786.2418, 22.78583
786.7239, 22.63214
787.2060, 20.85248
787.6881, 19.31323
788.1702, 18.70575
788.6523, 18.46173
789.1345, 18.44305
789.6166, 18.63409
790.0987, 19.10870
790.5808, 20.12677
791.0629, 20.70703
791.5450, 20.36456
792.0272, 19.85535
792.5093, 20.78479
792.9914, 22.95746
793.4735, 24.54266
793.9556, 24.96149
794.4377, 24.76678
794.9199, 24.10760
795.4020, 23.31512
795.8841, 22.95142
796.3662, 23.33258
796.8483, 23.85352
797.3304, 24.57776
797.8126, 25.43439
798.2947, 26.36365
798.7768, 27.68707
799.2589, 28.05737
799.7410, 27.03082
800.2231, 25.11304
800.7053, 22.57690
801.1874, 19.82703
801.6695, 18.60870
802.1516, 20.48956
802.6337, 22.54108
803.1158, 22.35376
803.5980, 20.60736
804.0801, 18.50311
804.5622, 14.93561
805.0443, 12.93213
805.5264, 13.52417
806.0085, 15.61768
806.4907, 17.47516
806.9728, 19.27716
807.4549, 19.41876
807.9370, 16.98236
808.4191, 13.84747
808.9012, 13.09003
809.3834, 14.16577
809.8655, 15.70422
810.3476, 17.91632
810.8297, 19.35260
811.3118, 18.46332
811.7939, 16.39197
812.2761, 15.08643
812.7582, 14.55420
813.2403, 14.97797
813.7224, 16.91437
814.2045, 19.28082
814.6866, 20.06714
815.1688, 19.38135
815.6509, 18.54211
816.1330, 17.71234
816.6151, 17.10541
817.0972, 16.64789
817.5793, 16.55493
818.0615, 17.36169
818.5436, 21.67065
819.0257, 24.18231
819.5078, 21.42181
819.9899, 16.30615
820.4720, 13.40521
820.9542, 13.65497
821.4363, 13.61383
821.9184, 12.58417
822.4005, 11.71509
822.8826, 13.59290
823.3647, 17.34271
823.8469, 18.92432
824.3290, 16.82062
824.8111, 13.95709
825.2932, 12.54138
825.7753, 12.07440
826.2574, 11.85144
826.7396, 12.04004
827.2217, 12.14386
827.7038, 12.00781
828.1859, 11.85614
828.6681, 11.96326
829.1502, 12.28418
829.6323, 13.13782
830.1144, 14.69733
830.5966, 16.41290
831.0787, 17.91797
831.5608, 18.79889
832.0429, 18.35669
832.5250, 16.05853
833.0071, 13.92108
833.4893, 12.63641
833.9714, 12.17450
834.4535, 12.71252
834.9356, 15.61096
835.4177, 16.44922
835.8998, 14.26587
836.3820, 11.52557
836.8641, 11.47693
837.3462, 13.65497
837.8283, 14.36926
838.3104, 13.08173
838.7925, 11.45074
839.2747, 10.66022
839.7568, 10.47131
840.2389, 10.73767
840.7210, 11.62842
841.2031, 12.18579
841.6852, 12.25165
842.1674, 11.77881
842.6495, 10.33905
843.1316, 7.493774
843.6137, 6.938721
844.0958, 9.077087
844.5779, 11.10583
845.0601, 10.09290
845.5422, 7.384155
846.0243, 5.504639
846.5064, 4.704224
846.9885, 3.923706
847.4706, 2.122498
847.9528, 0.6141970
848.4349, 0.5822750
848.9170, 2.370728
849.3991, 3.027954
849.8812, 2.044189
850.3633, 1.255005
850.8455, 2.108765
851.3276, 4.170166
851.8097, 4.588623
852.2918, 3.523560
852.7739, 2.977051
853.2560, 3.779175
853.7382, 6.044556
854.2203, 11.75024
854.7024, 20.25293
855.1845, 23.93945
855.6666, 16.38464
856.1487, 9.696777
856.6309, 8.123291
857.1130, 10.57288
857.5951, 11.05859
858.0772, 9.549438
858.5593, 7.929199
859.0414, 7.017578
859.5236, 6.690674
860.0057, 7.066284
860.4878, 7.918701
860.9699, 8.448853
861.4520, 8.410278
861.9341, 7.943237
862.4163, 6.740356
862.8984, 5.191528
863.3805, 4.292236
863.8626, 4.231079
864.3447, 4.248901
864.8268, 4.225464
865.3090, 4.044189
865.7911, 3.328247
866.2732, 2.199585
866.7553, 1.017456
867.2374, 0.1938480
867.7195, 1.184570
868.2017, 1.533081
868.6838, 1.670654
869.1659, 2.455322
869.6480, 4.948242
870.1301, 6.025635
870.6122, 5.071655
871.0944, 3.139771
871.5765, 0.9609380
872.0586, 1.130249
872.5407, 0.6561280
873.0228, 3.333252
873.5049, 7.499268
873.9871, 9.772583
874.4692, 10.17334
874.9513, 8.344116
875.4334, 2.369873
875.9155, 1.236328
876.3976, 1.011963
876.8798, 0.3717040
877.3619, 0.8677980
877.8440, 0.4925540
878.3261, 0.5419920
878.8082, 0.9932860
879.2903, 1.857178
879.7725, 3.705444
880.2546, 5.653198
880.7367, 6.419067
881.2188, 5.847656
881.7009, 5.139160
882.1830, 4.656006
882.6652, 4.254761
883.1473, 3.789673
883.6294, 3.245117
884.1115, 3.381470
884.5936, 4.309326
885.0757, 5.018433
885.5579, 4.760010
886.0400, 3.969360
886.5221, 3.134766
887.0042, 2.421387
887.4863, 2.325317
887.9684, 4.571045
888.4506, 5.962402
888.9327, 4.281616
889.4148, 0.6119380
889.8969, 1.489990
890.3790, 1.668579
890.8611, 1.224854
891.3433, 0.4876710
891.8254, 0.5288090
892.3075, 2.342163
892.7896, 4.334106
893.2717, 4.829834
893.7538, 2.263916
894.2360, 0.3961180
894.7181, 1.397095
895.2002, 1.616699
895.6823, 2.158691
896.1644, 3.044312
896.6465, 4.211060
897.1287, 5.806396
897.6108, 7.391968
898.0929, 8.358887
898.5750, 8.791870
899.0571, 8.730591
899.5392, 8.083862
900.0214, 7.829834
900.5035, 8.852905
900.9856, 10.42688
901.4677, 12.19531
901.9498, 14.22058
902.4319, 15.93640
902.9141, 17.30249
903.3962, 18.16541
903.8783, 18.19873
904.3604, 17.62146
904.8425, 17.90295
905.3246, 19.04431
905.8068, 21.00171
906.2889, 25.22083
906.7710, 29.33801
907.2531, 31.24365
907.7352, 31.00146
908.2173, 30.53149
908.6995, 29.77124
909.1816, 29.73669
909.6637, 30.93311
910.1458, 32.68933
910.6279, 32.53845
911.1100, 30.84521
911.5922, 30.46033
912.0743, 32.97754
912.5564, 36.51257
913.0385, 40.30933
913.5206, 43.71448
914.0027, 45.70911
914.4849, 44.19141
914.9670, 43.86536
915.4491, 45.30872
915.9312, 47.67053
916.4133, 50.10815
916.8954, 52.61108
917.3776, 54.32251
917.8597, 55.02246
918.3418, 56.06921
918.8239, 59.57031
919.3060, 63.60254
919.7881, 65.91235
920.2703, 65.78198
920.7524, 65.71729
921.2345, 65.93884
921.7166, 66.53577
922.1987, 67.62561
922.6808, 69.19397
923.1630, 70.83081
923.6451, 72.55945
924.1272, 74.15930
924.6093, 75.37036
925.0914, 76.49561
925.5735, 77.57605
926.0557, 78.80139
926.5378, 80.94263
927.0199, 85.24951
927.5020, 89.06555
927.9841, 91.97656
928.4662, 94.24597
928.9484, 96.10547
929.4305, 97.62451
929.9126, 99.89734
930.3947, 103.2251
930.8768, 106.7336
931.3589, 109.8867
931.8411, 112.6523
932.3232, 114.8361
932.8053, 116.1937
933.2874, 117.7452
933.7695, 119.2388
934.2516, 120.8318
934.7338, 122.8864
935.2159, 125.4648
935.6980, 127.2001
936.1801, 127.9327
936.6622, 129.2378
937.1443, 132.7955
937.6265, 137.2921
938.1086, 141.6776
938.5907, 145.9642
939.0728, 149.2780
939.5549, 150.6661
940.0370, 152.0475
940.5192, 153.7988
941.0013, 156.0824
941.4834, 160.2960
941.9655, 166.2085
942.4476, 171.0796
942.9297, 173.0054
943.4119, 174.0820
943.8940, 176.0402
944.3761, 178.5415
944.8582, 180.8461
945.3403, 182.5604
945.8224, 184.3011
946.3046, 185.8341
946.7867, 188.0400
947.2688, 192.4954
947.7509, 198.6647
948.2330, 203.8231
948.7151, 207.4871
949.1973, 210.4995
949.6794, 212.9247
950.1615, 215.3275
950.6436, 218.1436
951.1257, 221.3489
951.6078, 225.8929
952.0900, 233.0035
952.5721, 238.7064
953.0542, 240.0593
953.5363, 238.2770
954.0184, 238.1565
954.5005, 239.6091
954.9827, 242.1001
955.4648, 246.6622
955.9469, 250.9030
956.4290, 252.7227
956.9111, 253.1029
957.3932, 255.0951
957.8754, 259.7029
958.3575, 263.4510
958.8396, 265.3011
959.3217, 266.7693
959.8038, 270.4220
960.2859, 275.5234
960.7681, 280.2262
961.2502, 284.2283
961.7323, 287.3005
962.2144, 288.7482
962.6965, 289.5924
963.1786, 290.7007
963.6608, 292.1472
964.1429, 293.2791
964.6250, 293.8419
965.1071, 295.2134
965.5892, 300.2268
966.0714, 305.9304
966.5535, 305.5449
967.0356, 300.2631
967.5177, 296.6067
967.9998, 298.8802
968.4819, 301.8582
968.9641, 303.7920
969.4462, 304.9910
969.9283, 306.4124
970.4104, 308.1527
970.8925, 309.1136
971.3746, 309.2141
971.8568, 308.0325
972.3389, 302.9689
972.8210, 297.0709
973.3031, 295.4248
973.7852, 301.2596
974.2673, 305.4995
974.7495, 306.1901
975.2316, 305.1328
975.7137, 302.9148
976.1958, 299.5248
976.6779, 298.2509
977.1600, 299.0596
977.6422, 299.2136
978.1243, 296.0986
978.6064, 292.0908
979.0885, 289.3093
979.5706, 287.5621
980.0527, 285.6344
980.5349, 283.3768
981.0170, 280.9866
981.4991, 278.7869
981.9812, 276.1573
982.4633, 270.8669
982.9454, 263.8871
983.4276, 259.4940
983.9097, 259.4248
984.3918, 259.7720
984.8739, 258.4205
985.3560, 255.9147
985.8381, 252.4385
986.3203, 247.5815
986.8024, 243.3136
987.2845, 239.5585
987.7666, 237.0859
988.2487, 237.9764
988.7308, 239.8298
989.2130, 236.3831
989.6951, 228.7655
990.1772, 222.3478
990.6593, 219.9498
991.1414, 218.6971
991.6235, 218.3102
992.1057, 218.1606
992.5878, 216.7568
993.0699, 213.9550
993.5520, 211.7147
994.0341, 210.6105
994.5162, 209.1665
994.9984, 205.1184
995.4805, 199.9097
995.9626, 195.4293
996.4447, 192.0219
996.9268, 189.2561
997.4089, 187.3086
997.8911, 185.6672
998.3732, 184.4650
998.8553, 183.4492
999.3374, 180.1677
999.8195, 174.8594
1000.302, 169.7726
1000.784, 165.9073
1001.266, 163.0114
1001.748, 162.0242
1002.230, 161.7766
1002.712, 158.9655
1003.194, 151.7002
1003.676, 146.4806
1004.159, 144.4281
1004.641, 143.7874
1005.123, 142.7384
1005.605, 141.1504
1006.087, 138.3745
1006.569, 134.0764
1007.051, 130.6621
1007.533, 130.8159
1008.016, 130.6436
1008.498, 127.4990
1008.980, 121.6428
1009.462, 117.9255
1009.944, 116.4806
1010.426, 114.5999
1010.908, 110.7052
1011.390, 106.0654
1011.872, 101.9485
1012.355, 98.27100
1012.837, 94.83044
1013.319, 91.87500
1013.801, 88.63977
1014.283, 84.55005
1014.765, 80.94690
1015.247, 80.24670
1015.729, 81.58838
1016.211, 79.24536
1016.694, 72.80164
1017.176, 67.31323
1017.658, 66.92346
1018.140, 68.16467
1018.622, 69.54468
1019.104, 70.65857
1019.586, 68.94397
1020.068, 63.43018
1020.551, 59.21179
1021.033, 58.33984
1021.515, 58.74475
1021.997, 57.16760
1022.479, 54.33704
1022.961, 51.56409
1023.443, 48.85876
1023.925, 47.03784
1024.407, 47.06250
1024.890, 47.27258
1025.372, 46.28784
1025.854, 44.10986
1026.336, 43.03687
1026.818, 43.04590
1027.300, 42.98962
1027.782, 42.90442
1028.264, 41.74390
1028.746, 37.49951
1029.229, 31.32312
1029.711, 27.71033
1030.193, 27.83215
1030.675, 27.95862
1031.157, 27.28650
1031.639, 26.80469
1032.121, 29.15051
1032.603, 32.56360
1033.086, 32.71777
1033.568, 28.60315
1034.050, 23.56567
1034.532, 16.22559
1035.014, 11.34082
1035.496, 12.71533
1035.978, 19.38574
1036.460, 20.13452
1036.943, 15.04688
1037.425, 10.72266
1037.907, 11.44067
1038.389, 12.94385
1038.871, 10.00195
1039.353, 5.300293
1039.835, 3.703369
1040.317, 9.397705
1040.799, 11.86157
1041.281, 10.34229
1041.764, 6.761719
1042.246, 1.530029
1042.728, 4.014648
1043.210, 5.186279
1043.692, 2.175537
1044.174, 0.4733890
1044.656, 5.124512
1045.138, 9.129150
1045.621, 8.676025
1046.103, 5.690430
1046.585, 6.056396
1047.067, 9.853760
1047.549, 11.19995
1048.031, 7.831299
1048.513, 3.841797
1048.995, 3.182861
1049.478, 4.460205
1049.960, 6.375000
1050.442, 9.022461
1050.924, 9.843506
1051.406, 8.913086
1051.888, 6.621338
1052.370, 2.719727
1052.852, 2.584229
1053.334, 8.916016
1053.817, 15.85425
1054.299, 22.15405
1054.781, 26.08374
1055.263, 30.43799
1055.745, 35.56470
1056.227, 41.62671
1056.709, 49.96484
1057.191, 60.80640
1057.673, 67.11792
1058.156, 67.99683
1058.638, 70.41992
1059.120, 81.46533
1059.602, 95.54785
1060.084, 108.6238
1060.566, 120.4543
1061.048, 131.4260
1061.530, 141.0144
1062.013, 152.1082
1062.495, 165.2747
1062.977, 180.2703
1063.459, 197.7808
1063.941, 217.1150
1064.423, 237.6467
1064.905, 260.1042
1065.387, 280.0510
1065.870, 294.1353
1066.352, 307.2043
1066.834, 321.5371
1067.316, 336.8850
1067.798, 353.2727
1068.280, 370.4771
1068.762, 386.2290
1069.244, 398.0388
1069.726, 409.8989
1070.208, 424.4795
1070.691, 440.3257
1071.173, 454.5798
1071.655, 466.0261
1072.137, 480.8489
1072.619, 500.0857
1073.101, 520.3643
1073.583, 539.5037
1074.065, 556.8550
1074.548, 571.4314
1075.030, 583.4368
1075.512, 595.4053
1075.994, 610.7913
1076.476, 621.7441
1076.958, 626.4146
1077.440, 625.8445
1077.922, 620.6809
1078.405, 611.9058
1078.887, 602.8931
1079.369, 594.4167
1079.851, 584.6016
1080.333, 571.3589
1080.815, 557.4121
1081.297, 544.6082
1081.779, 532.8013
1082.261, 521.3347
1082.744, 510.0977
1083.226, 498.2664
1083.708, 485.0615
1084.190, 471.7144
1084.672, 460.0095
1085.154, 448.6194
1085.636, 435.4580
1086.118, 419.3730
1086.601, 403.7786
1087.083, 388.6768
1087.565, 373.9553
1088.047, 358.8794
1088.529, 344.6047
1089.011, 334.0352
1089.493, 326.1189
1089.975, 316.2773
1090.458, 302.8804
1090.940, 287.3347
1091.422, 269.7397
1091.904, 250.6409
1092.386, 230.3572
1092.868, 209.4182
1093.350, 190.5930
1093.832, 174.2710
1094.314, 159.2014
1094.797, 143.8857
1095.279, 130.2515
1095.761, 120.1812
1096.243, 112.7654
1096.725, 103.4670
1097.207, 92.21802
1097.689, 81.88037
1098.171, 73.06982
1098.653, 65.97388
1099.136, 62.10327
1099.618, 59.16406
1100.100, 54.24023
1100.582, 46.26709
1101.064, 39.54126
1101.546, 34.09985
1102.028, 29.98926
1102.510, 27.55444
1102.993, 25.96240
1103.475, 24.68164
1103.957, 23.15332
1104.439, 19.89917
1104.921, 11.61694
1105.403, 5.727295
1105.885, 3.502930
1106.367, 3.104248
1106.849, 3.790527
1107.332, 4.793457
1107.814, 2.004395
1108.296, 4.133789
1108.778, 8.709473
1109.260, 7.034424
1109.742, 5.481934
1110.224, 6.904541
1110.706, 9.847412
1111.188, 12.24561
1111.671, 14.08228
1112.153, 14.87329
1112.635, 14.50244
1113.117, 13.12622
1113.599, 9.592285
1114.081, 6.145508
1114.563, 5.253418
1115.045, 6.507813
1115.528, 6.063965
1116.010, 3.693848
1116.492, 1.082031
1116.974, 1.193848
1117.456, 3.550293
1117.938, 7.437500
1118.420, 11.17773
1118.902, 12.05640
1119.385, 8.219727
1119.867, 7.510254
1120.349, 11.40015
1120.831, 14.90088
1121.313, 14.96143
1121.795, 13.32568
1122.277, 14.37598
1122.759, 16.78149
1123.241, 17.31958
1123.724, 13.39062
1124.206, 10.16504
1124.688, 8.599365
1125.170, 7.849609
1125.652, 7.709961
1126.134, 7.955811
1126.616, 6.562744
1127.098, 3.931885
1127.580, 2.402100
1128.063, 3.590332
1128.545, 5.817871
1129.027, 9.808594
1129.509, 13.43115
1129.991, 12.84253
1130.473, 8.193604
1130.955, 6.820313
1131.437, 9.375244
1131.920, 12.51343
1132.402, 14.40112
1132.884, 15.34155
1133.366, 14.98511
1133.848, 13.83301
1134.330, 13.60962
1134.812, 14.35181
1135.294, 15.79175
1135.776, 17.97095
1136.259, 20.31519
1136.741, 22.94019
1137.223, 24.98218
1137.705, 25.17310
1138.187, 23.24854
1138.669, 22.64453
1139.151, 23.58228
1139.633, 25.35547
1140.115, 28.20410
1140.598, 30.80249
1141.080, 31.04297
1141.562, 29.78223
1142.044, 28.31348
1142.526, 26.79517
1143.008, 25.43164
1143.490, 23.87842
1143.972, 23.36035
1144.455, 25.29297
1144.937, 28.17456
1145.419, 27.93921
1145.901, 25.73291
1146.383, 24.56543
1146.865, 26.75464
1147.347, 27.92896
1147.829, 26.67578
1148.312, 25.43774
1148.794, 26.29663
1149.276, 28.87134
1149.758, 31.88794
1150.240, 34.98755
1150.722, 36.34912
1151.204, 32.68530
1151.686, 30.11255
1152.168, 31.39209
1152.651, 34.04370
1153.133, 35.47583
1153.615, 35.72144
1154.097, 34.83032
1154.579, 32.85498
1155.061, 31.29004
1155.543, 30.96851
1156.025, 31.42407
1156.507, 32.81274
1156.990, 34.64526
1157.472, 35.96875
1157.954, 36.78003
1158.436, 38.28149
1158.918, 40.75391
1159.400, 42.64233
1159.882, 41.64502
1160.364, 40.47974
1160.847, 41.67554
1161.329, 44.67676
1161.811, 46.48853
1162.293, 47.06714
1162.775, 46.65015
1163.257, 45.14160
1163.739, 42.74414
1164.221, 38.33984
1164.703, 34.20410
1165.186, 33.15991
1165.668, 35.41943
1166.150, 35.79712
1166.632, 34.24878
1167.114, 31.88477
1167.596, 28.11719
1168.078, 25.27563
1168.560, 28.52246
1169.042, 33.69336
1169.525, 34.53687
1170.007, 28.23755
1170.489, 25.54883
1170.971, 27.25073
1171.453, 30.21558
1171.935, 33.51758
1172.417, 36.07275
1172.899, 35.49194
1173.382, 33.30005
1173.864, 32.16187
1174.346, 32.94360
1174.828, 34.45630
1175.310, 37.07812
1175.792, 39.22363
1176.274, 39.67578
1176.756, 38.77026
1177.239, 36.98730
1177.721, 34.62256
1178.203, 32.37207
1178.685, 29.67822
1179.167, 28.35181
1179.649, 28.97339
1180.131, 30.10669
1180.613, 30.34473
1181.095, 30.16797
1181.578, 31.26465
1182.060, 33.09058
1182.542, 33.01807
1183.024, 27.64429
1183.506, 23.84668
1183.988, 22.63477
1184.470, 23.12231
1184.952, 25.26538
1185.434, 28.05933
1185.917, 28.53247
1186.399, 26.82520
1186.881, 26.00415
1187.363, 28.06982
1187.845, 29.77637
1188.327, 29.91504
1188.809, 29.81152
1189.291, 32.47461
1189.774, 36.51587
1190.256, 37.30957
1190.738, 34.35620
1191.220, 31.51904
1191.702, 30.20117
1192.184, 29.81079
1192.666, 30.76685
1193.148, 31.91504
1193.630, 29.95508
1194.113, 26.23315
1194.595, 25.66089
1195.077, 29.34692
1195.559, 32.85791
1196.041, 34.00415
1196.523, 34.65771
1197.005, 35.52637
1197.487, 36.44263
1197.969, 37.45215
1198.452, 38.08838
1198.934, 36.25098
1199.416, 30.70825
1199.898, 26.34985
1200.380, 25.91382
1200.862, 26.71948
1201.344, 27.73584
1201.826, 28.83472
1202.309, 29.65161
1202.791, 30.12402
1203.273, 29.75903
1203.755, 28.31665
1204.237, 26.45337
1204.719, 23.58691
1205.201, 21.52441
1205.683, 21.74316
1206.166, 23.51196
1206.648, 22.79272
1207.130, 20.47656
1207.612, 20.52393
1208.094, 26.00586
1208.576, 30.40112
1209.058, 29.99634
1209.540, 28.26807
1210.022, 27.20703
1210.505, 26.69629
1210.987, 25.54028
1211.469, 24.06738
1211.951, 23.90210
1212.433, 26.67798
1212.915, 29.39429
1213.397, 31.34717
1213.879, 32.31079
1214.361, 31.45996
1214.844, 29.20532
1215.326, 28.78369
1215.808, 29.94263
1216.290, 31.49976
1216.772, 33.98413
1217.254, 35.24658
1217.736, 33.59766
1218.218, 31.55957
1218.701, 31.75220
1219.183, 33.58911
1219.665, 32.63330
1220.147, 29.34961
1220.629, 26.60156
1221.111, 26.47168
1221.593, 26.22119
1222.075, 24.88745
1222.557, 23.41992
1223.040, 23.32642
1223.522, 24.08008
1224.004, 21.96240
1224.486, 17.53613
1224.968, 14.61719
1225.450, 16.93823
1225.932, 18.42505
1226.414, 17.13892
1226.896, 15.24976
1227.379, 15.59277
1227.861, 17.31738
1228.343, 17.31616
1228.825, 15.74487
1229.307, 14.63428
1229.789, 15.39160
1230.271, 16.07739
1230.753, 16.40137
1231.236, 16.26855
1231.718, 15.44165
1232.200, 14.12915
1232.682, 12.61133
1233.164, 10.99536
1233.646, 10.14575
1234.128, 9.869385
1234.610, 11.60767
1235.093, 16.53809
1235.575, 21.84302
1236.057, 23.14355
1236.539, 22.02271
1237.021, 21.90674
1237.503, 22.95264
1237.985, 24.04126
1238.467, 25.40552
1238.949, 25.59106
1239.432, 23.78613
1239.914, 21.92261
1240.396, 23.45190
1240.878, 26.44165
1241.360, 26.78564
1241.842, 24.41992
1242.324, 23.54443
1242.806, 26.23950
1243.288, 27.80273
1243.771, 27.15479
1244.253, 25.64209
1244.735, 24.58447
1245.217, 24.11279
1245.699, 24.46265
1246.181, 25.64160
1246.663, 27.59766
1247.145, 31.33936
1247.628, 32.62329
1248.110, 29.94629
1248.592, 26.74951
1249.074, 28.36328
1249.556, 31.27832
1250.038, 30.90601
1250.520, 27.07178
1251.002, 25.07568
1251.484, 25.68188
1251.967, 25.31372
1252.449, 22.79883
1252.931, 20.64355
1253.413, 22.67651
1253.895, 25.67847
1254.377, 25.70215
1254.859, 22.94678
1255.341, 22.96362
1255.823, 26.09888
1256.306, 29.11621
1256.788, 31.42651
1257.270, 32.28418
1257.752, 29.74487
1258.234, 26.41187
1258.716, 24.44165
1259.198, 23.71558
1259.680, 23.48438
1260.163, 23.77075
1260.645, 24.35425
1261.127, 25.41724
1261.609, 25.60425
1262.091, 24.20654
1262.573, 21.15283
1263.055, 14.71289
1263.537, 7.091064
1264.020, 7.602783
1264.502, 15.00244
1264.984, 19.36670
1265.466, 17.97314
1265.948, 16.60376
1266.430, 20.21265
1266.912, 22.85840
1267.394, 21.13892
1267.876, 16.74512
1268.359, 14.50488
1268.841, 13.73682
1269.323, 11.45923
1269.805, 6.621094
1270.287, 3.835449
1270.769, 7.423584
1271.251, 10.52417
1271.733, 10.83423
1272.215, 9.445068
1272.698, 8.270752
1273.180, 7.366455
1273.662, 7.150146
1274.144, 7.975586
1274.626, 7.019043
1275.108, 2.037354
1275.590, 0.7604980
1276.072, 1.070557
1276.555, 5.217529
1277.037, 9.242676
1277.519, 12.22803
1278.001, 11.93994
1278.483, 7.598389
1278.965, 6.515381
1279.447, 9.770996
1279.929, 13.37427
1280.411, 16.46826
1280.894, 18.03906
1281.376, 14.88379
1281.858, 10.82275
1282.340, 10.92236
1282.822, 15.34424
1283.304, 17.33130
1283.786, 16.81836
1284.268, 14.42651
1284.750, 9.934814
1285.233, 5.472412
1285.715, 2.129639
1286.197, 0.5346680
1286.679, 2.600586
1287.161, 6.929688
1287.643, 7.071289
1288.125, 3.391113
1288.607, 4.3701001E-02
1289.090, 2.133545
1289.572, 2.966797
1290.054, 1.870850
1290.536, 5.9082001E-02
1291.018, 1.982666
1291.500, 4.030762
1291.982, 5.726563
1292.464, 6.895996
1292.947, 6.704834
1293.429, 4.732666
1293.911, 3.291992
1294.393, 2.668213
1294.875, 4.072998
1295.357, 5.835205
1295.839, 9.628906
1296.321, 10.93750
1296.803, 9.820557
1297.286, 8.143311
1297.768, 5.471436
1298.250, 3.642822
1298.732, 3.394775
1299.214, 2.722412
1299.696, 2.115967
1300.178, 1.010254
1300.660, 0.0000000E+00
##END=



