##NAMES=Celsian
##RRUFFID=R170048
##IDEAL CHEMISTRY=BaAl_2_Si_2_O_8_
##LOCALITY=Big Creek, Pine Flat Lake, Trimmer, Fresno County, California, USA
##OWNER=RRUFF
##SOURCE=Gunnar FÃ¤rber
##DESCRIPTION=Colorless anhedral grains in matrix associated with cerchiaraite-(Fe) R160021 and pellyite R160023
##STATUS=The identification of this mineral has been determined only by Raman spectroscopy
##URL=rruff.info/R170048
8.758203e+001, 2.221951e+004
8.806415e+001, 2.155661e+004
8.854626e+001, 2.143975e+004
8.902838e+001, 2.209493e+004
8.951050e+001, 2.293342e+004
8.999261e+001, 2.375798e+004
9.047473e+001, 2.455364e+004
9.095685e+001, 2.535381e+004
9.143896e+001, 2.619688e+004
9.192108e+001, 2.708478e+004
9.240320e+001, 2.793677e+004
9.288531e+001, 2.839892e+004
9.336743e+001, 2.829547e+004
9.384955e+001, 2.777655e+004
9.433167e+001, 2.726020e+004
9.481378e+001, 2.669706e+004
9.529590e+001, 2.624976e+004
9.577802e+001, 2.590592e+004
9.626013e+001, 2.561313e+004
9.674225e+001, 2.533795e+004
9.722437e+001, 2.507484e+004
9.770648e+001, 2.483851e+004
9.818860e+001, 2.460145e+004
9.867072e+001, 2.440854e+004
9.915283e+001, 2.429648e+004
9.963495e+001, 2.426001e+004
1.001171e+002, 2.424785e+004
1.005992e+002, 2.418642e+004
1.010813e+002, 2.402651e+004
1.015634e+002, 2.392840e+004
1.020455e+002, 2.390469e+004
1.025277e+002, 2.391667e+004
1.030098e+002, 2.393092e+004
1.034919e+002, 2.393362e+004
1.039740e+002, 2.393743e+004
1.044561e+002, 2.398667e+004
1.049382e+002, 2.413509e+004
1.054204e+002, 2.426504e+004
1.059025e+002, 2.437379e+004
1.063846e+002, 2.445378e+004
1.068667e+002, 2.449000e+004
1.073488e+002, 2.446905e+004
1.078309e+002, 2.439512e+004
1.083131e+002, 2.432158e+004
1.087952e+002, 2.426957e+004
1.092773e+002, 2.419958e+004
1.097594e+002, 2.407275e+004
1.102415e+002, 2.389138e+004
1.107236e+002, 2.371823e+004
1.112058e+002, 2.360906e+004
1.116879e+002, 2.354855e+004
1.121700e+002, 2.348808e+004
1.126521e+002, 2.341688e+004
1.131342e+002, 2.334117e+004
1.136163e+002, 2.327494e+004
1.140985e+002, 2.322847e+004
1.145806e+002, 2.317113e+004
1.150627e+002, 2.307555e+004
1.155448e+002, 2.295435e+004
1.160269e+002, 2.283561e+004
1.165090e+002, 2.273097e+004
1.169912e+002, 2.264075e+004
1.174733e+002, 2.257906e+004
1.179554e+002, 2.256634e+004
1.184375e+002, 2.256855e+004
1.189196e+002, 2.257547e+004
1.194017e+002, 2.258520e+004
1.198839e+002, 2.259836e+004
1.203660e+002, 2.261301e+004
1.208481e+002, 2.261929e+004
1.213302e+002, 2.265295e+004
1.218123e+002, 2.273187e+004
1.222944e+002, 2.281857e+004
1.227766e+002, 2.289192e+004
1.232587e+002, 2.294485e+004
1.237408e+002, 2.298174e+004
1.242229e+002, 2.301049e+004
1.247050e+002, 2.301964e+004
1.251871e+002, 2.303480e+004
1.256693e+002, 2.306298e+004
1.261514e+002, 2.309557e+004
1.266335e+002, 2.312431e+004
1.271156e+002, 2.314740e+004
1.275977e+002, 2.316028e+004
1.280798e+002, 2.314643e+004
1.285620e+002, 2.309498e+004
1.290441e+002, 2.304232e+004
1.295262e+002, 2.298812e+004
1.300083e+002, 2.293934e+004
1.304904e+002, 2.292954e+004
1.309725e+002, 2.299514e+004
1.314547e+002, 2.310378e+004
1.319368e+002, 2.318410e+004
1.324189e+002, 2.323232e+004
1.329010e+002, 2.325246e+004
1.333831e+002, 2.324727e+004
1.338652e+002, 2.321641e+004
1.343474e+002, 2.316268e+004
1.348295e+002, 2.307691e+004
1.353116e+002, 2.297269e+004
1.357937e+002, 2.286139e+004
1.362758e+002, 2.274676e+004
1.367579e+002, 2.262816e+004
1.372401e+002, 2.250096e+004
1.377222e+002, 2.234786e+004
1.382043e+002, 2.221432e+004
1.386864e+002, 2.211218e+004
1.391685e+002, 2.203570e+004
1.396507e+002, 2.197820e+004
1.401328e+002, 2.193941e+004
1.406149e+002, 2.191808e+004
1.410970e+002, 2.188190e+004
1.415791e+002, 2.179696e+004
1.420612e+002, 2.172857e+004
1.425434e+002, 2.169953e+004
1.430255e+002, 2.170363e+004
1.435076e+002, 2.172132e+004
1.439897e+002, 2.173585e+004
1.444718e+002, 2.174720e+004
1.449539e+002, 2.175435e+004
1.454361e+002, 2.175119e+004
1.459182e+002, 2.174962e+004
1.464003e+002, 2.175671e+004
1.468824e+002, 2.177295e+004
1.473645e+002, 2.179298e+004
1.478466e+002, 2.180823e+004
1.483288e+002, 2.181243e+004
1.488109e+002, 2.184333e+004
1.492930e+002, 2.193350e+004
1.497751e+002, 2.203640e+004
1.502572e+002, 2.210042e+004
1.507393e+002, 2.211203e+004
1.512215e+002, 2.209890e+004
1.517036e+002, 2.209279e+004
1.521857e+002, 2.209221e+004
1.526678e+002, 2.210141e+004
1.531499e+002, 2.211661e+004
1.536320e+002, 2.214235e+004
1.541142e+002, 2.219481e+004
1.545963e+002, 2.229260e+004
1.550784e+002, 2.239729e+004
1.555605e+002, 2.246538e+004
1.560426e+002, 2.249695e+004
1.565247e+002, 2.252733e+004
1.570069e+002, 2.257532e+004
1.574890e+002, 2.264108e+004
1.579711e+002, 2.272960e+004
1.584532e+002, 2.285495e+004
1.589353e+002, 2.299652e+004
1.594174e+002, 2.314544e+004
1.598996e+002, 2.330030e+004
1.603817e+002, 2.345275e+004
1.608638e+002, 2.359199e+004
1.613459e+002, 2.371274e+004
1.618280e+002, 2.383740e+004
1.623102e+002, 2.397570e+004
1.627923e+002, 2.411376e+004
1.632744e+002, 2.423854e+004
1.637565e+002, 2.434754e+004
1.642386e+002, 2.445045e+004
1.647207e+002, 2.456693e+004
1.652029e+002, 2.469664e+004
1.656850e+002, 2.484220e+004
1.661671e+002, 2.502279e+004
1.666492e+002, 2.520722e+004
1.671313e+002, 2.537187e+004
1.676134e+002, 2.550509e+004
1.680956e+002, 2.560964e+004
1.685777e+002, 2.569285e+004
1.690598e+002, 2.576092e+004
1.695419e+002, 2.579760e+004
1.700240e+002, 2.579720e+004
1.705061e+002, 2.576563e+004
1.709883e+002, 2.571029e+004
1.714704e+002, 2.563452e+004
1.719525e+002, 2.553883e+004
1.724346e+002, 2.542230e+004
1.729167e+002, 2.530479e+004
1.733988e+002, 2.515076e+004
1.738810e+002, 2.493121e+004
1.743631e+002, 2.466435e+004
1.748452e+002, 2.439523e+004
1.753273e+002, 2.414542e+004
1.758094e+002, 2.391548e+004
1.762915e+002, 2.370621e+004
1.767737e+002, 2.352356e+004
1.772558e+002, 2.335199e+004
1.777379e+002, 2.318011e+004
1.782200e+002, 2.300932e+004
1.787021e+002, 2.284742e+004
1.791842e+002, 2.269796e+004
1.796664e+002, 2.256205e+004
1.801485e+002, 2.243924e+004
1.806306e+002, 2.233201e+004
1.811127e+002, 2.223511e+004
1.815948e+002, 2.214289e+004
1.820769e+002, 2.205388e+004
1.825591e+002, 2.197744e+004
1.830412e+002, 2.192348e+004
1.835233e+002, 2.188356e+004
1.840054e+002, 2.185154e+004
1.844875e+002, 2.182829e+004
1.849696e+002, 2.180905e+004
1.854518e+002, 2.178214e+004
1.859339e+002, 2.173774e+004
1.864160e+002, 2.170880e+004
1.868981e+002, 2.171592e+004
1.873802e+002, 2.174019e+004
1.878623e+002, 2.175839e+004
1.883445e+002, 2.175583e+004
1.888266e+002, 2.174374e+004
1.893087e+002, 2.176091e+004
1.897908e+002, 2.182696e+004
1.902729e+002, 2.189829e+004
1.907550e+002, 2.196223e+004
1.912372e+002, 2.202485e+004
1.917193e+002, 2.209512e+004
1.922014e+002, 2.217921e+004
1.926835e+002, 2.227475e+004
1.931656e+002, 2.236411e+004
1.936477e+002, 2.245109e+004
1.941299e+002, 2.252634e+004
1.946120e+002, 2.260036e+004
1.950941e+002, 2.266049e+004
1.955762e+002, 2.268778e+004
1.960583e+002, 2.266988e+004
1.965404e+002, 2.260735e+004
1.970226e+002, 2.250567e+004
1.975047e+002, 2.233304e+004
1.979868e+002, 2.215819e+004
1.984689e+002, 2.198938e+004
1.989510e+002, 2.183247e+004
1.994331e+002, 2.169836e+004
1.999153e+002, 2.159601e+004
2.003974e+002, 2.152466e+004
2.008795e+002, 2.144953e+004
2.013616e+002, 2.134659e+004
2.018437e+002, 2.126296e+004
2.023258e+002, 2.122823e+004
2.028080e+002, 2.123370e+004
2.032901e+002, 2.124641e+004
2.037722e+002, 2.124723e+004
2.042543e+002, 2.123362e+004
2.047364e+002, 2.119866e+004
2.052185e+002, 2.111974e+004
2.057007e+002, 2.104025e+004
2.061828e+002, 2.098647e+004
2.066649e+002, 2.095822e+004
2.071470e+002, 2.094402e+004
2.076291e+002, 2.094147e+004
2.081112e+002, 2.094739e+004
2.085934e+002, 2.094526e+004
2.090755e+002, 2.091781e+004
2.095576e+002, 2.089328e+004
2.100397e+002, 2.090550e+004
2.105218e+002, 2.095652e+004
2.110039e+002, 2.099904e+004
2.114861e+002, 2.098752e+004
2.119682e+002, 2.094717e+004
2.124503e+002, 2.093049e+004
2.129324e+002, 2.096243e+004
2.134145e+002, 2.101144e+004
2.138967e+002, 2.103347e+004
2.143788e+002, 2.102038e+004
2.148609e+002, 2.101857e+004
2.153430e+002, 2.107071e+004
2.158251e+002, 2.114701e+004
2.163072e+002, 2.121211e+004
2.167894e+002, 2.125307e+004
2.172715e+002, 2.127951e+004
2.177536e+002, 2.130771e+004
2.182357e+002, 2.133836e+004
2.187178e+002, 2.136849e+004
2.191999e+002, 2.139840e+004
2.196821e+002, 2.142688e+004
2.201642e+002, 2.145450e+004
2.206463e+002, 2.148550e+004
2.211284e+002, 2.151042e+004
2.216105e+002, 2.150593e+004
2.220926e+002, 2.146029e+004
2.225748e+002, 2.140768e+004
2.230569e+002, 2.136176e+004
2.235390e+002, 2.131550e+004
2.240211e+002, 2.125833e+004
2.245032e+002, 2.118328e+004
2.249853e+002, 2.110024e+004
2.254675e+002, 2.103353e+004
2.259496e+002, 2.097988e+004
2.264317e+002, 2.095318e+004
2.269138e+002, 2.096537e+004
2.273959e+002, 2.099835e+004
2.278780e+002, 2.103410e+004
2.283602e+002, 2.106416e+004
2.288423e+002, 2.108982e+004
2.293244e+002, 2.111613e+004
2.298065e+002, 2.115007e+004
2.302886e+002, 2.117328e+004
2.307707e+002, 2.116867e+004
2.312529e+002, 2.115780e+004
2.317350e+002, 2.116256e+004
2.322171e+002, 2.119323e+004
2.326992e+002, 2.124818e+004
2.331813e+002, 2.132272e+004
2.336634e+002, 2.143795e+004
2.341456e+002, 2.154960e+004
2.346277e+002, 2.166462e+004
2.351098e+002, 2.177107e+004
2.355919e+002, 2.184920e+004
2.360740e+002, 2.188971e+004
2.365561e+002, 2.191007e+004
2.370383e+002, 2.196202e+004
2.375204e+002, 2.206822e+004
2.380025e+002, 2.218266e+004
2.384846e+002, 2.230524e+004
2.389667e+002, 2.243470e+004
2.394488e+002, 2.256906e+004
2.399310e+002, 2.270836e+004
2.404131e+002, 2.285262e+004
2.408952e+002, 2.300229e+004
2.413773e+002, 2.315527e+004
2.418594e+002, 2.331825e+004
2.423415e+002, 2.349823e+004
2.428237e+002, 2.368632e+004
2.433058e+002, 2.387520e+004
2.437879e+002, 2.406398e+004
2.442700e+002, 2.424379e+004
2.447521e+002, 2.439957e+004
2.452342e+002, 2.455458e+004
2.457164e+002, 2.464232e+004
2.461985e+002, 2.463933e+004
2.466806e+002, 2.456715e+004
2.471627e+002, 2.444542e+004
2.476448e+002, 2.427553e+004
2.481269e+002, 2.408034e+004
2.486091e+002, 2.389614e+004
2.490912e+002, 2.372428e+004
2.495733e+002, 2.355458e+004
2.500554e+002, 2.337088e+004
2.505375e+002, 2.319060e+004
2.510196e+002, 2.303880e+004
2.515018e+002, 2.292216e+004
2.519839e+002, 2.283576e+004
2.524660e+002, 2.278141e+004
2.529481e+002, 2.275852e+004
2.534302e+002, 2.274472e+004
2.539123e+002, 2.274561e+004
2.543945e+002, 2.274957e+004
2.548766e+002, 2.274131e+004
2.553587e+002, 2.271929e+004
2.558408e+002, 2.267919e+004
2.563229e+002, 2.261171e+004
2.568051e+002, 2.252061e+004
2.572872e+002, 2.241241e+004
2.577693e+002, 2.228111e+004
2.582514e+002, 2.213531e+004
2.587335e+002, 2.198406e+004
2.592156e+002, 2.182546e+004
2.596978e+002, 2.167424e+004
2.601799e+002, 2.154701e+004
2.606620e+002, 2.143816e+004
2.611441e+002, 2.134006e+004
2.616262e+002, 2.125954e+004
2.621083e+002, 2.118483e+004
2.625905e+002, 2.109060e+004
2.630726e+002, 2.096839e+004
2.635547e+002, 2.085340e+004
2.640368e+002, 2.078053e+004
2.645189e+002, 2.073576e+004
2.650010e+002, 2.069607e+004
2.654832e+002, 2.066353e+004
2.659653e+002, 2.062852e+004
2.664474e+002, 2.057289e+004
2.669295e+002, 2.049226e+004
2.674116e+002, 2.040855e+004
2.678937e+002, 2.031509e+004
2.683759e+002, 2.023103e+004
2.688580e+002, 2.019186e+004
2.693401e+002, 2.023466e+004
2.698222e+002, 2.030414e+004
2.703043e+002, 2.031172e+004
2.707864e+002, 2.024223e+004
2.712686e+002, 2.017677e+004
2.717507e+002, 2.016539e+004
2.722328e+002, 2.017557e+004
2.727149e+002, 2.017366e+004
2.731970e+002, 2.014712e+004
2.736791e+002, 2.011270e+004
2.741613e+002, 2.009196e+004
2.746434e+002, 2.008597e+004
2.751255e+002, 2.008683e+004
2.756076e+002, 2.009978e+004
2.760897e+002, 2.011448e+004
2.765718e+002, 2.012127e+004
2.770540e+002, 2.011694e+004
2.775361e+002, 2.011124e+004
2.780182e+002, 2.012135e+004
2.785003e+002, 2.015226e+004
2.789824e+002, 2.016426e+004
2.794645e+002, 2.012946e+004
2.799467e+002, 2.008281e+004
2.804288e+002, 2.004307e+004
2.809109e+002, 2.001355e+004
2.813930e+002, 1.999557e+004
2.818751e+002, 1.999695e+004
2.823572e+002, 2.002034e+004
2.828394e+002, 2.002999e+004
2.833215e+002, 1.999085e+004
2.838036e+002, 1.996097e+004
2.842857e+002, 1.998464e+004
2.847678e+002, 2.005717e+004
2.852499e+002, 2.013062e+004
2.857321e+002, 2.015459e+004
2.862142e+002, 2.012723e+004
2.866963e+002, 2.012111e+004
2.871784e+002, 2.015711e+004
2.876605e+002, 2.019844e+004
2.881426e+002, 2.023129e+004
2.886248e+002, 2.025472e+004
2.891069e+002, 2.026951e+004
2.895890e+002, 2.027195e+004
2.900711e+002, 2.026357e+004
2.905532e+002, 2.026438e+004
2.910353e+002, 2.026852e+004
2.915175e+002, 2.029132e+004
2.919996e+002, 2.035543e+004
2.924817e+002, 2.043988e+004
2.929638e+002, 2.050440e+004
2.934459e+002, 2.051965e+004
2.939280e+002, 2.049785e+004
2.944102e+002, 2.049348e+004
2.948923e+002, 2.051617e+004
2.953744e+002, 2.054295e+004
2.958565e+002, 2.056155e+004
2.963386e+002, 2.058113e+004
2.968207e+002, 2.061459e+004
2.973029e+002, 2.066929e+004
2.977850e+002, 2.073811e+004
2.982671e+002, 2.080282e+004
2.987492e+002, 2.086030e+004
2.992313e+002, 2.092085e+004
2.997134e+002, 2.098370e+004
3.001956e+002, 2.105179e+004
3.006777e+002, 2.112495e+004
3.011598e+002, 2.120315e+004
3.016419e+002, 2.129329e+004
3.021240e+002, 2.141264e+004
3.026061e+002, 2.157847e+004
3.030883e+002, 2.172363e+004
3.035704e+002, 2.185714e+004
3.040525e+002, 2.195649e+004
3.045346e+002, 2.199924e+004
3.050167e+002, 2.198308e+004
3.054988e+002, 2.192980e+004
3.059810e+002, 2.186795e+004
3.064631e+002, 2.180398e+004
3.069452e+002, 2.170065e+004
3.074273e+002, 2.152199e+004
3.079094e+002, 2.132904e+004
3.083915e+002, 2.113745e+004
3.088737e+002, 2.095426e+004
3.093558e+002, 2.078813e+004
3.098379e+002, 2.065215e+004
3.103200e+002, 2.054710e+004
3.108021e+002, 2.044455e+004
3.112842e+002, 2.033255e+004
3.117664e+002, 2.023619e+004
3.122485e+002, 2.017557e+004
3.127306e+002, 2.013782e+004
3.132127e+002, 2.009329e+004
3.136948e+002, 2.001821e+004
3.141769e+002, 1.992018e+004
3.146591e+002, 1.984582e+004
3.151412e+002, 1.981146e+004
3.156233e+002, 1.977995e+004
3.161054e+002, 1.973279e+004
3.165875e+002, 1.968393e+004
3.170696e+002, 1.965562e+004
3.175518e+002, 1.966161e+004
3.180339e+002, 1.968480e+004
3.185160e+002, 1.967891e+004
3.189981e+002, 1.962362e+004
3.194802e+002, 1.958136e+004
3.199623e+002, 1.957790e+004
3.204445e+002, 1.958490e+004
3.209266e+002, 1.957481e+004
3.214087e+002, 1.953937e+004
3.218908e+002, 1.949734e+004
3.223729e+002, 1.947897e+004
3.228550e+002, 1.949212e+004
3.233372e+002, 1.950104e+004
3.238193e+002, 1.950610e+004
3.243014e+002, 1.950168e+004
3.247835e+002, 1.947737e+004
3.252656e+002, 1.943528e+004
3.257477e+002, 1.939406e+004
3.262299e+002, 1.937558e+004
3.267120e+002, 1.938254e+004
3.271941e+002, 1.938171e+004
3.276762e+002, 1.936005e+004
3.281583e+002, 1.934135e+004
3.286404e+002, 1.933446e+004
3.291226e+002, 1.933873e+004
3.296047e+002, 1.935100e+004
3.300868e+002, 1.937288e+004
3.305689e+002, 1.940160e+004
3.310510e+002, 1.941697e+004
3.315331e+002, 1.940543e+004
3.320153e+002, 1.940105e+004
3.324974e+002, 1.942729e+004
3.329795e+002, 1.946535e+004
3.334616e+002, 1.948668e+004
3.339437e+002, 1.947513e+004
3.344258e+002, 1.944491e+004
3.349080e+002, 1.942903e+004
3.353901e+002, 1.943508e+004
3.358722e+002, 1.943664e+004
3.363543e+002, 1.941917e+004
3.368365e+002, 1.939807e+004
3.373186e+002, 1.938832e+004
3.378007e+002, 1.939455e+004
3.382828e+002, 1.940503e+004
3.387649e+002, 1.940207e+004
3.392470e+002, 1.938234e+004
3.397292e+002, 1.937429e+004
3.402113e+002, 1.939905e+004
3.406934e+002, 1.942475e+004
3.411755e+002, 1.942936e+004
3.416576e+002, 1.941273e+004
3.421397e+002, 1.939136e+004
3.426219e+002, 1.937015e+004
3.431040e+002, 1.935106e+004
3.435861e+002, 1.936033e+004
3.440682e+002, 1.941718e+004
3.445503e+002, 1.947878e+004
3.450324e+002, 1.951927e+004
3.455146e+002, 1.954408e+004
3.459967e+002, 1.956724e+004
3.464788e+002, 1.959654e+004
3.469609e+002, 1.962881e+004
3.474430e+002, 1.965715e+004
3.479251e+002, 1.968260e+004
3.484073e+002, 1.970134e+004
3.488894e+002, 1.969929e+004
3.493715e+002, 1.969381e+004
3.498536e+002, 1.970812e+004
3.503357e+002, 1.975359e+004
3.508178e+002, 1.981108e+004
3.513000e+002, 1.985543e+004
3.517821e+002, 1.988561e+004
3.522642e+002, 1.992822e+004
3.527463e+002, 2.001167e+004
3.532284e+002, 2.009709e+004
3.537105e+002, 2.014308e+004
3.541927e+002, 2.014483e+004
3.546748e+002, 2.013330e+004
3.551569e+002, 2.013446e+004
3.556390e+002, 2.014170e+004
3.561211e+002, 2.012294e+004
3.566032e+002, 2.006429e+004
3.570854e+002, 1.999180e+004
3.575675e+002, 1.993078e+004
3.580496e+002, 1.987791e+004
3.585317e+002, 1.981788e+004
3.590138e+002, 1.973819e+004
3.594959e+002, 1.964979e+004
3.599781e+002, 1.956638e+004
3.604602e+002, 1.948799e+004
3.609423e+002, 1.942202e+004
3.614244e+002, 1.937877e+004
3.619065e+002, 1.935272e+004
3.623886e+002, 1.932963e+004
3.628708e+002, 1.930534e+004
3.633529e+002, 1.928598e+004
3.638350e+002, 1.927884e+004
3.643171e+002, 1.928241e+004
3.647992e+002, 1.928678e+004
3.652813e+002, 1.928760e+004
3.657635e+002, 1.928671e+004
3.662456e+002, 1.928900e+004
3.667277e+002, 1.929750e+004
3.672098e+002, 1.929984e+004
3.676919e+002, 1.929034e+004
3.681740e+002, 1.927132e+004
3.686562e+002, 1.924374e+004
3.691383e+002, 1.920567e+004
3.696204e+002, 1.917018e+004
3.701025e+002, 1.915811e+004
3.705846e+002, 1.917170e+004
3.710667e+002, 1.917222e+004
3.715489e+002, 1.913961e+004
3.720310e+002, 1.910220e+004
3.725131e+002, 1.909069e+004
3.729952e+002, 1.910453e+004
3.734773e+002, 1.911438e+004
3.739594e+002, 1.909547e+004
3.744416e+002, 1.905195e+004
3.749237e+002, 1.903033e+004
3.754058e+002, 1.903584e+004
3.758879e+002, 1.905482e+004
3.763700e+002, 1.909619e+004
3.768521e+002, 1.914630e+004
3.773343e+002, 1.917613e+004
3.778164e+002, 1.917177e+004
3.782985e+002, 1.914409e+004
3.787806e+002, 1.911707e+004
3.792627e+002, 1.908188e+004
3.797448e+002, 1.906256e+004
3.802270e+002, 1.906927e+004
3.807091e+002, 1.908783e+004
3.811912e+002, 1.911038e+004
3.816733e+002, 1.913316e+004
3.821554e+002, 1.914607e+004
3.826375e+002, 1.913495e+004
3.831197e+002, 1.909065e+004
3.836018e+002, 1.906970e+004
3.840839e+002, 1.909229e+004
3.845660e+002, 1.911423e+004
3.850481e+002, 1.911016e+004
3.855302e+002, 1.908850e+004
3.860124e+002, 1.907468e+004
3.864945e+002, 1.908653e+004
3.869766e+002, 1.911745e+004
3.874587e+002, 1.913201e+004
3.879408e+002, 1.910815e+004
3.884229e+002, 1.909393e+004
3.889051e+002, 1.908857e+004
3.893872e+002, 1.909770e+004
3.898693e+002, 1.913592e+004
3.903514e+002, 1.920538e+004
3.908335e+002, 1.927949e+004
3.913156e+002, 1.931355e+004
3.917978e+002, 1.929232e+004
3.922799e+002, 1.927227e+004
3.927620e+002, 1.927082e+004
3.932441e+002, 1.925634e+004
3.937262e+002, 1.918881e+004
3.942083e+002, 1.908695e+004
3.946905e+002, 1.901696e+004
3.951726e+002, 1.904232e+004
3.956547e+002, 1.915121e+004
3.961368e+002, 1.921976e+004
3.966189e+002, 1.922381e+004
3.971010e+002, 1.921921e+004
3.975832e+002, 1.922147e+004
3.980653e+002, 1.922734e+004
3.985474e+002, 1.923159e+004
3.990295e+002, 1.923166e+004
3.995116e+002, 1.923193e+004
3.999937e+002, 1.924284e+004
4.004759e+002, 1.926861e+004
4.009580e+002, 1.928265e+004
4.014401e+002, 1.925357e+004
4.019222e+002, 1.922937e+004
4.024043e+002, 1.924810e+004
4.028864e+002, 1.931032e+004
4.033686e+002, 1.938136e+004
4.038507e+002, 1.944006e+004
4.043328e+002, 1.948737e+004
4.048149e+002, 1.952503e+004
4.052970e+002, 1.954709e+004
4.057791e+002, 1.957189e+004
4.062613e+002, 1.961126e+004
4.067434e+002, 1.966214e+004
4.072255e+002, 1.972131e+004
4.077076e+002, 1.979389e+004
4.081897e+002, 1.986826e+004
4.086718e+002, 1.993733e+004
4.091540e+002, 2.000057e+004
4.096361e+002, 2.003852e+004
4.101182e+002, 2.003570e+004
4.106003e+002, 2.000709e+004
4.110824e+002, 1.998259e+004
4.115645e+002, 1.996576e+004
4.120467e+002, 1.993904e+004
4.125288e+002, 1.989049e+004
4.130109e+002, 1.982800e+004
4.134930e+002, 1.976270e+004
4.139751e+002, 1.969603e+004
4.144572e+002, 1.963432e+004
4.149394e+002, 1.958474e+004
4.154215e+002, 1.954811e+004
4.159036e+002, 1.951691e+004
4.163857e+002, 1.948414e+004
4.168678e+002, 1.946272e+004
4.173499e+002, 1.947219e+004
4.178321e+002, 1.950299e+004
4.183142e+002, 1.952096e+004
4.187963e+002, 1.950523e+004
4.192784e+002, 1.946677e+004
4.197605e+002, 1.944276e+004
4.202426e+002, 1.942013e+004
4.207248e+002, 1.942871e+004
4.212069e+002, 1.950007e+004
4.216890e+002, 1.958970e+004
4.221711e+002, 1.964929e+004
4.226532e+002, 1.966913e+004
4.231353e+002, 1.967594e+004
4.236175e+002, 1.970091e+004
4.240996e+002, 1.974680e+004
4.245817e+002, 1.979751e+004
4.250638e+002, 1.985469e+004
4.255459e+002, 1.991422e+004
4.260280e+002, 1.998832e+004
4.265102e+002, 2.006243e+004
4.269923e+002, 2.010852e+004
4.274744e+002, 2.010913e+004
4.279565e+002, 2.007455e+004
4.284386e+002, 2.004010e+004
4.289207e+002, 2.001633e+004
4.294029e+002, 1.997163e+004
4.298850e+002, 1.989250e+004
4.303671e+002, 1.980076e+004
4.308492e+002, 1.971197e+004
4.313313e+002, 1.962941e+004
4.318134e+002, 1.955125e+004
4.322956e+002, 1.946963e+004
4.327777e+002, 1.938352e+004
4.332598e+002, 1.932981e+004
4.337419e+002, 1.934205e+004
4.342241e+002, 1.934408e+004
4.347062e+002, 1.928980e+004
4.351883e+002, 1.920204e+004
4.356704e+002, 1.912437e+004
4.361525e+002, 1.907548e+004
4.366346e+002, 1.904627e+004
4.371168e+002, 1.902503e+004
4.375989e+002, 1.901239e+004
4.380810e+002, 1.900129e+004
4.385631e+002, 1.898411e+004
4.390452e+002, 1.897227e+004
4.395273e+002, 1.898352e+004
4.400095e+002, 1.902112e+004
4.404916e+002, 1.904850e+004
4.409737e+002, 1.904120e+004
4.414558e+002, 1.901095e+004
4.419379e+002, 1.897947e+004
4.424200e+002, 1.894842e+004
4.429022e+002, 1.892262e+004
4.433843e+002, 1.890707e+004
4.438664e+002, 1.890082e+004
4.443485e+002, 1.889534e+004
4.448306e+002, 1.888408e+004
4.453127e+002, 1.887932e+004
4.457949e+002, 1.888087e+004
4.462770e+002, 1.889413e+004
4.467591e+002, 1.894099e+004
4.472412e+002, 1.903628e+004
4.477233e+002, 1.914608e+004
4.482054e+002, 1.920524e+004
4.486876e+002, 1.919044e+004
4.491697e+002, 1.917630e+004
4.496518e+002, 1.915959e+004
4.501339e+002, 1.914925e+004
4.506160e+002, 1.915264e+004
4.510981e+002, 1.916956e+004
4.515803e+002, 1.919604e+004
4.520624e+002, 1.922982e+004
4.525445e+002, 1.927014e+004
4.530266e+002, 1.930599e+004
4.535087e+002, 1.932726e+004
4.539908e+002, 1.935550e+004
4.544730e+002, 1.938794e+004
4.549551e+002, 1.943125e+004
4.554372e+002, 1.949825e+004
4.559193e+002, 1.959088e+004
4.564014e+002, 1.968910e+004
4.568835e+002, 1.975968e+004
4.573657e+002, 1.979138e+004
4.578478e+002, 1.984554e+004
4.583299e+002, 1.994695e+004
4.588120e+002, 2.004935e+004
4.592941e+002, 2.012951e+004
4.597762e+002, 2.019531e+004
4.602584e+002, 2.027113e+004
4.607405e+002, 2.038071e+004
4.612226e+002, 2.049647e+004
4.617047e+002, 2.055366e+004
4.621868e+002, 2.053980e+004
4.626689e+002, 2.052968e+004
4.631511e+002, 2.057204e+004
4.636332e+002, 2.061365e+004
4.641153e+002, 2.060313e+004
4.645974e+002, 2.053529e+004
4.650795e+002, 2.043840e+004
4.655616e+002, 2.030299e+004
4.660438e+002, 2.015462e+004
4.665259e+002, 2.005568e+004
4.670080e+002, 2.001964e+004
4.674901e+002, 1.999815e+004
4.679722e+002, 1.995897e+004
4.684543e+002, 1.990330e+004
4.689365e+002, 1.984153e+004
4.694186e+002, 1.976250e+004
4.699007e+002, 1.968919e+004
4.703828e+002, 1.963827e+004
4.708649e+002, 1.960199e+004
4.713470e+002, 1.956514e+004
4.718292e+002, 1.952279e+004
4.723113e+002, 1.947369e+004
4.727934e+002, 1.941284e+004
4.732755e+002, 1.932858e+004
4.737576e+002, 1.927021e+004
4.742397e+002, 1.926478e+004
4.747219e+002, 1.926025e+004
4.752040e+002, 1.921481e+004
4.756861e+002, 1.914185e+004
4.761682e+002, 1.908593e+004
4.766503e+002, 1.907705e+004
4.771324e+002, 1.910265e+004
4.776146e+002, 1.911519e+004
4.780967e+002, 1.911624e+004
4.785788e+002, 1.909985e+004
4.790609e+002, 1.905014e+004
4.795430e+002, 1.899572e+004
4.800251e+002, 1.895795e+004
4.805073e+002, 1.893996e+004
4.809894e+002, 1.893194e+004
4.814715e+002, 1.892568e+004
4.819536e+002, 1.892145e+004
4.824357e+002, 1.892290e+004
4.829178e+002, 1.893630e+004
4.834000e+002, 1.894456e+004
4.838821e+002, 1.892458e+004
4.843642e+002, 1.890076e+004
4.848463e+002, 1.891115e+004
4.853284e+002, 1.897465e+004
4.858105e+002, 1.904374e+004
4.862927e+002, 1.906228e+004
4.867748e+002, 1.904079e+004
4.872569e+002, 1.904675e+004
4.877390e+002, 1.910117e+004
4.882211e+002, 1.917241e+004
4.887032e+002, 1.922725e+004
4.891854e+002, 1.926900e+004
4.896675e+002, 1.931398e+004
4.901496e+002, 1.936596e+004
4.906317e+002, 1.942190e+004
4.911138e+002, 1.947972e+004
4.915959e+002, 1.953913e+004
4.920781e+002, 1.959952e+004
4.925602e+002, 1.966020e+004
4.930423e+002, 1.972238e+004
4.935244e+002, 1.978946e+004
4.940065e+002, 1.986584e+004
4.944886e+002, 1.993858e+004
4.949708e+002, 2.000002e+004
4.954529e+002, 2.006287e+004
4.959350e+002, 2.014017e+004
4.964171e+002, 2.022919e+004
4.968992e+002, 2.031247e+004
4.973813e+002, 2.037255e+004
4.978635e+002, 2.041902e+004
4.983456e+002, 2.051651e+004
4.988277e+002, 2.070525e+004
4.993098e+002, 2.088742e+004
4.997919e+002, 2.103715e+004
5.002740e+002, 2.118164e+004
5.007562e+002, 2.134510e+004
5.012383e+002, 2.153191e+004
5.017204e+002, 2.173187e+004
5.022025e+002, 2.193262e+004
5.026846e+002, 2.213515e+004
5.031667e+002, 2.235867e+004
5.036489e+002, 2.261506e+004
5.041310e+002, 2.286922e+004
5.046131e+002, 2.311659e+004
5.050952e+002, 2.334595e+004
5.055773e+002, 2.353777e+004
5.060594e+002, 2.368552e+004
5.065416e+002, 2.380072e+004
5.070237e+002, 2.392679e+004
5.075058e+002, 2.403242e+004
5.079879e+002, 2.399835e+004
5.084700e+002, 2.378469e+004
5.089521e+002, 2.347137e+004
5.094343e+002, 2.311959e+004
5.099164e+002, 2.273072e+004
5.103985e+002, 2.235018e+004
5.108806e+002, 2.197912e+004
5.113627e+002, 2.162098e+004
5.118448e+002, 2.126563e+004
5.123270e+002, 2.092542e+004
5.128091e+002, 2.062333e+004
5.132912e+002, 2.037081e+004
5.137733e+002, 2.015481e+004
5.142554e+002, 1.994899e+004
5.147375e+002, 1.974029e+004
5.152197e+002, 1.957604e+004
5.157018e+002, 1.948023e+004
5.161839e+002, 1.940005e+004
5.166660e+002, 1.930645e+004
5.171481e+002, 1.920503e+004
5.176302e+002, 1.911842e+004
5.181124e+002, 1.906215e+004
5.185945e+002, 1.902189e+004
5.190766e+002, 1.895673e+004
5.195587e+002, 1.885216e+004
5.200408e+002, 1.876865e+004
5.205229e+002, 1.873776e+004
5.210051e+002, 1.871848e+004
5.214872e+002, 1.868305e+004
5.219693e+002, 1.863266e+004
5.224514e+002, 1.858778e+004
5.229335e+002, 1.855771e+004
5.234156e+002, 1.854226e+004
5.238978e+002, 1.855030e+004
5.243799e+002, 1.858406e+004
5.248620e+002, 1.860130e+004
5.253441e+002, 1.857552e+004
5.258262e+002, 1.852525e+004
5.263083e+002, 1.848999e+004
5.267905e+002, 1.847398e+004
5.272726e+002, 1.845889e+004
5.277547e+002, 1.843609e+004
5.282368e+002, 1.841406e+004
5.287189e+002, 1.840282e+004
5.292010e+002, 1.840284e+004
5.296832e+002, 1.840887e+004
5.301653e+002, 1.841862e+004
5.306474e+002, 1.843004e+004
5.311295e+002, 1.843011e+004
5.316116e+002, 1.840918e+004
5.320938e+002, 1.838757e+004
5.325759e+002, 1.836256e+004
5.330580e+002, 1.833954e+004
5.335401e+002, 1.832179e+004
5.340222e+002, 1.831036e+004
5.345043e+002, 1.830635e+004
5.349865e+002, 1.831346e+004
5.354686e+002, 1.833003e+004
5.359507e+002, 1.833813e+004
5.364328e+002, 1.833688e+004
5.369149e+002, 1.832857e+004
5.373970e+002, 1.831097e+004
5.378792e+002, 1.828908e+004
5.383613e+002, 1.826729e+004
5.388434e+002, 1.824636e+004
5.393255e+002, 1.822868e+004
5.398076e+002, 1.821896e+004
5.402897e+002, 1.821401e+004
5.407719e+002, 1.820379e+004
5.412540e+002, 1.818640e+004
5.417361e+002, 1.816961e+004
5.422182e+002, 1.815586e+004
5.427003e+002, 1.814800e+004
5.431824e+002, 1.815550e+004
5.436646e+002, 1.819704e+004
5.441467e+002, 1.822921e+004
5.446288e+002, 1.822828e+004
5.451109e+002, 1.821305e+004
5.455930e+002, 1.820791e+004
5.460751e+002, 1.821809e+004
5.465573e+002, 1.823489e+004
5.470394e+002, 1.824983e+004
5.475215e+002, 1.826268e+004
5.480036e+002, 1.827638e+004
5.484857e+002, 1.828761e+004
5.489678e+002, 1.830366e+004
5.494500e+002, 1.833347e+004
5.499321e+002, 1.836479e+004
5.504142e+002, 1.838340e+004
5.508963e+002, 1.838596e+004
5.513784e+002, 1.838204e+004
5.518605e+002, 1.838656e+004
5.523427e+002, 1.839763e+004
5.528248e+002, 1.838200e+004
5.533069e+002, 1.832096e+004
5.537890e+002, 1.826959e+004
5.542711e+002, 1.827132e+004
5.547532e+002, 1.829925e+004
5.552354e+002, 1.831597e+004
5.557175e+002, 1.831333e+004
5.561996e+002, 1.830468e+004
5.566817e+002, 1.830044e+004
5.571638e+002, 1.829589e+004
5.576459e+002, 1.828027e+004
5.581281e+002, 1.825160e+004
5.586102e+002, 1.821731e+004
5.590923e+002, 1.818295e+004
5.595744e+002, 1.814858e+004
5.600565e+002, 1.811538e+004
5.605386e+002, 1.807732e+004
5.610208e+002, 1.804781e+004
5.615029e+002, 1.803541e+004
5.619850e+002, 1.803021e+004
5.624671e+002, 1.801840e+004
5.629492e+002, 1.799844e+004
5.634313e+002, 1.798279e+004
5.639135e+002, 1.798635e+004
5.643956e+002, 1.800864e+004
5.648777e+002, 1.802497e+004
5.653598e+002, 1.804140e+004
5.658419e+002, 1.804123e+004
5.663240e+002, 1.801229e+004
5.668062e+002, 1.797010e+004
5.672883e+002, 1.792688e+004
5.677704e+002, 1.788518e+004
5.682525e+002, 1.785454e+004
5.687346e+002, 1.784783e+004
5.692167e+002, 1.785771e+004
5.696989e+002, 1.786329e+004
5.701810e+002, 1.786208e+004
5.706631e+002, 1.786335e+004
5.711452e+002, 1.787510e+004
5.716273e+002, 1.789322e+004
5.721094e+002, 1.790471e+004
5.725916e+002, 1.791804e+004
5.730737e+002, 1.791047e+004
5.735558e+002, 1.785046e+004
5.740379e+002, 1.778123e+004
5.745200e+002, 1.774914e+004
5.750021e+002, 1.775865e+004
5.754843e+002, 1.779161e+004
5.759664e+002, 1.783748e+004
5.764485e+002, 1.789051e+004
5.769306e+002, 1.791374e+004
5.774127e+002, 1.788425e+004
5.778948e+002, 1.786038e+004
5.783770e+002, 1.784873e+004
5.788591e+002, 1.784556e+004
5.793412e+002, 1.785239e+004
5.798233e+002, 1.786645e+004
5.803054e+002, 1.787658e+004
5.807875e+002, 1.787429e+004
5.812697e+002, 1.786237e+004
5.817518e+002, 1.784578e+004
5.822339e+002, 1.782355e+004
5.827161e+002, 1.780419e+004
5.831982e+002, 1.778698e+004
5.836803e+002, 1.777871e+004
5.841624e+002, 1.779351e+004
5.846445e+002, 1.783468e+004
5.851266e+002, 1.786703e+004
5.856088e+002, 1.788725e+004
5.860909e+002, 1.789077e+004
5.865730e+002, 1.785713e+004
5.870551e+002, 1.780078e+004
5.875372e+002, 1.777376e+004
5.880193e+002, 1.780604e+004
5.885015e+002, 1.786561e+004
5.889836e+002, 1.787934e+004
5.894657e+002, 1.781711e+004
5.899478e+002, 1.777469e+004
5.904299e+002, 1.775150e+004
5.909120e+002, 1.774617e+004
5.913942e+002, 1.776878e+004
5.918763e+002, 1.780748e+004
5.923584e+002, 1.784078e+004
5.928405e+002, 1.785918e+004
5.933226e+002, 1.786466e+004
5.938047e+002, 1.786040e+004
5.942869e+002, 1.784619e+004
5.947690e+002, 1.781585e+004
5.952511e+002, 1.775508e+004
5.957332e+002, 1.770063e+004
5.962153e+002, 1.769168e+004
5.966974e+002, 1.771657e+004
5.971796e+002, 1.773864e+004
5.976617e+002, 1.775356e+004
5.981438e+002, 1.776327e+004
5.986259e+002, 1.776972e+004
5.991080e+002, 1.777148e+004
5.995901e+002, 1.776832e+004
6.000723e+002, 1.775970e+004
6.005544e+002, 1.773634e+004
6.010365e+002, 1.768174e+004
6.015186e+002, 1.759414e+004
6.020007e+002, 1.756022e+004
6.024828e+002, 1.764176e+004
6.029650e+002, 1.770369e+004
6.034471e+002, 1.771632e+004
6.039292e+002, 1.770349e+004
6.044113e+002, 1.768482e+004
6.048934e+002, 1.766617e+004
6.053755e+002, 1.765139e+004
6.058577e+002, 1.764879e+004
6.063398e+002, 1.765310e+004
6.068219e+002, 1.764138e+004
6.073040e+002, 1.760969e+004
6.077861e+002, 1.758396e+004
6.082682e+002, 1.757670e+004
6.087504e+002, 1.758140e+004
6.092325e+002, 1.758679e+004
6.097146e+002, 1.759291e+004
6.101967e+002, 1.759862e+004
6.106788e+002, 1.760200e+004
6.111609e+002, 1.760590e+004
6.116431e+002, 1.761359e+004
6.121252e+002, 1.762416e+004
6.126073e+002, 1.763593e+004
6.130894e+002, 1.764855e+004
6.135715e+002, 1.765722e+004
6.140536e+002, 1.764834e+004
6.145358e+002, 1.760591e+004
6.150179e+002, 1.758619e+004
6.155000e+002, 1.761153e+004
6.159821e+002, 1.763778e+004
6.164642e+002, 1.765370e+004
6.169464e+002, 1.765596e+004
6.174285e+002, 1.763571e+004
6.179106e+002, 1.758285e+004
6.183927e+002, 1.753310e+004
6.188748e+002, 1.753407e+004
6.193569e+002, 1.757633e+004
6.198391e+002, 1.761183e+004
6.203212e+002, 1.763468e+004
6.208033e+002, 1.764214e+004
6.212854e+002, 1.762620e+004
6.217675e+002, 1.759139e+004
6.222496e+002, 1.756716e+004
6.227318e+002, 1.755400e+004
6.232139e+002, 1.754994e+004
6.236960e+002, 1.756083e+004
6.241781e+002, 1.757669e+004
6.246602e+002, 1.758888e+004
6.251423e+002, 1.759510e+004
6.256245e+002, 1.759446e+004
6.261066e+002, 1.758589e+004
6.265887e+002, 1.757024e+004
6.270708e+002, 1.755141e+004
6.275529e+002, 1.752976e+004
6.280350e+002, 1.750423e+004
6.285172e+002, 1.745283e+004
6.289993e+002, 1.741462e+004
6.294814e+002, 1.742821e+004
6.299635e+002, 1.748371e+004
6.304456e+002, 1.752590e+004
6.309277e+002, 1.751867e+004
6.314099e+002, 1.749671e+004
6.318920e+002, 1.750847e+004
6.323741e+002, 1.754158e+004
6.328562e+002, 1.753392e+004
6.333383e+002, 1.745927e+004
6.338204e+002, 1.738526e+004
6.343026e+002, 1.740260e+004
6.347847e+002, 1.752849e+004
6.352668e+002, 1.758194e+004
6.357489e+002, 1.749699e+004
6.362310e+002, 1.742917e+004
6.367131e+002, 1.743977e+004
6.371953e+002, 1.748305e+004
6.376774e+002, 1.750572e+004
6.381595e+002, 1.749582e+004
6.386416e+002, 1.747424e+004
6.391237e+002, 1.745996e+004
6.396058e+002, 1.745100e+004
6.400880e+002, 1.743281e+004
6.405701e+002, 1.739827e+004
6.410522e+002, 1.738498e+004
6.415343e+002, 1.742831e+004
6.420164e+002, 1.748424e+004
6.424985e+002, 1.748916e+004
6.429807e+002, 1.743922e+004
6.434628e+002, 1.739863e+004
6.439449e+002, 1.739234e+004
6.444270e+002, 1.739645e+004
6.449091e+002, 1.739399e+004
6.453912e+002, 1.738555e+004
6.458734e+002, 1.737580e+004
6.463555e+002, 1.736673e+004
6.468376e+002, 1.735590e+004
6.473197e+002, 1.733688e+004
6.478018e+002, 1.730408e+004
6.482839e+002, 1.729488e+004
6.487661e+002, 1.732985e+004
6.492482e+002, 1.736373e+004
6.497303e+002, 1.738928e+004
6.502124e+002, 1.740309e+004
6.506945e+002, 1.739671e+004
6.511766e+002, 1.736793e+004
6.516588e+002, 1.734081e+004
6.521409e+002, 1.733981e+004
6.526230e+002, 1.735152e+004
6.531051e+002, 1.734632e+004
6.535872e+002, 1.732302e+004
6.540693e+002, 1.730009e+004
6.545515e+002, 1.728531e+004
6.550336e+002, 1.727974e+004
6.555157e+002, 1.728638e+004
6.559978e+002, 1.731200e+004
6.564799e+002, 1.733454e+004
6.569620e+002, 1.735983e+004
6.574442e+002, 1.737599e+004
6.579263e+002, 1.737702e+004
6.584084e+002, 1.736411e+004
6.588905e+002, 1.733373e+004
6.593726e+002, 1.728477e+004
6.598547e+002, 1.724096e+004
6.603369e+002, 1.723528e+004
6.608190e+002, 1.726582e+004
6.613011e+002, 1.731100e+004
6.617832e+002, 1.738110e+004
6.622653e+002, 1.743339e+004
6.627474e+002, 1.743423e+004
6.632296e+002, 1.740550e+004
6.637117e+002, 1.739126e+004
6.641938e+002, 1.739553e+004
6.646759e+002, 1.740310e+004
6.651580e+002, 1.740846e+004
6.656401e+002, 1.741572e+004
6.661223e+002, 1.743263e+004
6.666044e+002, 1.745527e+004
6.670865e+002, 1.747162e+004
6.675686e+002, 1.747560e+004
6.680507e+002, 1.746899e+004
6.685328e+002, 1.744753e+004
6.690150e+002, 1.739715e+004
6.694971e+002, 1.739521e+004
6.699792e+002, 1.748885e+004
6.704613e+002, 1.757284e+004
6.709434e+002, 1.759313e+004
6.714255e+002, 1.757908e+004
6.719077e+002, 1.757388e+004
6.723898e+002, 1.758674e+004
6.728719e+002, 1.760795e+004
6.733540e+002, 1.762892e+004
6.738361e+002, 1.765557e+004
6.743182e+002, 1.770346e+004
6.748004e+002, 1.777027e+004
6.752825e+002, 1.782953e+004
6.757646e+002, 1.786565e+004
6.762467e+002, 1.788643e+004
6.767288e+002, 1.790963e+004
6.772109e+002, 1.793531e+004
6.776931e+002, 1.796363e+004
6.781752e+002, 1.799475e+004
6.786573e+002, 1.802803e+004
6.791394e+002, 1.807163e+004
6.796215e+002, 1.811434e+004
6.801036e+002, 1.813412e+004
6.805858e+002, 1.812193e+004
6.810679e+002, 1.810709e+004
6.815500e+002, 1.812059e+004
6.820321e+002, 1.815306e+004
6.825142e+002, 1.818448e+004
6.829963e+002, 1.821396e+004
6.834785e+002, 1.821742e+004
6.839606e+002, 1.817524e+004
6.844427e+002, 1.810585e+004
6.849248e+002, 1.805269e+004
6.854069e+002, 1.802997e+004
6.858890e+002, 1.799004e+004
6.863712e+002, 1.791787e+004
6.868533e+002, 1.784264e+004
6.873354e+002, 1.777701e+004
6.878175e+002, 1.772052e+004
6.882996e+002, 1.766842e+004
6.887817e+002, 1.761910e+004
6.892639e+002, 1.757840e+004
6.897460e+002, 1.756435e+004
6.902281e+002, 1.756968e+004
6.907102e+002, 1.753408e+004
6.911923e+002, 1.744189e+004
6.916744e+002, 1.737252e+004
6.921566e+002, 1.737834e+004
6.926387e+002, 1.742246e+004
6.931208e+002, 1.742956e+004
6.936029e+002, 1.738928e+004
6.940850e+002, 1.736341e+004
6.945671e+002, 1.737945e+004
6.950493e+002, 1.739596e+004
6.955314e+002, 1.738213e+004
6.960135e+002, 1.734937e+004
6.964956e+002, 1.732164e+004
6.969777e+002, 1.730786e+004
6.974598e+002, 1.730233e+004
6.979420e+002, 1.729843e+004
6.984241e+002, 1.729619e+004
6.989062e+002, 1.729885e+004
6.993883e+002, 1.731033e+004
6.998704e+002, 1.731536e+004
7.003525e+002, 1.730296e+004
7.008347e+002, 1.728377e+004
7.013168e+002, 1.726983e+004
7.017989e+002, 1.726092e+004
7.022810e+002, 1.726347e+004
7.027631e+002, 1.729510e+004
7.032452e+002, 1.732411e+004
7.037274e+002, 1.732190e+004
7.042095e+002, 1.730115e+004
7.046916e+002, 1.728785e+004
7.051737e+002, 1.729038e+004
7.056558e+002, 1.729994e+004
7.061379e+002, 1.730531e+004
7.066201e+002, 1.730723e+004
7.071022e+002, 1.732235e+004
7.075843e+002, 1.735900e+004
7.080664e+002, 1.738863e+004
7.085485e+002, 1.738628e+004
7.090306e+002, 1.738499e+004
7.095128e+002, 1.742858e+004
7.099949e+002, 1.751260e+004
7.104770e+002, 1.756280e+004
7.109591e+002, 1.752457e+004
7.114412e+002, 1.747457e+004
7.119233e+002, 1.748152e+004
7.124055e+002, 1.751400e+004
7.128876e+002, 1.750131e+004
7.133697e+002, 1.743032e+004
7.138518e+002, 1.735885e+004
7.143339e+002, 1.734597e+004
7.148160e+002, 1.738221e+004
7.152982e+002, 1.739815e+004
7.157803e+002, 1.739053e+004
7.162624e+002, 1.737010e+004
7.167445e+002, 1.732381e+004
7.172266e+002, 1.727842e+004
7.177087e+002, 1.725492e+004
7.181909e+002, 1.724886e+004
7.186730e+002, 1.723974e+004
7.191551e+002, 1.721289e+004
7.196372e+002, 1.719200e+004
7.201193e+002, 1.720002e+004
7.206014e+002, 1.722209e+004
7.210836e+002, 1.723081e+004
7.215657e+002, 1.722324e+004
7.220478e+002, 1.721927e+004
7.225299e+002, 1.723569e+004
7.230120e+002, 1.726295e+004
7.234941e+002, 1.726650e+004
7.239763e+002, 1.724230e+004
7.244584e+002, 1.720487e+004
7.249405e+002, 1.712904e+004
7.254226e+002, 1.706909e+004
7.259047e+002, 1.707013e+004
7.263868e+002, 1.710519e+004
7.268690e+002, 1.711494e+004
7.273511e+002, 1.707834e+004
7.278332e+002, 1.703625e+004
7.283153e+002, 1.700457e+004
7.287974e+002, 1.698654e+004
7.292795e+002, 1.699678e+004
7.297617e+002, 1.702846e+004
7.302438e+002, 1.704649e+004
7.307259e+002, 1.703119e+004
7.312080e+002, 1.699547e+004
7.316901e+002, 1.696220e+004
7.321722e+002, 1.692753e+004
7.326544e+002, 1.691280e+004
7.331365e+002, 1.693353e+004
7.336186e+002, 1.695271e+004
7.341007e+002, 1.695247e+004
7.345828e+002, 1.694354e+004
7.350649e+002, 1.694172e+004
7.355471e+002, 1.695041e+004
7.360292e+002, 1.694939e+004
7.365113e+002, 1.691686e+004
7.369934e+002, 1.688019e+004
7.374755e+002, 1.686573e+004
7.379576e+002, 1.687045e+004
7.384398e+002, 1.688319e+004
7.389219e+002, 1.689983e+004
7.394040e+002, 1.692023e+004
7.398861e+002, 1.694600e+004
7.403682e+002, 1.697690e+004
7.408503e+002, 1.699344e+004
7.413325e+002, 1.698568e+004
7.418146e+002, 1.698419e+004
7.422967e+002, 1.700929e+004
7.427788e+002, 1.703485e+004
7.432609e+002, 1.702564e+004
7.437430e+002, 1.698906e+004
7.442252e+002, 1.698853e+004
7.447073e+002, 1.707369e+004
7.451894e+002, 1.716839e+004
7.456715e+002, 1.722653e+004
7.461536e+002, 1.726069e+004
7.466357e+002, 1.728650e+004
7.471179e+002, 1.730904e+004
7.476000e+002, 1.733283e+004
7.480821e+002, 1.736200e+004
7.485642e+002, 1.739492e+004
7.490463e+002, 1.743191e+004
7.495284e+002, 1.748230e+004
7.500106e+002, 1.749368e+004
7.504927e+002, 1.743943e+004
7.509748e+002, 1.737216e+004
7.514569e+002, 1.732808e+004
7.519390e+002, 1.729708e+004
7.524211e+002, 1.725710e+004
7.529033e+002, 1.720112e+004
7.533854e+002, 1.714629e+004
7.538675e+002, 1.709892e+004
7.543496e+002, 1.705507e+004
7.548317e+002, 1.701274e+004
7.553138e+002, 1.697038e+004
7.557960e+002, 1.692466e+004
7.562781e+002, 1.687387e+004
7.567602e+002, 1.682213e+004
7.572423e+002, 1.676985e+004
7.577244e+002, 1.671790e+004
7.582065e+002, 1.669473e+004
7.586887e+002, 1.670864e+004
7.591708e+002, 1.672535e+004
7.596529e+002, 1.673404e+004
7.601350e+002, 1.673489e+004
7.606171e+002, 1.672843e+004
7.610992e+002, 1.671529e+004
7.615814e+002, 1.669266e+004
7.620635e+002, 1.663942e+004
7.625456e+002, 1.660032e+004
7.630277e+002, 1.661483e+004
7.635098e+002, 1.664575e+004
7.639919e+002, 1.663780e+004
7.644741e+002, 1.658754e+004
7.649562e+002, 1.654164e+004
7.654383e+002, 1.653724e+004
7.659204e+002, 1.656068e+004
7.664025e+002, 1.659229e+004
7.668846e+002, 1.663065e+004
7.673668e+002, 1.663026e+004
7.678489e+002, 1.657108e+004
7.683310e+002, 1.650899e+004
7.688131e+002, 1.649251e+004
7.692952e+002, 1.651265e+004
7.697773e+002, 1.651814e+004
7.702595e+002, 1.649791e+004
7.707416e+002, 1.647964e+004
7.712237e+002, 1.645898e+004
7.717058e+002, 1.644613e+004
7.721879e+002, 1.646048e+004
7.726700e+002, 1.648496e+004
7.731522e+002, 1.647921e+004
7.736343e+002, 1.642549e+004
7.741164e+002, 1.637544e+004
7.745985e+002, 1.638704e+004
7.750806e+002, 1.643611e+004
7.755627e+002, 1.647602e+004
7.760449e+002, 1.650253e+004
7.765270e+002, 1.649686e+004
7.770091e+002, 1.644557e+004
7.774912e+002, 1.638392e+004
7.779733e+002, 1.636737e+004
7.784554e+002, 1.640352e+004
7.789376e+002, 1.642211e+004
7.794197e+002, 1.641097e+004
7.799019e+002, 1.639867e+004
7.803840e+002, 1.639417e+004
7.808661e+002, 1.638879e+004
7.813482e+002, 1.636747e+004
7.818303e+002, 1.633484e+004
7.823124e+002, 1.632104e+004
7.827946e+002, 1.635309e+004
7.832767e+002, 1.639040e+004
7.837588e+002, 1.640018e+004
7.842409e+002, 1.639202e+004
7.847230e+002, 1.638083e+004
7.852051e+002, 1.636985e+004
7.856873e+002, 1.635831e+004
7.861694e+002, 1.634490e+004
7.866515e+002, 1.633380e+004
7.871336e+002, 1.633961e+004
7.876157e+002, 1.636845e+004
7.880978e+002, 1.637949e+004
7.885800e+002, 1.636016e+004
7.890621e+002, 1.634032e+004
7.895442e+002, 1.634091e+004
7.900263e+002, 1.634923e+004
7.905084e+002, 1.634362e+004
7.909905e+002, 1.632031e+004
7.914727e+002, 1.629926e+004
7.919548e+002, 1.628616e+004
7.924369e+002, 1.627627e+004
7.929190e+002, 1.626190e+004
7.934011e+002, 1.625029e+004
7.938832e+002, 1.625679e+004
7.943654e+002, 1.628282e+004
7.948475e+002, 1.630991e+004
7.953296e+002, 1.632137e+004
7.958117e+002, 1.632176e+004
7.962938e+002, 1.632300e+004
7.967759e+002, 1.632478e+004
7.972581e+002, 1.632314e+004
7.977402e+002, 1.631505e+004
7.982223e+002, 1.631095e+004
7.987044e+002, 1.632210e+004
7.991865e+002, 1.634496e+004
7.996686e+002, 1.635888e+004
8.001508e+002, 1.636998e+004
8.006329e+002, 1.636254e+004
8.011150e+002, 1.631614e+004
8.015971e+002, 1.627134e+004
8.020792e+002, 1.625141e+004
8.025613e+002, 1.624977e+004
8.030435e+002, 1.625325e+004
8.035256e+002, 1.625867e+004
8.040077e+002, 1.626244e+004
8.044898e+002, 1.626285e+004
8.049719e+002, 1.625983e+004
8.054540e+002, 1.625420e+004
8.059362e+002, 1.624527e+004
8.064183e+002, 1.622761e+004
8.069004e+002, 1.619944e+004
8.073825e+002, 1.617156e+004
8.078646e+002, 1.615670e+004
8.083467e+002, 1.615401e+004
8.088289e+002, 1.615331e+004
8.093110e+002, 1.615723e+004
8.097931e+002, 1.615556e+004
8.102752e+002, 1.613979e+004
8.107573e+002, 1.612460e+004
8.112394e+002, 1.612302e+004
8.117216e+002, 1.613144e+004
8.122037e+002, 1.613790e+004
8.126858e+002, 1.613485e+004
8.131679e+002, 1.614039e+004
8.136500e+002, 1.617507e+004
8.141321e+002, 1.620868e+004
8.146143e+002, 1.620811e+004
8.150964e+002, 1.618482e+004
8.155785e+002, 1.617279e+004
8.160606e+002, 1.618550e+004
8.165427e+002, 1.620009e+004
8.170248e+002, 1.617922e+004
8.175070e+002, 1.613914e+004
8.179891e+002, 1.614478e+004
8.184712e+002, 1.619688e+004
8.189533e+002, 1.624257e+004
8.194354e+002, 1.626461e+004
8.199175e+002, 1.626797e+004
8.203997e+002, 1.625618e+004
8.208818e+002, 1.622950e+004
8.213639e+002, 1.620259e+004
8.218460e+002, 1.616366e+004
8.223281e+002, 1.614273e+004
8.228102e+002, 1.615696e+004
8.232924e+002, 1.617657e+004
8.237745e+002, 1.619024e+004
8.242566e+002, 1.619293e+004
8.247387e+002, 1.617266e+004
8.252208e+002, 1.611870e+004
8.257029e+002, 1.606637e+004
8.261851e+002, 1.602964e+004
8.266672e+002, 1.601142e+004
8.271493e+002, 1.602735e+004
8.276314e+002, 1.606497e+004
8.281135e+002, 1.608571e+004
8.285956e+002, 1.607513e+004
8.290778e+002, 1.605407e+004
8.295599e+002, 1.605034e+004
8.300420e+002, 1.605905e+004
8.305241e+002, 1.603820e+004
8.310062e+002, 1.597852e+004
8.314883e+002, 1.595390e+004
8.319705e+002, 1.599502e+004
8.324526e+002, 1.605676e+004
8.329347e+002, 1.610444e+004
8.334168e+002, 1.613674e+004
8.338989e+002, 1.614134e+004
8.343810e+002, 1.609597e+004
8.348632e+002, 1.605776e+004
8.353453e+002, 1.602070e+004
8.358274e+002, 1.600272e+004
8.363095e+002, 1.602775e+004
8.367916e+002, 1.607655e+004
8.372737e+002, 1.611636e+004
8.377559e+002, 1.613816e+004
8.382380e+002, 1.614025e+004
8.387201e+002, 1.610783e+004
8.392022e+002, 1.606399e+004
8.396843e+002, 1.603856e+004
8.401664e+002, 1.602956e+004
8.406486e+002, 1.602903e+004
8.411307e+002, 1.603387e+004
8.416128e+002, 1.603520e+004
8.420949e+002, 1.602233e+004
8.425770e+002, 1.600036e+004
8.430591e+002, 1.599508e+004
8.435413e+002, 1.601060e+004
8.440234e+002, 1.602329e+004
8.445055e+002, 1.603723e+004
8.449876e+002, 1.603163e+004
8.454697e+002, 1.596918e+004
8.459518e+002, 1.588174e+004
8.464340e+002, 1.586638e+004
8.469161e+002, 1.596053e+004
8.473982e+002, 1.602345e+004
8.478803e+002, 1.602517e+004
8.483624e+002, 1.600921e+004
8.488445e+002, 1.598883e+004
8.493267e+002, 1.596880e+004
8.498088e+002, 1.595472e+004
8.502909e+002, 1.594663e+004
8.507730e+002, 1.593623e+004
8.512551e+002, 1.591278e+004
8.517372e+002, 1.588985e+004
8.522194e+002, 1.588618e+004
8.527015e+002, 1.589542e+004
8.531836e+002, 1.590230e+004
8.536657e+002, 1.590416e+004
8.541478e+002, 1.590433e+004
8.546299e+002, 1.590437e+004
8.551121e+002, 1.590718e+004
8.555942e+002, 1.592536e+004
8.560763e+002, 1.596420e+004
8.565584e+002, 1.596743e+004
8.570405e+002, 1.591614e+004
8.575226e+002, 1.587403e+004
8.580048e+002, 1.586840e+004
8.584869e+002, 1.588616e+004
8.589690e+002, 1.591559e+004
8.594511e+002, 1.595854e+004
8.599332e+002, 1.598066e+004
8.604153e+002, 1.597168e+004
8.608975e+002, 1.595336e+004
8.613796e+002, 1.591332e+004
8.618617e+002, 1.588103e+004
8.623438e+002, 1.589238e+004
8.628259e+002, 1.593431e+004
8.633080e+002, 1.596143e+004
8.637902e+002, 1.595316e+004
8.642723e+002, 1.593470e+004
8.647544e+002, 1.593072e+004
8.652365e+002, 1.592798e+004
8.657186e+002, 1.589698e+004
8.662007e+002, 1.584657e+004
8.666829e+002, 1.581743e+004
8.671650e+002, 1.582451e+004
8.676471e+002, 1.584667e+004
8.681292e+002, 1.586259e+004
8.686113e+002, 1.587078e+004
8.690934e+002, 1.585747e+004
8.695756e+002, 1.581784e+004
8.700577e+002, 1.579188e+004
8.705398e+002, 1.578937e+004
8.710219e+002, 1.580027e+004
8.715040e+002, 1.582252e+004
8.719861e+002, 1.585061e+004
8.724683e+002, 1.586447e+004
8.729504e+002, 1.586140e+004
8.734325e+002, 1.584838e+004
8.739146e+002, 1.581698e+004
8.743967e+002, 1.578530e+004
8.748788e+002, 1.575828e+004
8.753610e+002, 1.573692e+004
8.758431e+002, 1.572595e+004
8.763252e+002, 1.572437e+004
8.768073e+002, 1.571516e+004
8.772894e+002, 1.567545e+004
8.777715e+002, 1.564032e+004
8.782537e+002, 1.563701e+004
8.787358e+002, 1.565580e+004
8.792179e+002, 1.568844e+004
8.797000e+002, 1.572906e+004
8.801821e+002, 1.576578e+004
8.806642e+002, 1.579236e+004
8.811464e+002, 1.580694e+004
8.816285e+002, 1.580305e+004
8.821106e+002, 1.578375e+004
8.825927e+002, 1.576747e+004
8.830748e+002, 1.575527e+004
8.835569e+002, 1.573612e+004
8.840391e+002, 1.570379e+004
8.845212e+002, 1.567018e+004
8.850033e+002, 1.564730e+004
8.854854e+002, 1.563559e+004
8.859675e+002, 1.564312e+004
8.864496e+002, 1.569206e+004
8.869318e+002, 1.571597e+004
8.874139e+002, 1.568439e+004
8.878960e+002, 1.564914e+004
8.883781e+002, 1.563892e+004
8.888602e+002, 1.564570e+004
8.893423e+002, 1.565528e+004
8.898245e+002, 1.566890e+004
8.903066e+002, 1.567373e+004
8.907887e+002, 1.566225e+004
8.912708e+002, 1.564557e+004
8.917529e+002, 1.562894e+004
8.922350e+002, 1.561202e+004
8.927172e+002, 1.559017e+004
8.931993e+002, 1.556572e+004
8.936814e+002, 1.555225e+004
8.941635e+002, 1.556206e+004
8.946456e+002, 1.557784e+004
8.951277e+002, 1.557485e+004
8.956099e+002, 1.556293e+004
8.960920e+002, 1.557182e+004
8.965741e+002, 1.559852e+004
8.970562e+002, 1.559979e+004
8.975383e+002, 1.555356e+004
8.980204e+002, 1.550309e+004
8.985026e+002, 1.552025e+004
8.989847e+002, 1.559652e+004
8.994668e+002, 1.561691e+004
8.999489e+002, 1.557077e+004
9.004310e+002, 1.552799e+004
9.009131e+002, 1.550581e+004
9.013953e+002, 1.549194e+004
9.018774e+002, 1.547234e+004
9.023595e+002, 1.545299e+004
9.028416e+002, 1.546226e+004
9.033237e+002, 1.553370e+004
9.038058e+002, 1.557314e+004
9.042880e+002, 1.556770e+004
9.047701e+002, 1.554702e+004
9.052522e+002, 1.550712e+004
9.057343e+002, 1.546776e+004
9.062164e+002, 1.545391e+004
9.066985e+002, 1.546713e+004
9.071807e+002, 1.548724e+004
9.076628e+002, 1.551157e+004
9.081449e+002, 1.553560e+004
9.086270e+002, 1.555469e+004
9.091091e+002, 1.557339e+004
9.095912e+002, 1.560923e+004
9.100734e+002, 1.564916e+004
9.105555e+002, 1.564981e+004
9.110376e+002, 1.559078e+004
9.115197e+002, 1.551844e+004
9.120018e+002, 1.547205e+004
9.124839e+002, 1.545191e+004
9.129661e+002, 1.547504e+004
9.134482e+002, 1.552868e+004
9.139303e+002, 1.554976e+004
9.144124e+002, 1.552169e+004
9.148945e+002, 1.547974e+004
9.153766e+002, 1.545313e+004
9.158588e+002, 1.544047e+004
9.163409e+002, 1.543798e+004
9.168230e+002, 1.544625e+004
9.173051e+002, 1.546164e+004
9.177872e+002, 1.548858e+004
9.182693e+002, 1.550639e+004
9.187515e+002, 1.550229e+004
9.192336e+002, 1.548680e+004
9.197157e+002, 1.547466e+004
9.201978e+002, 1.546542e+004
9.206799e+002, 1.546339e+004
9.211620e+002, 1.548282e+004
9.216442e+002, 1.548943e+004
9.221263e+002, 1.546232e+004
9.226084e+002, 1.543618e+004
9.230905e+002, 1.544287e+004
9.235726e+002, 1.546708e+004
9.240547e+002, 1.546869e+004
9.245369e+002, 1.543316e+004
9.250190e+002, 1.540571e+004
9.255011e+002, 1.540477e+004
9.259832e+002, 1.541484e+004
9.264653e+002, 1.543865e+004
9.269474e+002, 1.546027e+004
9.274296e+002, 1.544924e+004
9.279117e+002, 1.540966e+004
9.283938e+002, 1.538585e+004
9.288759e+002, 1.540988e+004
9.293580e+002, 1.544486e+004
9.298401e+002, 1.544780e+004
9.303223e+002, 1.543351e+004
9.308044e+002, 1.542741e+004
9.312865e+002, 1.543158e+004
9.317686e+002, 1.544553e+004
9.322507e+002, 1.546847e+004
9.327328e+002, 1.548686e+004
9.332150e+002, 1.548295e+004
9.336971e+002, 1.546314e+004
9.341792e+002, 1.545118e+004
9.346613e+002, 1.544706e+004
9.351434e+002, 1.544990e+004
9.356255e+002, 1.546015e+004
9.361077e+002, 1.547328e+004
9.365898e+002, 1.548740e+004
9.370719e+002, 1.550068e+004
9.375540e+002, 1.551057e+004
9.380361e+002, 1.551970e+004
9.385182e+002, 1.550892e+004
9.390004e+002, 1.546120e+004
9.394825e+002, 1.542662e+004
9.399646e+002, 1.541992e+004
9.404467e+002, 1.543075e+004
9.409288e+002, 1.546289e+004
9.414109e+002, 1.550706e+004
9.418931e+002, 1.551925e+004
9.423752e+002, 1.547188e+004
9.428573e+002, 1.544080e+004
9.433394e+002, 1.545139e+004
9.438215e+002, 1.546208e+004
9.443036e+002, 1.544251e+004
9.447858e+002, 1.541570e+004
9.452679e+002, 1.542202e+004
9.457500e+002, 1.546099e+004
9.462321e+002, 1.547653e+004
9.467142e+002, 1.542085e+004
9.471964e+002, 1.536672e+004
9.476785e+002, 1.536891e+004
9.481606e+002, 1.538779e+004
9.486427e+002, 1.537460e+004
9.491248e+002, 1.533893e+004
9.496069e+002, 1.531937e+004
9.500891e+002, 1.532965e+004
9.505712e+002, 1.534517e+004
9.510533e+002, 1.533838e+004
9.515354e+002, 1.532572e+004
9.520175e+002, 1.534160e+004
9.524996e+002, 1.537357e+004
9.529818e+002, 1.538433e+004
9.534639e+002, 1.536889e+004
9.539460e+002, 1.534520e+004
9.544281e+002, 1.532348e+004
9.549102e+002, 1.530835e+004
9.553923e+002, 1.531314e+004
9.558745e+002, 1.533454e+004
9.563566e+002, 1.533908e+004
9.568387e+002, 1.532567e+004
9.573208e+002, 1.530971e+004
9.578029e+002, 1.529500e+004
9.582850e+002, 1.528329e+004
9.587672e+002, 1.527569e+004
9.592493e+002, 1.527290e+004
9.597314e+002, 1.527972e+004
9.602135e+002, 1.530218e+004
9.606956e+002, 1.530994e+004
9.611777e+002, 1.528962e+004
9.616599e+002, 1.528013e+004
9.621420e+002, 1.530462e+004
9.626241e+002, 1.534094e+004
9.631062e+002, 1.536763e+004
9.635883e+002, 1.538446e+004
9.640704e+002, 1.537226e+004
9.645526e+002, 1.527195e+004
9.650347e+002, 1.523131e+004
9.655168e+002, 1.531610e+004
9.659989e+002, 1.540726e+004
9.664810e+002, 1.544861e+004
9.669631e+002, 1.545131e+004
9.674453e+002, 1.543011e+004
9.679274e+002, 1.538601e+004
9.684095e+002, 1.535114e+004
9.688916e+002, 1.533048e+004
9.693737e+002, 1.532619e+004
9.698558e+002, 1.535697e+004
9.703380e+002, 1.539039e+004
9.708201e+002, 1.538951e+004
9.713022e+002, 1.536577e+004
9.717843e+002, 1.535593e+004
9.722664e+002, 1.537305e+004
9.727485e+002, 1.538849e+004
9.732307e+002, 1.537541e+004
9.737128e+002, 1.535882e+004
9.741949e+002, 1.535804e+004
9.746770e+002, 1.537371e+004
9.751591e+002, 1.541273e+004
9.756412e+002, 1.546964e+004
9.761234e+002, 1.552065e+004
9.766055e+002, 1.555247e+004
9.770876e+002, 1.557614e+004
9.775698e+002, 1.560458e+004
9.780519e+002, 1.563458e+004
9.785340e+002, 1.565198e+004
9.790161e+002, 1.566342e+004
9.794982e+002, 1.570043e+004
9.799803e+002, 1.576988e+004
9.804625e+002, 1.585135e+004
9.809446e+002, 1.593143e+004
9.814267e+002, 1.600274e+004
9.819088e+002, 1.604470e+004
9.823909e+002, 1.606061e+004
9.828730e+002, 1.608093e+004
9.833552e+002, 1.610732e+004
9.838373e+002, 1.615343e+004
9.843194e+002, 1.622955e+004
9.848015e+002, 1.629286e+004
9.852836e+002, 1.629743e+004
9.857657e+002, 1.625144e+004
9.862479e+002, 1.619420e+004
9.867300e+002, 1.612575e+004
9.872121e+002, 1.604321e+004
9.876942e+002, 1.593683e+004
9.881763e+002, 1.584332e+004
9.886584e+002, 1.578191e+004
9.891406e+002, 1.573928e+004
9.896227e+002, 1.570091e+004
9.901048e+002, 1.566642e+004
9.905869e+002, 1.562148e+004
9.910690e+002, 1.554747e+004
9.915511e+002, 1.550011e+004
9.920333e+002, 1.550764e+004
9.925154e+002, 1.551416e+004
9.929975e+002, 1.548627e+004
9.934796e+002, 1.544086e+004
9.939617e+002, 1.539834e+004
9.944438e+002, 1.535631e+004
9.949260e+002, 1.534421e+004
9.954081e+002, 1.540272e+004
9.958902e+002, 1.543713e+004
9.963723e+002, 1.540890e+004
9.968544e+002, 1.536863e+004
9.973365e+002, 1.534691e+004
9.978187e+002, 1.533953e+004
9.983008e+002, 1.533542e+004
9.987829e+002, 1.533315e+004
9.992650e+002, 1.533141e+004
9.997471e+002, 1.531778e+004
1.000229e+003, 1.531944e+004
1.000711e+003, 1.536408e+004
1.001193e+003, 1.541769e+004
1.001676e+003, 1.545634e+004
1.002158e+003, 1.547420e+004
1.002640e+003, 1.546017e+004
1.003122e+003, 1.540718e+004
1.003604e+003, 1.536550e+004
1.004086e+003, 1.537350e+004
1.004568e+003, 1.539341e+004
1.005050e+003, 1.539395e+004
1.005533e+003, 1.538783e+004
1.006015e+003, 1.539919e+004
1.006497e+003, 1.542310e+004
1.006979e+003, 1.542889e+004
1.007461e+003, 1.540066e+004
1.007943e+003, 1.537661e+004
1.008425e+003, 1.539546e+004
1.008907e+003, 1.543375e+004
1.009389e+003, 1.547133e+004
1.009872e+003, 1.550094e+004
1.010354e+003, 1.550032e+004
1.010836e+003, 1.547444e+004
1.011318e+003, 1.546520e+004
1.011800e+003, 1.549887e+004
1.012282e+003, 1.554125e+004
1.012764e+003, 1.554201e+004
1.013246e+003, 1.552382e+004
1.013729e+003, 1.554420e+004
1.014211e+003, 1.559151e+004
1.014693e+003, 1.561907e+004
1.015175e+003, 1.561548e+004
1.015657e+003, 1.558573e+004
1.016139e+003, 1.552994e+004
1.016621e+003, 1.547024e+004
1.017103e+003, 1.544884e+004
1.017585e+003, 1.545703e+004
1.018068e+003, 1.545945e+004
1.018550e+003, 1.545435e+004
1.019032e+003, 1.543396e+004
1.019514e+003, 1.539633e+004
1.019996e+003, 1.535806e+004
1.020478e+003, 1.533200e+004
1.020960e+003, 1.531726e+004
1.021442e+003, 1.531690e+004
1.021924e+003, 1.532983e+004
1.022407e+003, 1.532424e+004
1.022889e+003, 1.529785e+004
1.023371e+003, 1.527387e+004
1.023853e+003, 1.525867e+004
1.024335e+003, 1.525452e+004
1.024817e+003, 1.526675e+004
1.025299e+003, 1.528555e+004
1.025781e+003, 1.527507e+004
1.026264e+003, 1.522857e+004
1.026746e+003, 1.521095e+004
1.027228e+003, 1.522950e+004
1.027710e+003, 1.525437e+004
1.028192e+003, 1.528167e+004
1.028674e+003, 1.529350e+004
1.029156e+003, 1.526648e+004
1.029638e+003, 1.521433e+004
1.030120e+003, 1.519383e+004
1.030603e+003, 1.521446e+004
1.031085e+003, 1.523103e+004
1.031567e+003, 1.523756e+004
1.032049e+003, 1.525538e+004
1.032531e+003, 1.530433e+004
1.033013e+003, 1.534699e+004
1.033495e+003, 1.534168e+004
1.033977e+003, 1.529838e+004
1.034459e+003, 1.526698e+004
1.034942e+003, 1.524916e+004
1.035424e+003, 1.523991e+004
1.035906e+003, 1.524872e+004
1.036388e+003, 1.524940e+004
1.036870e+003, 1.522239e+004
1.037352e+003, 1.519483e+004
1.037834e+003, 1.519932e+004
1.038316e+003, 1.522830e+004
1.038799e+003, 1.523605e+004
1.039281e+003, 1.520675e+004
1.039763e+003, 1.518705e+004
1.040245e+003, 1.517238e+004
1.040727e+003, 1.517309e+004
1.041209e+003, 1.522201e+004
1.041691e+003, 1.526465e+004
1.042173e+003, 1.523416e+004
1.042656e+003, 1.514774e+004
1.043138e+003, 1.509692e+004
1.043620e+003, 1.510071e+004
1.044102e+003, 1.510848e+004
1.044584e+003, 1.512780e+004
1.045066e+003, 1.513753e+004
1.045548e+003, 1.511293e+004
1.046030e+003, 1.508828e+004
1.046512e+003, 1.510627e+004
1.046995e+003, 1.515595e+004
1.047477e+003, 1.518256e+004
1.047959e+003, 1.517191e+004
1.048441e+003, 1.515767e+004
1.048923e+003, 1.513558e+004
1.049405e+003, 1.512241e+004
1.049887e+003, 1.513636e+004
1.050369e+003, 1.515411e+004
1.050851e+003, 1.514962e+004
1.051334e+003, 1.512741e+004
1.051816e+003, 1.511001e+004
1.052298e+003, 1.509787e+004
1.052780e+003, 1.509955e+004
1.053262e+003, 1.511818e+004
1.053744e+003, 1.514942e+004
1.054226e+003, 1.521153e+004
1.054708e+003, 1.526944e+004
1.055191e+003, 1.528578e+004
1.055673e+003, 1.526587e+004
1.056155e+003, 1.523549e+004
1.056637e+003, 1.519266e+004
1.057119e+003, 1.516491e+004
1.057601e+003, 1.516566e+004
1.058083e+003, 1.517699e+004
1.058565e+003, 1.519794e+004
1.059047e+003, 1.521885e+004
1.059530e+003, 1.524060e+004
1.060012e+003, 1.525358e+004
1.060494e+003, 1.522479e+004
1.060976e+003, 1.513016e+004
1.061458e+003, 1.507203e+004
1.061940e+003, 1.512169e+004
1.062422e+003, 1.517421e+004
1.062904e+003, 1.516898e+004
1.063386e+003, 1.514388e+004
1.063869e+003, 1.514258e+004
1.064351e+003, 1.515565e+004
1.064833e+003, 1.514484e+004
1.065315e+003, 1.509752e+004
1.065797e+003, 1.505129e+004
1.066279e+003, 1.501420e+004
1.066761e+003, 1.499132e+004
1.067243e+003, 1.498882e+004
1.067726e+003, 1.499952e+004
1.068208e+003, 1.502185e+004
1.068690e+003, 1.505026e+004
1.069172e+003, 1.507809e+004
1.069654e+003, 1.510442e+004
1.070136e+003, 1.511434e+004
1.070618e+003, 1.509350e+004
1.071100e+003, 1.506433e+004
1.071583e+003, 1.502298e+004
1.072065e+003, 1.499212e+004
1.072547e+003, 1.500547e+004
1.073029e+003, 1.504171e+004
1.073511e+003, 1.504976e+004
1.073993e+003, 1.501841e+004
1.074475e+003, 1.499960e+004
1.074957e+003, 1.503642e+004
1.075439e+003, 1.506510e+004
1.075922e+003, 1.503597e+004
1.076404e+003, 1.500021e+004
1.076886e+003, 1.501094e+004
1.077368e+003, 1.504654e+004
1.077850e+003, 1.505728e+004
1.078332e+003, 1.503615e+004
1.078814e+003, 1.502605e+004
1.079296e+003, 1.505587e+004
1.079779e+003, 1.508628e+004
1.080261e+003, 1.510206e+004
1.080743e+003, 1.510749e+004
1.081225e+003, 1.510213e+004
1.081707e+003, 1.509067e+004
1.082189e+003, 1.507874e+004
1.082671e+003, 1.506760e+004
1.083153e+003, 1.505735e+004
1.083635e+003, 1.504830e+004
1.084118e+003, 1.503974e+004
1.084600e+003, 1.502714e+004
1.085082e+003, 1.501937e+004
1.085564e+003, 1.502850e+004
1.086046e+003, 1.504331e+004
1.086528e+003, 1.504624e+004
1.087010e+003, 1.503833e+004
1.087492e+003, 1.503662e+004
1.087974e+003, 1.504830e+004
1.088457e+003, 1.506252e+004
1.088939e+003, 1.508610e+004
1.089421e+003, 1.509824e+004
1.089903e+003, 1.507587e+004
1.090385e+003, 1.504199e+004
1.090867e+003, 1.502453e+004
1.091349e+003, 1.502115e+004
1.091831e+003, 1.501131e+004
1.092314e+003, 1.498718e+004
1.092796e+003, 1.496622e+004
1.093278e+003, 1.494948e+004
1.093760e+003, 1.494383e+004
1.094242e+003, 1.496149e+004
1.094724e+003, 1.498446e+004
1.095206e+003, 1.499726e+004
1.095688e+003, 1.500027e+004
1.096171e+003, 1.499639e+004
1.096653e+003, 1.498410e+004
1.097135e+003, 1.498186e+004
1.097617e+003, 1.501277e+004
1.098099e+003, 1.503157e+004
1.098581e+003, 1.501015e+004
1.099063e+003, 1.497960e+004
1.099545e+003, 1.496148e+004
1.100027e+003, 1.495418e+004
1.100510e+003, 1.495311e+004
1.100992e+003, 1.495780e+004
1.101474e+003, 1.496112e+004
1.101956e+003, 1.496305e+004
1.102438e+003, 1.496151e+004
1.102920e+003, 1.495805e+004
1.103402e+003, 1.494903e+004
1.103884e+003, 1.491805e+004
1.104366e+003, 1.488835e+004
1.104849e+003, 1.489894e+004
1.105331e+003, 1.494877e+004
1.105813e+003, 1.498464e+004
1.106295e+003, 1.499732e+004
1.106777e+003, 1.499763e+004
1.107259e+003, 1.497254e+004
1.107741e+003, 1.495235e+004
1.108223e+003, 1.496045e+004
1.108706e+003, 1.497280e+004
1.109188e+003, 1.495984e+004
1.109670e+003, 1.492648e+004
1.110152e+003, 1.490292e+004
1.110634e+003, 1.489158e+004
1.111116e+003, 1.488825e+004
1.111598e+003, 1.490041e+004
1.112080e+003, 1.491040e+004
1.112563e+003, 1.491584e+004
1.113045e+003, 1.491481e+004
1.113527e+003, 1.489835e+004
1.114009e+003, 1.487601e+004
1.114491e+003, 1.487661e+004
1.114973e+003, 1.491089e+004
1.115455e+003, 1.492216e+004
1.115937e+003, 1.489701e+004
1.116419e+003, 1.487165e+004
1.116901e+003, 1.484136e+004
1.117384e+003, 1.482870e+004
1.117866e+003, 1.485964e+004
1.118348e+003, 1.490560e+004
1.118830e+003, 1.491377e+004
1.119312e+003, 1.488219e+004
1.119794e+003, 1.488166e+004
1.120276e+003, 1.492508e+004
1.120758e+003, 1.496714e+004
1.121241e+003, 1.501252e+004
1.121723e+003, 1.503404e+004
1.122205e+003, 1.501156e+004
1.122687e+003, 1.497350e+004
1.123169e+003, 1.495439e+004
1.123651e+003, 1.494949e+004
1.124133e+003, 1.492865e+004
1.124615e+003, 1.488424e+004
1.125098e+003, 1.486379e+004
1.125580e+003, 1.487415e+004
1.126062e+003, 1.489027e+004
1.126544e+003, 1.490780e+004
1.127026e+003, 1.491652e+004
1.127508e+003, 1.490691e+004
1.127990e+003, 1.488458e+004
1.128472e+003, 1.486051e+004
1.128954e+003, 1.483437e+004
1.129437e+003, 1.482293e+004
1.129919e+003, 1.482676e+004
1.130401e+003, 1.483573e+004
1.130883e+003, 1.484777e+004
1.131365e+003, 1.486458e+004
1.131847e+003, 1.488781e+004
1.132329e+003, 1.491115e+004
1.132811e+003, 1.492579e+004
1.133293e+003, 1.493175e+004
1.133776e+003, 1.492556e+004
1.134258e+003, 1.490938e+004
1.134740e+003, 1.490859e+004
1.135222e+003, 1.492426e+004
1.135704e+003, 1.492660e+004
1.136186e+003, 1.490379e+004
1.136668e+003, 1.488489e+004
1.137150e+003, 1.489854e+004
1.137633e+003, 1.493406e+004
1.138115e+003, 1.498748e+004
1.138597e+003, 1.504120e+004
1.139079e+003, 1.502268e+004
1.139561e+003, 1.495159e+004
1.140043e+003, 1.492806e+004
1.140525e+003, 1.496981e+004
1.141007e+003, 1.500608e+004
1.141490e+003, 1.499099e+004
1.141972e+003, 1.495820e+004
1.142454e+003, 1.494531e+004
1.142936e+003, 1.494309e+004
1.143418e+003, 1.493925e+004
1.143900e+003, 1.493321e+004
1.144382e+003, 1.491779e+004
1.144864e+003, 1.489968e+004
1.145346e+003, 1.490659e+004
1.145828e+003, 1.494855e+004
1.146311e+003, 1.499072e+004
1.146793e+003, 1.500349e+004
1.147275e+003, 1.500773e+004
1.147757e+003, 1.503525e+004
1.148239e+003, 1.505478e+004
1.148721e+003, 1.500810e+004
1.149203e+003, 1.493183e+004
1.149685e+003, 1.490544e+004
1.150168e+003, 1.493898e+004
1.150650e+003, 1.497200e+004
1.151132e+003, 1.497554e+004
1.151614e+003, 1.497900e+004
1.152096e+003, 1.500317e+004
1.152578e+003, 1.502602e+004
1.153060e+003, 1.502610e+004
1.153542e+003, 1.502093e+004
1.154025e+003, 1.503895e+004
1.154507e+003, 1.507067e+004
1.154989e+003, 1.507618e+004
1.155471e+003, 1.504052e+004
1.155953e+003, 1.501446e+004
1.156435e+003, 1.501800e+004
1.156917e+003, 1.502171e+004
1.157399e+003, 1.500766e+004
1.157881e+003, 1.499964e+004
1.158364e+003, 1.502657e+004
1.158846e+003, 1.506471e+004
1.159328e+003, 1.507119e+004
1.159810e+003, 1.504390e+004
1.160292e+003, 1.502393e+004
1.160774e+003, 1.500912e+004
1.161256e+003, 1.500695e+004
1.161738e+003, 1.502657e+004
1.162220e+003, 1.504548e+004
1.162703e+003, 1.506237e+004
1.163185e+003, 1.506470e+004
1.163667e+003, 1.503112e+004
1.164149e+003, 1.497913e+004
1.164631e+003, 1.497185e+004
1.165113e+003, 1.502249e+004
1.165595e+003, 1.502964e+004
1.166077e+003, 1.497533e+004
1.166560e+003, 1.496212e+004
1.167042e+003, 1.502096e+004
1.167524e+003, 1.507851e+004
1.168006e+003, 1.509161e+004
1.168488e+003, 1.507818e+004
1.168970e+003, 1.506351e+004
1.169452e+003, 1.504614e+004
1.169934e+003, 1.501523e+004
1.170417e+003, 1.497248e+004
1.170899e+003, 1.494019e+004
1.171381e+003, 1.492172e+004
1.171863e+003, 1.493786e+004
1.172345e+003, 1.499441e+004
1.172827e+003, 1.506079e+004
1.173309e+003, 1.511709e+004
1.173791e+003, 1.514683e+004
1.174273e+003, 1.510380e+004
1.174755e+003, 1.502223e+004
1.175238e+003, 1.497652e+004
1.175720e+003, 1.496446e+004
1.176202e+003, 1.498431e+004
1.176684e+003, 1.502503e+004
1.177166e+003, 1.504938e+004
1.177648e+003, 1.504149e+004
1.178130e+003, 1.501616e+004
1.178612e+003, 1.496613e+004
1.179095e+003, 1.492806e+004
1.179577e+003, 1.495110e+004
1.180059e+003, 1.499717e+004
1.180541e+003, 1.502599e+004
1.181023e+003, 1.503803e+004
1.181505e+003, 1.503982e+004
1.181987e+003, 1.503503e+004
1.182469e+003, 1.503274e+004
1.182952e+003, 1.503601e+004
1.183434e+003, 1.504314e+004
1.183916e+003, 1.505411e+004
1.184398e+003, 1.506737e+004
1.184880e+003, 1.508581e+004
1.185362e+003, 1.510266e+004
1.185844e+003, 1.511461e+004
1.186326e+003, 1.511892e+004
1.186808e+003, 1.510521e+004
1.187291e+003, 1.506794e+004
1.187773e+003, 1.505459e+004
1.188255e+003, 1.509466e+004
1.188737e+003, 1.511985e+004
1.189219e+003, 1.511570e+004
1.189701e+003, 1.510595e+004
1.190183e+003, 1.509804e+004
1.190665e+003, 1.509267e+004
1.191147e+003, 1.509186e+004
1.191630e+003, 1.509396e+004
1.192112e+003, 1.509082e+004
1.192594e+003, 1.507986e+004
1.193076e+003, 1.507716e+004
1.193558e+003, 1.508316e+004
1.194040e+003, 1.509732e+004
1.194522e+003, 1.512203e+004
1.195004e+003, 1.513961e+004
1.195487e+003, 1.513931e+004
1.195969e+003, 1.512686e+004
1.196451e+003, 1.510833e+004
1.196933e+003, 1.508618e+004
1.197415e+003, 1.507068e+004
1.197897e+003, 1.506038e+004
1.198379e+003, 1.504115e+004
1.198861e+003, 1.501671e+004
1.199344e+003, 1.502609e+004
1.199826e+003, 1.507510e+004
1.200308e+003, 1.510485e+004
1.200790e+003, 1.507212e+004
1.201272e+003, 1.502454e+004
1.201754e+003, 1.501551e+004
1.202236e+003, 1.503026e+004
1.202718e+003, 1.506075e+004
1.203200e+003, 1.509241e+004
1.203682e+003, 1.509491e+004
1.204165e+003, 1.507764e+004
1.204647e+003, 1.507507e+004
1.205129e+003, 1.509631e+004
1.205611e+003, 1.512130e+004
1.206093e+003, 1.514412e+004
1.206575e+003, 1.516024e+004
1.207057e+003, 1.517620e+004
1.207539e+003, 1.517480e+004
1.208022e+003, 1.511498e+004
1.208504e+003, 1.505277e+004
1.208986e+003, 1.506538e+004
1.209468e+003, 1.513474e+004
1.209950e+003, 1.518131e+004
1.210432e+003, 1.519363e+004
1.210914e+003, 1.519499e+004
1.211396e+003, 1.518139e+004
1.211879e+003, 1.516482e+004
1.212361e+003, 1.513323e+004
1.212843e+003, 1.512211e+004
1.213325e+003, 1.516523e+004
1.213807e+003, 1.521492e+004
1.214289e+003, 1.520997e+004
1.214771e+003, 1.516331e+004
1.215253e+003, 1.513929e+004
1.215735e+003, 1.514209e+004
1.216218e+003, 1.512631e+004
1.216700e+003, 1.508855e+004
1.217182e+003, 1.506389e+004
1.217664e+003, 1.506036e+004
1.218146e+003, 1.507658e+004
1.218628e+003, 1.511392e+004
1.219110e+003, 1.514237e+004
1.219592e+003, 1.510880e+004
1.220074e+003, 1.505442e+004
1.220557e+003, 1.509569e+004
1.221039e+003, 1.519003e+004
1.221521e+003, 1.522074e+004
1.222003e+003, 1.519877e+004
1.222485e+003, 1.519463e+004
1.222967e+003, 1.522053e+004
1.223449e+003, 1.523459e+004
1.223931e+003, 1.521450e+004
1.224414e+003, 1.517633e+004
1.224896e+003, 1.510818e+004
1.225378e+003, 1.505462e+004
1.225860e+003, 1.507275e+004
1.226342e+003, 1.510678e+004
1.226824e+003, 1.509071e+004
1.227306e+003, 1.504670e+004
1.227788e+003, 1.502508e+004
1.228271e+003, 1.503290e+004
1.228753e+003, 1.505425e+004
1.229235e+003, 1.511099e+004
1.229717e+003, 1.513637e+004
1.230199e+003, 1.508656e+004
1.230681e+003, 1.505262e+004
1.231163e+003, 1.507578e+004
1.231645e+003, 1.510741e+004
1.232127e+003, 1.510815e+004
1.232609e+003, 1.509745e+004
1.233092e+003, 1.511674e+004
1.233574e+003, 1.516464e+004
1.234056e+003, 1.518053e+004
1.234538e+003, 1.516018e+004
1.235020e+003, 1.513621e+004
1.235502e+003, 1.510966e+004
1.235984e+003, 1.511211e+004
1.236466e+003, 1.515533e+004
1.236949e+003, 1.519617e+004
1.237431e+003, 1.520024e+004
1.237913e+003, 1.518685e+004
1.238395e+003, 1.518557e+004
1.238877e+003, 1.519131e+004
1.239359e+003, 1.519588e+004
1.239841e+003, 1.519603e+004
1.240323e+003, 1.517636e+004
1.240806e+003, 1.514585e+004
1.241288e+003, 1.513871e+004
1.241770e+003, 1.516155e+004
1.242252e+003, 1.517941e+004
1.242734e+003, 1.516490e+004
1.243216e+003, 1.516243e+004
1.243698e+003, 1.523044e+004
1.244180e+003, 1.528587e+004
1.244662e+003, 1.525455e+004
1.245145e+003, 1.519543e+004
1.245627e+003, 1.516799e+004
1.246109e+003, 1.516369e+004
1.246591e+003, 1.514907e+004
1.247073e+003, 1.511950e+004
1.247555e+003, 1.511005e+004
1.248037e+003, 1.514713e+004
1.248519e+003, 1.515600e+004
1.249001e+003, 1.511450e+004
1.249484e+003, 1.508465e+004
1.249966e+003, 1.509066e+004
1.250448e+003, 1.510420e+004
1.250930e+003, 1.510358e+004
1.251412e+003, 1.509429e+004
1.251894e+003, 1.508284e+004
1.252376e+003, 1.507281e+004
1.252858e+003, 1.510260e+004
1.253341e+003, 1.516434e+004
1.253823e+003, 1.518068e+004
1.254305e+003, 1.515172e+004
1.254787e+003, 1.514101e+004
1.255269e+003, 1.516572e+004
1.255751e+003, 1.518568e+004
1.256233e+003, 1.517273e+004
1.256715e+003, 1.515551e+004
1.257198e+003, 1.517704e+004
1.257680e+003, 1.519855e+004
1.258162e+003, 1.516274e+004
1.258644e+003, 1.511096e+004
1.259126e+003, 1.508878e+004
1.259608e+003, 1.509784e+004
1.260090e+003, 1.514226e+004
1.260572e+003, 1.521407e+004
1.261054e+003, 1.524982e+004
1.261536e+003, 1.521203e+004
1.262019e+003, 1.518325e+004
1.262501e+003, 1.518521e+004
1.262983e+003, 1.518949e+004
1.263465e+003, 1.517600e+004
1.263947e+003, 1.517786e+004
1.264429e+003, 1.523369e+004
1.264911e+003, 1.529446e+004
1.265393e+003, 1.527845e+004
1.265876e+003, 1.520158e+004
1.266358e+003, 1.517847e+004
1.266840e+003, 1.521288e+004
1.267322e+003, 1.523642e+004
1.267804e+003, 1.524605e+004
1.268286e+003, 1.522791e+004
1.268768e+003, 1.518123e+004
1.269250e+003, 1.514883e+004
1.269733e+003, 1.515453e+004
1.270215e+003, 1.518080e+004
1.270697e+003, 1.521718e+004
1.271179e+003, 1.525144e+004
1.271661e+003, 1.526431e+004
1.272143e+003, 1.526510e+004
1.272625e+003, 1.526588e+004
1.273107e+003, 1.526550e+004
1.273589e+003, 1.525735e+004
1.274072e+003, 1.524369e+004
1.274554e+003, 1.523414e+004
1.275036e+003, 1.523047e+004
1.275518e+003, 1.523670e+004
1.276000e+003, 1.526783e+004
1.276482e+003, 1.528731e+004
1.276964e+003, 1.527091e+004
1.277446e+003, 1.526243e+004
1.277929e+003, 1.529067e+004
1.278411e+003, 1.531878e+004
1.278893e+003, 1.530749e+004
1.279375e+003, 1.527375e+004
1.279857e+003, 1.526560e+004
1.280339e+003, 1.528398e+004
1.280821e+003, 1.527326e+004
1.281303e+003, 1.523446e+004
1.281786e+003, 1.522765e+004
1.282268e+003, 1.526036e+004
##END=



