##NAMES=Celsian
##RRUFFID=R170048
##IDEAL CHEMISTRY=BaAl_2_Si_2_O_8_
##LOCALITY=Big Creek, Pine Flat Lake, Trimmer, Fresno County, California, USA
##OWNER=RRUFF
##SOURCE=Gunnar FÃ¤rber
##DESCRIPTION=Colorless anhedral grains in matrix associated with cerchiaraite-(Fe) R160021 and pellyite R160023
##STATUS=The identification of this mineral has been determined only by Raman spectroscopy
##URL=rruff.info/R170048
87.58203, 0.0000000E+00
88.06415, 314.3008
88.54626, 24.70703
89.02838, 454.4648
89.51050, 1150.195
89.99261, 1856.500
90.47473, 2552.600
90.95685, 3267.801
91.43896, 4037.678
91.92108, 4862.223
92.40320, 5659.072
92.88531, 6072.947
93.36743, 5926.992
93.84955, 5370.459
94.33167, 4820.725
94.81378, 4228.299
95.29590, 3755.676
95.77802, 3389.936
96.26013, 3078.105
96.74225, 2786.297
97.22437, 2508.631
97.70648, 2259.535
98.18860, 2011.275
98.67072, 1808.543
99.15283, 1687.885
99.63495, 1643.904
100.1171, 1625.219
100.5992, 1558.188
101.0813, 1394.324
101.5634, 1295.686
102.0455, 1274.150
102.5277, 1290.174
103.0098, 1309.320
103.4919, 1316.830
103.9740, 1325.348
104.4561, 1379.236
104.9382, 1532.273
105.4204, 1666.826
105.9025, 1780.180
106.3846, 1864.791
106.8667, 1905.656
107.3488, 1889.389
107.8309, 1820.180
108.3131, 1751.412
108.7952, 1704.229
109.2773, 1639.123
109.7594, 1517.234
110.2415, 1340.867
110.7236, 1172.779
111.2058, 1068.732
111.6879, 1013.408
112.1700, 958.1836
112.6521, 892.2910
113.1342, 821.9473
113.6163, 762.6289
114.0985, 730.2188
114.5806, 700.4473
115.0627, 654.6016
115.5448, 579.5723
116.0269, 497.5312
116.5090, 424.2578
116.9912, 364.2051
117.4733, 326.0977
117.9554, 330.4375
118.4375, 338.6758
118.9196, 347.8574
119.4017, 360.1895
119.8839, 376.3184
120.3660, 394.2812
120.8481, 404.0723
121.3302, 441.4688
121.8123, 524.3125
122.2944, 615.0566
122.7766, 692.5645
123.2587, 749.7695
123.7408, 791.0488
124.2229, 824.3027
124.7050, 838.0625
125.1871, 857.9414
125.6693, 890.9375
126.1514, 928.4453
126.6335, 962.1992
127.1156, 990.3945
127.5977, 1008.473
128.0798, 999.9102
128.5620, 953.8340
129.0441, 906.6289
129.5262, 857.9648
130.0083, 814.7988
130.4904, 810.6777
130.9725, 882.0176
131.4547, 996.4453
131.9368, 1082.600
132.4189, 1136.701
132.9010, 1162.768
133.3831, 1163.543
133.8652, 1138.695
134.3474, 1091.020
134.8295, 1011.344
135.3116, 913.2578
135.7937, 808.1367
136.2758, 699.7207
136.7579, 587.3711
137.2401, 466.4609
137.7222, 319.6855
138.2043, 192.5078
138.6864, 96.76367
139.1685, 26.71289
139.6507, 24.32422
140.1328, 56.61719
140.6149, 71.42188
141.0970, 101.0449
141.5791, 179.3984
142.0612, 241.1738
142.5434, 263.5762
143.0255, 252.8418
143.5076, 228.5742
143.9897, 207.6191
144.4718, 190.0039
144.9539, 176.7109
145.4361, 175.6191
145.9182, 177.8555
146.4003, 173.8555
146.8824, 155.4766
147.3645, 132.5938
147.8466, 113.5625
148.3288, 101.9590
148.8109, 60.47852
149.2930, 41.94336
149.7751, 157.8652
150.2572, 234.9531
150.7393, 259.1484
151.2215, 258.5645
151.7036, 266.4238
152.1857, 281.0488
152.6678, 304.5117
153.1499, 330.7402
153.6320, 364.9648
154.1142, 426.2188
154.5963, 534.7207
155.0784, 650.8086
155.5605, 728.2266
156.0426, 767.3828
156.5247, 805.2441
157.0069, 860.7949
157.4890, 934.1855
157.9711, 1030.402
158.4532, 1163.516
158.9353, 1312.906
159.4174, 1469.693
159.8996, 1632.451
160.3817, 1792.820
160.8638, 1939.994
161.3459, 2068.691
161.8280, 2201.311
162.3102, 2347.584
162.7923, 2493.633
163.2744, 2626.414
163.7565, 2743.430
164.2386, 2854.367
164.7207, 2978.889
165.2029, 3116.652
165.6850, 3270.277
166.1671, 3458.947
166.6492, 3651.477
167.1313, 3824.236
167.6134, 3965.582
168.0956, 4078.268
168.5777, 4169.625
169.0598, 4245.861
169.5419, 4290.711
170.0240, 4298.496
170.5061, 4275.117
170.9883, 4227.975
171.4704, 4160.402
171.9525, 4072.871
172.4346, 3964.408
172.9167, 3854.770
173.3988, 3708.439
173.8810, 3496.453
174.3631, 3237.043
174.8452, 2975.266
175.3273, 2732.725
175.8094, 2510.004
176.2915, 2307.953
176.7737, 2132.545
177.2558, 1968.236
177.7379, 1803.635
178.2200, 1640.143
178.7021, 1485.557
179.1842, 1343.424
179.6664, 1214.855
180.1485, 1099.398
180.6306, 999.5352
181.1127, 910.0156
181.5948, 825.1875
182.0769, 743.5781
182.5591, 674.5469
183.0412, 628.0098
183.5233, 595.5195
184.0054, 570.9355
184.4875, 555.1328
184.9696, 543.3477
185.4518, 523.8984
185.9339, 486.9668
186.4160, 465.5020
186.8981, 480.1016
187.3802, 511.8535
187.8623, 537.5449
188.3445, 542.4766
188.8266, 537.8848
189.3087, 562.5566
189.7908, 636.1152
190.2729, 714.9531
190.7550, 786.4023
191.2372, 856.5371
191.7193, 934.3223
192.2014, 1025.932
192.6835, 1128.992
193.1656, 1225.873
193.6477, 1320.377
194.1299, 1403.154
194.6120, 1484.697
195.0941, 1552.357
195.5762, 1587.172
196.0583, 1576.799
196.5404, 1521.797
197.0226, 1427.645
197.5047, 1261.863
197.9868, 1092.828
198.4689, 929.2617
198.9510, 776.3926
199.4331, 642.7930
199.9153, 537.8145
200.3974, 462.6328
200.8795, 384.1973
201.3616, 279.1328
201.8437, 194.3945
202.3258, 159.4102
202.8080, 165.2676
203.2901, 178.4316
203.7722, 179.6426
204.2543, 166.6992
204.7364, 133.2754
205.2185, 56.94336
205.7007, 19.10156
206.1828, 69.02148
206.6649, 91.84180
207.1470, 98.47070
207.6291, 93.50195
208.1112, 80.12109
208.5934, 74.84766
209.0755, 94.93945
209.5576, 112.1797
210.0397, 92.74023
210.5218, 34.55859
211.0039, 15.19141
211.4861, 11.81641
211.9682, 21.38477
212.4503, 30.93164
212.9324, 8.123047
213.4145, 64.25391
213.8967, 93.59766
214.3788, 87.90430
214.8609, 93.27344
215.3430, 152.6055
215.8251, 236.2539
216.3072, 309.2773
216.7894, 358.5840
217.2715, 393.3027
217.7536, 429.5352
218.2357, 467.7520
218.7178, 505.1094
219.1999, 542.1855
219.6821, 577.8242
220.1642, 612.5977
220.6463, 650.7461
221.1284, 682.8047
221.6105, 685.4492
222.0926, 646.9355
222.5748, 601.4473
223.0569, 562.9043
223.5390, 524.4531
224.0211, 475.3848
224.5032, 408.2207
224.9853, 332.4883
225.4675, 272.9102
225.9496, 226.8379
226.4317, 208.2695
226.9138, 227.9121
227.3959, 267.9375
227.8780, 310.7246
228.3602, 347.8105
228.8423, 380.4902
229.3244, 413.8105
229.8065, 454.7480
230.2886, 484.9453
230.7707, 487.3145
231.2529, 483.4160
231.7350, 495.1387
232.2171, 532.7656
232.6992, 594.6641
233.1813, 676.1484
233.6634, 798.3125
234.1456, 916.8906
234.6277, 1038.834
235.1098, 1152.201
235.5919, 1237.242
236.0740, 1284.654
236.5561, 1311.910
237.0383, 1370.746
237.5204, 1483.826
238.0025, 1605.139
238.4846, 1734.582
238.9667, 1870.896
239.4488, 2012.104
239.9310, 2158.242
240.4131, 2309.334
240.8952, 2465.824
241.3773, 2625.619
241.8594, 2795.404
242.3415, 2982.180
242.8237, 3177.057
243.3058, 3372.713
243.7879, 3568.262
244.2700, 3754.832
244.7521, 3917.359
245.2342, 4079.111
245.7164, 4173.584
246.1985, 4177.311
246.6806, 4111.842
247.1627, 3996.812
247.6448, 3833.611
248.1269, 3645.104
248.6091, 3467.574
249.0912, 3302.369
249.5733, 3139.318
250.0554, 2962.260
250.5375, 2788.607
251.0196, 2643.424
251.5018, 2533.391
251.9839, 2453.586
252.4660, 2405.820
252.9481, 2389.504
253.4302, 2382.266
253.9123, 2389.707
254.3945, 2400.207
254.8766, 2398.477
255.3587, 2382.979
255.8408, 2349.402
256.3229, 2288.445
256.8051, 2203.873
257.2872, 2102.230
257.7693, 1977.529
258.2514, 1838.373
258.7335, 1693.807
259.2156, 1541.926
259.6978, 1397.551
260.1799, 1277.160
260.6620, 1175.160
261.1441, 1083.941
261.6262, 1010.447
262.1083, 943.0234
262.5905, 856.0801
263.0726, 740.7344
263.5547, 629.5410
264.0368, 558.0605
264.5189, 514.0996
265.0010, 475.1660
265.4832, 443.1133
265.9653, 409.0469
266.4474, 354.4648
266.9295, 273.6621
267.4116, 189.0801
267.8937, 97.22070
268.3759, 20.41211
268.8580, 7.992188
269.3401, 44.67773
269.8222, 121.9648
270.3043, 137.8301
270.7864, 79.65430
271.2686, 27.45117
271.7507, 28.95117
272.2328, 50.95508
272.7149, 59.20117
273.1970, 40.94922
273.6791, 14.30664
274.1613, 1.492188
274.6434, 3.412109
275.1255, 11.58398
275.6076, 31.39062
276.0897, 52.82227
276.5718, 66.35938
277.0540, 68.90039
277.5361, 70.15234
278.0182, 87.11133
278.5003, 124.8066
278.9824, 143.6875
279.4645, 115.9297
279.9467, 76.38477
280.4288, 43.60938
280.9109, 20.90039
281.3930, 9.701172
281.8751, 17.98242
282.3572, 48.30859
282.8394, 64.59766
283.3215, 31.94531
283.8036, 8.498047
284.2857, 38.62695
284.7678, 117.6680
285.2499, 197.7324
285.7321, 228.4492
286.2142, 207.6855
286.6963, 207.8340
287.1784, 250.0645
287.6605, 297.6094
288.1426, 336.6582
288.6248, 366.2695
289.1069, 387.2246
289.5890, 395.8125
290.0711, 393.5645
290.5532, 400.4902
291.0353, 410.7285
291.5175, 439.6133
291.9996, 509.7871
292.4817, 600.2871
292.9638, 670.8379
293.4459, 692.1016
293.9280, 676.2969
294.4102, 677.9082
294.8923, 706.5605
295.3744, 739.2852
295.8565, 763.8164
296.3386, 789.3086
296.8207, 828.6621
297.3029, 889.2383
297.7850, 963.9180
298.2671, 1034.471
298.7492, 1097.775
299.2313, 1164.131
299.7134, 1232.771
300.1956, 1306.631
300.6777, 1385.547
301.1598, 1469.484
301.6419, 1565.342
302.1240, 1690.393
302.6061, 1861.906
303.0883, 2012.730
303.5704, 2151.889
304.0525, 2256.869
304.5346, 2305.229
305.0167, 2294.662
305.4988, 2246.957
305.9810, 2190.666
306.4631, 2132.234
306.9452, 2034.426
307.4273, 1861.270
307.9094, 1673.805
308.3915, 1487.682
308.8737, 1309.939
309.3558, 1149.242
309.8379, 1018.672
310.3200, 919.0156
310.8021, 821.8418
311.2842, 715.1992
311.7664, 624.2402
312.2485, 569.1387
312.7306, 536.9531
313.2127, 497.8652
313.6948, 428.1934
314.1769, 335.7422
314.6591, 268.1172
315.1412, 241.0234
315.6233, 215.7285
316.1054, 174.2559
316.5875, 131.7930
317.0696, 112.4219
317.5518, 128.5254
318.0339, 161.3047
318.5160, 163.6270
318.9981, 113.9141
319.4802, 76.74805
319.9623, 78.28125
320.4445, 90.25195
320.9266, 85.15039
321.4087, 54.79102
321.8908, 18.23828
322.3729, 6.423828
322.8550, 25.64844
323.3372, 39.76172
323.8193, 49.86719
324.3014, 50.38477
324.7835, 31.01758
325.2656, 6.123047
325.7477, 42.25977
326.2299, 55.25586
326.7120, 44.34375
327.1941, 40.38281
327.6762, 57.29102
328.1583, 71.20508
328.6404, 72.73633
329.1226, 63.80469
329.6047, 47.28906
330.0868, 20.99023
330.5689, 12.10352
331.0510, 31.74023
331.5331, 24.00195
332.0153, 22.75586
332.4974, 52.15234
332.9795, 93.59180
333.4616, 118.7305
333.9437, 111.3047
334.4258, 85.23438
334.9080, 73.48242
335.3901, 83.63477
335.8722, 89.27344
336.3543, 75.85352
336.8365, 58.78125
337.3186, 56.16016
337.8007, 67.85742
338.2828, 82.02148
338.7649, 82.28125
339.2470, 65.44531
339.7292, 60.47266
340.2113, 88.85938
340.6934, 118.3262
341.1755, 126.2246
341.6576, 112.3008
342.1397, 94.27734
342.6219, 76.79297
343.1040, 61.40625
343.5861, 74.35156
344.0682, 134.8535
344.5503, 200.0840
345.0324, 244.1816
345.5146, 272.5820
345.9967, 299.3086
346.4788, 332.1523
346.9609, 367.9492
347.4430, 399.7910
347.9251, 428.7207
348.4073, 450.9238
348.8894, 452.3125
349.3715, 450.2539
349.8536, 467.9590
350.3357, 516.8105
350.8178, 577.6562
351.3000, 625.3418
351.7821, 658.8379
352.2642, 704.7461
352.7463, 791.4707
353.2284, 880.1445
353.7105, 929.3691
354.1927, 934.3320
354.6748, 926.0000
355.1569, 930.3340
355.6390, 940.7266
356.1211, 925.1016
356.6032, 869.5664
357.0854, 800.1719
357.5675, 742.2266
358.0496, 692.4121
358.5317, 635.4219
359.0138, 558.7480
359.4959, 473.3457
359.9781, 392.9180
360.4602, 317.4883
360.9423, 254.4570
361.4244, 214.1289
361.9065, 190.9824
362.3886, 170.7773
362.8708, 149.3516
363.3529, 132.8379
363.8350, 128.5254
364.3171, 134.9062
364.7992, 142.0664
365.2813, 145.6602
365.7635, 147.5254
366.2456, 152.5527
366.7277, 163.7734
367.2098, 168.8164
367.6919, 162.0020
368.1740, 145.6504
368.6562, 120.7188
369.1383, 85.28125
369.6204, 52.40625
370.1025, 42.92969
370.5846, 59.09375
371.0667, 62.17383
371.5489, 32.10352
372.0310, 2.787109
372.5131, 11.80664
372.9952, 4.486328
373.4773, 16.76562
373.9594, 0.2597660
374.4416, 40.88281
374.9237, 60.25391
375.4058, 52.50586
375.8879, 31.31250
376.3700, 12.22852
376.8521, 64.36719
377.3343, 95.97070
377.8164, 93.38086
378.2985, 67.55859
378.7806, 42.33594
379.2627, 8.601563
379.7448, 9.986328
380.2270, 2.951172
380.7091, 16.43164
381.1912, 40.07422
381.6733, 64.09570
382.1554, 78.24414
382.6375, 67.99414
383.1197, 23.19141
383.6018, 0.5507810
384.0839, 18.39648
384.5660, 37.38281
385.0481, 30.67773
385.5302, 5.859375
386.0124, 11.58008
386.4945, 3.328125
386.9766, 24.65625
387.4587, 37.65820
387.9408, 13.98047
388.4229, 1.644531
388.9051, 1.894531
389.3872, 7.773438
389.8693, 46.51172
390.3514, 117.0605
390.8335, 192.6816
391.3156, 228.3535
391.7978, 208.6973
392.2799, 190.0723
392.7620, 189.9414
393.2441, 176.8594
393.7262, 110.7695
394.2083, 10.22461
394.6905, 58.62695
395.1726, 32.23242
395.6547, 77.80273
396.1368, 147.6250
396.6189, 152.9551
397.1010, 149.4824
397.5832, 152.8105
398.0653, 160.0234
398.5474, 165.7422
399.0295, 167.3164
399.5116, 169.0332
399.9937, 181.3164
400.4759, 208.3301
400.9580, 223.4668
401.4401, 195.6074
401.9222, 172.9316
402.4043, 193.2070
402.8864, 256.9668
403.3686, 329.5410
403.8507, 389.7715
404.3328, 438.6094
404.8149, 477.7930
405.2970, 501.3770
405.7791, 527.6934
406.2613, 568.5762
406.7434, 620.9668
407.2255, 681.6445
407.7076, 755.7266
408.1897, 831.5977
408.6718, 902.1660
409.1540, 966.9023
409.6361, 1006.350
410.1182, 1005.021
410.6003, 977.9023
411.0824, 954.8867
411.5645, 939.5449
412.0467, 914.3105
412.5288, 867.2461
413.0109, 806.2402
413.4930, 742.4219
413.9751, 677.2324
414.4572, 617.0039
414.9394, 568.9043
415.4215, 533.7559
415.9036, 504.0332
416.3857, 472.7461
416.8678, 452.8047
417.3499, 463.7539
417.8321, 496.0352
418.3142, 515.4883
418.7963, 501.2383
419.2784, 464.2598
419.7605, 441.7344
420.2426, 420.5879
420.7248, 430.6543
421.2069, 503.5039
421.6890, 594.6230
422.1711, 655.7031
422.6532, 677.0371
423.1353, 685.3418
423.6175, 711.8086
424.0996, 759.1992
424.5817, 811.4121
425.0638, 870.0977
425.5459, 931.1367
426.0280, 1006.746
426.5102, 1082.371
426.9923, 1129.918
427.4744, 1131.861
427.9565, 1098.555
428.4386, 1065.484
428.9207, 1043.121
429.4029, 999.6367
429.8850, 920.5508
430.3671, 828.3105
430.8492, 740.0586
431.3313, 658.5488
431.8134, 580.7168
432.2956, 496.8652
432.7777, 407.3340
433.2598, 350.7188
433.7419, 361.4102
434.2241, 364.5078
434.7062, 311.7676
435.1883, 225.6289
435.6704, 149.5879
436.1525, 102.2969
436.6346, 74.59375
437.1168, 54.47070
437.5989, 41.89062
438.0810, 31.33984
438.5631, 15.60547
439.0452, 5.371094
439.5273, 18.34766
440.0095, 57.68555
440.4916, 86.81836
440.9737, 81.14844
441.4558, 52.02930
441.9379, 22.27148
442.4200, 6.925781
442.9022, 30.84961
443.3843, 44.57422
443.8664, 49.60938
444.3485, 53.39648
444.8306, 62.65430
445.3127, 65.39453
445.7949, 61.81445
446.2770, 46.59766
446.7591, 2.080078
447.2412, 99.41992
447.7233, 211.2910
448.2054, 272.5332
448.6876, 259.8281
449.1697, 247.7949
449.6518, 233.2051
450.1339, 224.9961
450.6160, 230.5312
451.0981, 249.6074
451.5803, 278.2578
452.0624, 314.2227
452.5445, 353.6152
453.0266, 390.1934
453.5087, 413.7207
453.9908, 444.2500
454.4730, 479.0078
454.9551, 524.6621
455.4372, 594.0312
455.9193, 689.0547
456.4014, 789.6855
456.8835, 862.6953
457.3657, 896.8340
457.8478, 953.4453
458.3299, 1057.326
458.8120, 1162.213
459.2941, 1244.902
459.7762, 1313.271
460.2584, 1391.703
460.7405, 1503.928
461.2226, 1622.346
461.7047, 1682.209
462.1868, 1671.035
462.6689, 1663.615
463.1511, 1708.688
463.6332, 1753.027
464.1153, 1745.248
464.5974, 1680.164
465.0795, 1586.045
465.5616, 1453.418
466.0438, 1307.846
466.5259, 1211.717
467.0080, 1178.502
467.4901, 1159.854
467.9722, 1123.525
468.4543, 1070.729
468.9365, 1011.844
469.4186, 935.7168
469.9007, 865.3223
470.3828, 817.3320
470.8649, 783.9980
471.3470, 750.1074
471.8292, 710.7305
472.3113, 664.6191
472.7934, 606.7715
473.2755, 525.5293
473.7576, 470.1914
474.2397, 467.8066
474.7219, 466.3398
475.2040, 423.9746
475.6861, 354.1035
476.1682, 301.2910
476.6503, 295.5312
477.1324, 324.2637
477.6146, 339.9531
478.0967, 344.1680
478.5788, 330.9551
479.0609, 284.4414
479.5430, 233.2305
480.0251, 198.6816
480.5073, 183.9316
480.9894, 179.1621
481.4715, 176.1719
481.9536, 175.2246
482.4357, 179.9746
482.9178, 196.6895
483.4000, 208.2793
483.8821, 191.6562
484.3642, 171.5586
484.8463, 186.0664
485.3284, 253.8535
485.8105, 326.7246
486.2927, 348.6855
486.7748, 330.6445
487.2569, 340.0918
487.7390, 398.0195
488.2211, 472.7930
488.7032, 531.1836
489.1854, 576.5020
489.6675, 625.0742
490.1496, 680.6758
490.6317, 740.2715
491.1138, 801.7812
491.5959, 864.9102
492.0781, 929.0352
492.5602, 993.4668
493.0423, 1059.418
493.5244, 1130.285
494.0065, 1210.471
494.4886, 1287.035
494.9708, 1352.314
495.4529, 1419.025
495.9350, 1500.209
496.4171, 1593.125
496.8992, 1680.318
497.3813, 1744.324
497.8635, 1794.734
498.3456, 1896.178
498.8277, 2088.885
499.3098, 2275.039
499.7919, 2428.770
500.2740, 2577.182
500.7562, 2744.029
501.2383, 2933.807
501.7204, 3136.590
502.2025, 3340.055
502.6846, 3544.967
503.1667, 3770.783
503.6489, 4029.621
504.1310, 4286.795
504.6131, 4538.295
505.0952, 4771.801
505.5773, 4967.783
506.0594, 5119.707
506.5416, 5239.092
507.0237, 5369.357
507.5058, 5479.201
507.9879, 5449.352
508.4700, 5239.924
508.9521, 4930.846
509.4343, 4583.324
509.9164, 4198.938
510.3985, 3825.082
510.8806, 3462.377
511.3627, 3112.762
511.8448, 2765.061
512.3270, 2431.895
512.8091, 2136.674
513.2912, 1890.693
513.7733, 1680.229
514.2554, 1478.889
514.7375, 1274.598
515.2197, 1114.768
515.7018, 1023.391
516.1839, 948.9141
516.6660, 865.1152
517.1481, 775.2617
517.6302, 699.3789
518.1124, 651.5176
518.5945, 616.5566
519.0766, 555.8965
519.5587, 455.8418
520.0408, 376.8535
520.5229, 350.4922
521.0051, 335.7461
521.4872, 304.8574
521.9693, 259.0195
522.4514, 218.6934
522.9335, 193.1855
523.4156, 182.3027
523.8978, 194.9199
524.3799, 233.2617
524.8620, 255.0879
525.3441, 233.9473
525.8262, 188.6738
526.3083, 158.5762
526.7905, 147.2188
527.2726, 136.7441
527.7547, 118.5645
528.2368, 101.1641
528.7189, 94.55469
529.2010, 99.21094
529.6832, 109.8828
530.1653, 124.2812
530.6474, 140.3555
531.1295, 145.0820
531.6116, 128.8145
532.0938, 111.8730
532.5759, 91.53711
533.0580, 73.20117
533.5401, 60.15234
534.0222, 53.42773
534.5043, 54.13086
534.9865, 65.95508
535.4686, 87.24414
535.9507, 100.0664
536.4328, 103.5430
536.9149, 99.96289
537.3970, 87.09375
537.8792, 69.94141
538.3613, 52.98047
538.8434, 36.99805
539.3255, 24.06445
539.8076, 19.09766
540.2897, 18.90430
540.7719, 13.44336
541.2540, 0.8183590
541.7361, 11.20898
542.2182, 20.19531
542.7003, 23.29688
543.1824, 11.04492
543.6646, 35.24414
544.1467, 75.07031
544.6288, 83.69141
545.1109, 73.48047
545.5930, 73.10742
546.0751, 88.05859
546.5573, 109.6289
547.0394, 129.3398
547.5215, 146.9609
548.0036, 165.4336
548.4857, 181.4355
548.9678, 202.2578
549.4500, 236.8398
549.9321, 273.0996
550.4142, 297.2637
550.8963, 305.5156
551.3784, 306.9844
551.8605, 316.6367
552.3427, 332.6250
552.8248, 321.7715
553.3069, 265.4980
553.7890, 218.8926
554.2711, 225.3848
554.7532, 258.0762
555.2354, 279.5566
555.7175, 281.6719
556.1996, 277.7773
556.6817, 278.2910
557.1638, 278.4922
557.6459, 267.6211
558.1281, 243.6973
558.6102, 214.1582
559.0923, 184.5469
559.5744, 154.9316
560.0565, 126.4883
560.5386, 93.18750
561.0208, 68.53516
561.5029, 60.93164
561.9850, 60.50391
562.4671, 53.46680
562.9492, 38.27148
563.4313, 27.38672
563.9135, 35.70508
564.3956, 62.75000
564.8777, 83.83398
565.3598, 105.0117
565.8419, 109.5879
566.3240, 85.38477
566.8062, 47.93359
567.2883, 9.445313
567.7704, 27.52930
568.2525, 53.47070
568.7346, 55.52148
569.2167, 41.02344
569.6989, 30.86133
570.1810, 27.51758
570.6631, 21.71875
571.1452, 5.150391
571.6273, 19.69531
572.1094, 36.84570
572.5916, 54.64648
573.0737, 51.54688
573.5558, 4.000000
574.0379, 68.78516
574.5200, 96.48242
575.0021, 82.64648
575.4843, 45.41992
575.9664, 4.679688
576.4485, 64.78516
576.9306, 93.79102
577.4127, 68.50000
577.8948, 48.82617
578.3770, 41.36133
578.8591, 42.37305
579.3412, 53.37695
579.8233, 71.60352
580.3054, 85.89453
580.7875, 87.75586
581.2697, 79.98242
581.7518, 67.53320
582.2339, 49.43750
582.7161, 34.19922
583.1982, 21.10938
583.6803, 16.94727
584.1624, 35.84180
584.6445, 81.09766
585.1266, 117.5273
585.6088, 141.8203
586.0909, 149.4062
586.5730, 119.8242
587.0551, 67.52344
587.5372, 44.54688
588.0193, 80.86328
588.5015, 144.4609
588.9836, 162.2129
589.4657, 103.9961
589.9478, 65.79688
590.4299, 48.67773
590.9120, 49.78125
591.3942, 76.46289
591.8763, 119.1387
592.3584, 156.4043
592.8405, 178.7637
593.3226, 188.1953
593.8047, 187.8789
594.2869, 177.6016
594.7690, 151.1895
595.2511, 94.33789
595.7332, 43.79883
596.2153, 38.75000
596.6974, 67.55469
597.1796, 93.96484
597.6617, 113.3652
598.1438, 127.0625
598.6259, 137.3711
599.1080, 142.9648
599.5901, 143.2793
600.0723, 137.7480
600.5544, 117.3125
601.0365, 66.15039
601.5186, 17.64453
602.0007, 47.79297
602.4828, 38.81641
602.9650, 105.9785
603.4471, 122.3457
603.9292, 113.2109
604.4113, 98.22656
604.8934, 83.25391
605.3755, 72.14258
605.8577, 73.20312
606.3398, 81.16797
606.8219, 73.08984
607.3040, 45.03516
607.7861, 22.92969
608.2682, 19.27734
608.7504, 27.56836
609.2325, 36.53516
609.7146, 46.22070
610.1967, 55.48633
610.6788, 62.41406
611.1609, 69.85352
611.6431, 81.07422
612.1252, 95.16602
612.6073, 110.4492
613.0894, 126.5762
613.5715, 138.7422
614.0536, 133.3496
614.5358, 94.40039
615.0179, 78.15234
615.5000, 106.9590
615.9821, 136.6641
616.4642, 156.0293
616.9464, 161.7305
617.4285, 144.9102
617.9106, 95.47266
618.3927, 49.13672
618.8748, 53.51367
619.3569, 99.16992
619.8391, 138.0566
620.3212, 164.2852
620.8033, 175.1191
621.2854, 162.5391
621.7675, 131.0859
622.2496, 110.2051
622.7318, 100.3828
623.2139, 99.65234
623.6960, 113.8672
624.1781, 133.0391
624.6602, 148.5391
625.1423, 157.8418
625.6245, 158.1055
626.1066, 148.7734
626.5887, 132.1973
627.0708, 113.3223
627.5529, 92.23242
628.0350, 67.44336
628.5172, 17.11719
628.9993, 19.01367
629.4814, 2.292969
629.9635, 56.40234
630.4456, 101.7812
630.9277, 97.73242
631.4099, 77.68359
631.8920, 87.26172
632.3741, 116.4238
632.8562, 105.6660
633.3383, 30.23047
633.8204, 41.44727
634.3026, 20.98828
634.7847, 108.0059
635.2668, 164.5508
635.7489, 82.69727
636.2310, 17.96484
636.7131, 31.64844
637.1953, 78.00977
637.6774, 103.7578
638.1595, 96.92969
638.6416, 78.41797
639.1237, 67.20312
639.6058, 61.30273
640.0880, 46.16992
640.5701, 14.63086
641.0522, 3.996094
641.5343, 49.81250
642.0164, 108.7461
642.4985, 116.7031
642.9807, 69.79883
643.4628, 32.24023
643.9449, 28.97852
644.4270, 36.11133
644.9091, 36.67383
645.3912, 31.25195
645.8734, 24.51562
646.3555, 18.45703
646.8376, 10.63672
647.3197, 5.376953
647.8018, 35.17773
648.2839, 41.39844
648.7661, 3.476563
649.2482, 33.35547
649.7303, 61.85156
650.2124, 78.60547
650.6945, 75.16992
651.1766, 49.32812
651.6588, 25.14648
652.1409, 27.08008
652.6230, 41.72070
653.1051, 39.45117
653.5872, 18.98633
654.0693, 1.222656
654.5515, 13.07812
655.0336, 15.73438
655.5157, 6.185547
655.9978, 22.33789
656.4799, 47.77930
656.9620, 75.97461
657.4442, 95.03906
657.9263, 98.97266
658.4084, 88.97070
658.8905, 61.50391
659.3726, 12.56250
659.8547, 33.11133
660.3369, 36.12695
660.8190, 2.679688
661.3011, 45.40625
661.7832, 118.4102
662.2653, 173.6016
662.7474, 177.3516
663.2296, 151.5371
663.7117, 140.2129
664.1938, 147.4004
664.6759, 157.8848
665.1580, 165.9922
665.6401, 175.3867
666.1223, 194.2930
666.6044, 219.2266
667.0865, 238.1406
667.5686, 244.9102
668.0507, 241.2305
668.5328, 222.7129
669.0150, 175.2754
669.4971, 176.2793
669.9792, 272.8594
670.4613, 359.7930
670.9434, 383.0293
671.4255, 371.9258
671.9077, 369.6719
672.3898, 385.4785
672.8719, 409.6367
673.3540, 433.5566
673.8361, 463.1562
674.3182, 513.9980
674.8004, 583.7578
675.2825, 645.9707
675.7646, 685.0488
676.2467, 708.6973
676.7288, 734.8262
677.2109, 763.4668
677.6931, 794.7520
678.1752, 828.8418
678.6573, 865.1016
679.1394, 911.6914
679.6215, 957.3887
680.1036, 980.1562
680.5858, 970.9590
681.0679, 959.1133
681.5500, 975.6094
682.0321, 1011.076
682.5142, 1045.498
682.9963, 1077.982
683.4785, 1084.457
683.9606, 1045.314
684.4427, 978.9805
684.9248, 928.8945
685.4069, 909.2637
685.8890, 872.4375
686.3712, 803.0645
686.8533, 728.7207
687.3354, 665.0371
687.8175, 611.6758
688.2996, 562.7090
688.7817, 516.5234
689.2639, 478.9707
689.7460, 468.0898
690.2281, 476.6250
690.7102, 444.2598
691.1923, 355.3242
691.6744, 286.3496
692.1566, 293.8672
692.6387, 341.2578
693.1208, 351.6309
693.6029, 314.6328
694.0850, 292.0469
694.5671, 311.3770
695.0493, 331.1797
695.5314, 320.6504
696.0135, 291.1953
696.4956, 266.7812
696.9777, 256.3184
697.4598, 254.1133
697.9420, 253.5410
698.4241, 254.6348
698.9062, 260.6309
699.3883, 275.4570
699.8704, 283.8379
700.3525, 274.7930
700.8347, 258.9609
701.3168, 248.3828
701.7989, 242.8379
702.2810, 248.7617
702.7631, 283.7637
703.2452, 316.1543
703.7274, 317.3262
704.2095, 299.9648
704.6916, 290.0566
705.1737, 295.7676
705.6558, 306.6562
706.1379, 312.9883
706.6201, 318.2285
707.1022, 336.7617
707.5843, 376.8320
708.0664, 409.8867
708.5485, 410.9648
709.0306, 413.1074
709.5128, 460.1387
709.9949, 547.6016
710.4770, 601.2500
710.9591, 566.4727
711.4412, 519.9336
711.9233, 530.3223
712.4055, 565.8164
712.8876, 555.9980
713.3697, 488.3672
713.8518, 420.4551
714.3339, 411.4375
714.8160, 451.1758
715.2982, 470.6172
715.7803, 466.5059
716.2624, 450.1855
716.7445, 410.7988
717.2266, 371.3535
717.7087, 350.0801
718.1909, 346.0762
718.6730, 340.5039
719.1551, 317.2402
719.6372, 299.9434
720.1193, 312.7266
720.6014, 340.3633
721.0836, 352.6914
721.5657, 348.7324
722.0478, 348.3789
722.5299, 368.4199
723.0120, 399.3086
723.4941, 406.4941
723.9763, 386.2910
724.4584, 354.6094
724.9405, 285.1660
725.4226, 229.3867
725.9047, 234.0996
726.3868, 272.8320
726.8690, 286.2598
727.3511, 253.3438
727.8332, 214.9395
728.3153, 186.9531
728.7974, 172.6172
729.2795, 186.5684
729.7617, 221.9551
730.2438, 243.6934
730.7259, 232.1074
731.2080, 200.1094
731.6901, 170.5645
732.1722, 139.6250
732.6544, 128.6328
733.1365, 153.1016
733.6186, 176.0273
734.1007, 179.5469
734.5828, 174.5430
735.0649, 176.9902
735.5471, 190.6055
736.0292, 195.0078
736.5113, 167.2520
736.9934, 134.3613
737.4755, 123.6855
737.9576, 132.1914
738.4398, 148.7246
738.9219, 169.1602
739.4040, 193.3633
739.8861, 222.9355
740.3682, 257.6445
740.8503, 277.9980
741.3325, 274.0566
741.8146, 276.3867
742.2967, 305.3125
742.7788, 334.7012
743.2609, 329.3262
743.7430, 296.5840
744.2252, 299.8945
744.7073, 388.9102
745.1894, 487.4766
745.6715, 549.4844
746.1536, 587.5176
746.6357, 617.2051
747.1179, 643.6230
747.6000, 671.2969
748.0821, 704.3535
748.5642, 741.1641
749.0463, 782.0469
749.5284, 836.3457
750.0106, 851.7109
750.4927, 801.7891
750.9748, 738.7812
751.4569, 698.7988
751.9390, 671.8027
752.4211, 635.8203
752.9033, 584.0684
753.3854, 534.1855
753.8675, 491.6328
754.3496, 451.8887
754.8317, 413.5742
755.3138, 375.2305
755.7960, 333.4922
756.2781, 286.6504
756.7602, 238.8691
757.2423, 190.5430
757.7244, 142.5527
758.2065, 123.3457
758.6887, 141.2207
759.1708, 161.8945
759.6529, 174.5508
760.1350, 179.3711
760.6171, 176.8828
761.0992, 167.7168
761.5814, 149.0625
762.0635, 99.79883
762.5456, 64.67969
763.0277, 83.17578
763.5098, 118.0996
763.9919, 114.1660
764.4741, 67.92188
764.9562, 26.04492
765.4383, 25.66602
765.9204, 53.13086
766.4025, 88.76562
766.8846, 131.1523
767.3668, 134.7891
767.8489, 79.64062
768.3310, 21.58008
768.8131, 9.246094
769.2952, 33.84375
769.7773, 43.46484
770.2595, 27.27344
770.7416, 13.04883
771.2237, 3.566406
771.7058, 12.36914
772.1879, 6.021484
772.6700, 34.54492
773.1522, 32.83984
773.6343, 16.38477
774.1164, 60.65918
774.5985, 44.95703
775.0806, 8.105469
775.5627, 52.01367
776.0449, 82.52930
776.5270, 80.86133
777.0091, 33.58008
777.4912, 24.06445
777.9733, 36.61816
778.4554, 3.511719
778.9376, 26.08594
779.4197, 18.93164
779.9019, 10.61719
780.3840, 10.10547
780.8661, 8.709961
781.3482, 8.622070
781.8303, 37.26660
782.3124, 47.10156
782.7946, 11.10938
783.2767, 30.14746
783.7588, 43.87695
784.2409, 39.66699
784.7230, 32.42676
785.2051, 25.39551
785.6873, 17.80273
786.1694, 8.347656
786.6515, 1.207031
787.1336, 10.98828
787.6157, 43.81348
788.0978, 58.85059
788.5800, 43.67773
789.0621, 28.15918
789.5442, 32.74414
790.0263, 45.05859
790.5084, 43.44336
790.9905, 24.13379
791.4727, 7.093750
791.9548, 1.990234
792.4369, 7.867188
792.9190, 18.22754
793.4011, 25.84180
793.8832, 15.36133
794.3654, 14.63867
794.8475, 45.69727
795.3296, 61.12305
795.8117, 65.47656
796.2938, 70.67969
796.7759, 76.42090
797.2581, 78.74023
797.7402, 74.61328
798.2223, 74.47363
798.7044, 89.58105
799.1865, 116.3965
799.6686, 134.2705
800.1508, 149.3242
800.6329, 145.8350
801.1150, 103.3857
801.5971, 62.53711
802.0792, 46.55762
802.5613, 48.86523
803.0435, 56.29102
803.5256, 65.65527
804.0077, 73.36523
804.4898, 77.71191
804.9719, 78.62695
805.4540, 76.92969
805.9362, 71.92969
806.4183, 58.19727
806.9004, 33.95215
807.3825, 9.992188
807.8646, 0.9492190
808.3467, 0.2724610
808.8289, 3.477539
809.3110, 11.29688
809.7931, 13.52246
810.2752, 1.646484
810.7573, 9.656250
811.2394, 7.360352
811.7216, 4.925781
812.2037, 15.24512
812.6858, 16.04883
813.1679, 25.44141
813.6500, 63.97168
814.1321, 101.4277
814.6143, 104.7012
815.0964, 85.25000
815.5785, 77.05371
816.0606, 93.59473
816.5427, 112.0127
817.0248, 94.96387
817.5070, 58.70312
817.9891, 68.15723
818.4712, 124.0762
818.9533, 173.5762
819.4354, 199.4473
819.9175, 206.7881
820.3997, 199.6895
820.8818, 177.7207
821.3639, 154.8574
821.8460, 119.7881
822.3281, 102.6309
822.8102, 120.6270
823.2924, 144.0000
823.7745, 161.4268
824.2566, 167.8672
824.7387, 151.3447
825.2208, 101.1260
825.7029, 52.53125
826.1851, 19.53125
826.6672, 5.035156
827.1493, 24.71289
827.6314, 66.16113
828.1135, 90.75977
828.5956, 83.98926
829.0778, 66.55078
829.5599, 66.13965
830.0420, 78.52930
830.5241, 61.39648
831.0062, 5.458008
831.4883, 16.06055
831.9705, 25.32129
832.4526, 88.29102
832.9347, 139.5947
833.4168, 175.5146
833.8989, 183.7266
834.3810, 142.0049
834.8632, 107.4961
835.3453, 73.04883
835.8274, 57.07031
836.3095, 86.42188
836.7916, 139.1406
837.2737, 182.7109
837.7559, 208.2666
838.2380, 214.1553
838.7201, 185.4707
839.2022, 144.8867
839.6843, 120.9404
840.1664, 112.9785
840.6486, 117.7666
841.1307, 127.1816
841.6128, 132.0430
842.0949, 122.6895
842.5770, 104.3232
843.0591, 102.8682
843.5413, 122.9863
844.0234, 140.9404
844.5055, 161.1592
844.9876, 162.8682
845.4697, 106.9785
845.9518, 23.19434
846.4340, 11.31348
846.9161, 108.9443
847.3982, 175.4121
847.8803, 180.8477
848.3624, 170.1328
848.8445, 155.7109
849.3267, 140.6494
849.8088, 130.2275
850.2909, 125.2422
850.7730, 117.1699
851.2551, 95.49512
851.7372, 74.97852
852.2194, 74.71777
852.7015, 87.36035
853.1836, 97.63477
853.6657, 102.8809
854.1478, 106.4883
854.6299, 110.1611
855.1121, 117.0195
855.5942, 138.7666
856.0763, 180.9512
856.5584, 187.5176
857.0405, 139.5557
857.5226, 100.9209
858.0048, 98.89258
858.4869, 120.4785
858.9690, 153.7363
859.4511, 200.2637
859.9332, 225.8438
860.4153, 220.1934
860.8975, 205.1348
861.3796, 168.3477
861.8617, 139.3418
862.3438, 154.0068
862.8259, 199.2734
863.3080, 229.7217
863.7902, 224.6807
864.2723, 209.4209
864.7544, 208.7178
865.2365, 209.2783
865.7186, 181.1973
866.2007, 133.6533
866.6829, 107.5225
867.1650, 117.8398
867.6471, 143.4180
868.1292, 162.4951
868.6113, 173.0088
869.0934, 162.0391
869.5756, 125.3545
870.0577, 102.4629
870.5398, 103.1689
871.0219, 117.6592
871.5040, 143.1572
871.9861, 174.3320
872.4683, 191.2451
872.9504, 191.2715
873.4325, 181.3545
873.9146, 153.0234
874.3967, 124.3555
874.8788, 100.3389
875.3610, 81.97168
875.8431, 73.98535
876.3252, 75.38086
876.8073, 69.13477
877.2894, 32.38086
877.7715, 0.1972660
878.2537, 0.1855470
878.7358, 21.51367
879.2179, 57.05273
879.7000, 100.5615
880.1821, 140.1621
880.6642, 169.6123
881.1464, 187.0527
881.6285, 186.0137
882.1106, 169.5566
882.5927, 156.1094
883.0748, 146.7334
883.5569, 130.3984
884.0391, 100.7598
884.5212, 69.52148
885.0033, 49.33203
885.4854, 40.39844
885.9675, 50.69336
886.4496, 102.3877
886.9318, 129.0430
887.4139, 100.2012
887.8960, 67.68066
888.3781, 60.17969
888.8602, 69.22070
889.3423, 79.76855
889.8245, 96.06250
890.3066, 103.6426
890.7887, 94.86230
891.2708, 80.87500
891.7529, 67.07031
892.2350, 53.03906
892.7172, 34.01855
893.1993, 12.32031
893.6814, 1.621094
894.1635, 14.23242
894.6456, 32.72852
895.1277, 32.35254
895.6099, 23.03516
896.0920, 34.51758
896.5741, 63.84766
897.0562, 67.82422
897.5383, 24.35547
898.0204, 23.37695
898.5026, 3.601563
898.9847, 75.24023
899.4668, 98.24316
899.9489, 54.76367
900.4310, 14.75879
900.9131, 4.094727
901.3953, 14.21973
901.8774, 29.94629
902.3595, 45.86719
902.8416, 34.08008
903.3237, 39.80566
903.8058, 81.90137
904.2880, 79.35156
904.7701, 61.08789
905.2522, 23.48242
905.7343, 13.59473
906.2164, 25.18652
906.6985, 9.739258
907.1807, 13.70801
907.6628, 43.84766
908.1449, 70.08398
908.6270, 91.35352
909.1091, 112.2305
909.5912, 150.2422
910.0734, 192.3330
910.5555, 195.1357
911.0376, 138.2500
911.5197, 68.04395
912.0018, 23.77734
912.4839, 5.749023
912.9661, 30.97559
913.4482, 86.70215
913.9303, 109.8584
914.4124, 83.85645
914.8945, 43.96387
915.3766, 19.40137
915.8588, 8.776367
916.3409, 8.309570
916.8230, 18.58691
917.3051, 35.97168
917.7872, 64.89746
918.2693, 84.68262
918.7515, 82.55176
919.2336, 69.01855
919.7157, 58.82715
920.1978, 51.52637
920.6799, 51.42480
921.1620, 72.77539
921.6442, 81.29590
922.1263, 56.08789
922.6084, 31.83984
923.0905, 40.41309
923.5726, 66.49707
924.0547, 69.97461
924.5369, 36.30371
925.0190, 10.70215
925.5011, 11.59961
925.9832, 23.49902
926.4653, 49.13086
926.9474, 72.56836
927.4296, 63.34766
927.9117, 25.56934
928.3938, 3.550781
928.8759, 29.36035
929.3580, 66.11035
929.8401, 70.81152
930.3223, 58.27344
930.8044, 53.91797
931.2865, 59.82422
931.7686, 75.50195
932.2507, 100.1621
932.7328, 120.2646
933.2150, 118.0576
933.6971, 99.93457
934.1792, 89.65918
934.6613, 87.18945
935.1434, 91.51758
935.6255, 102.5342
936.1077, 116.3975
936.5898, 131.9023
937.0719, 146.7402
937.5540, 158.2656
938.0361, 169.0225
938.5182, 159.8633
939.0004, 113.7549
939.4825, 80.78125
939.9646, 75.67969
940.4467, 88.10156
940.9288, 121.8252
941.4109, 167.5723
941.8931, 181.3320
942.3752, 135.4932
942.8573, 105.8535
943.3394, 117.8398
943.8215, 129.9609
944.3036, 111.9297
944.7858, 86.65332
945.2679, 94.49805
945.7500, 134.9453
946.2321, 151.9229
946.7142, 97.71484
947.1964, 45.09375
947.6785, 48.78809
948.1606, 69.16504
948.6427, 57.46484
949.1248, 23.27930
949.6069, 5.156250
950.0891, 16.80566
950.5712, 33.60840
951.0533, 27.89844
951.5354, 15.95117
952.0175, 32.93945
952.4996, 66.16895
952.9818, 78.18164
953.4639, 63.93848
953.9460, 41.50000
954.4281, 21.14746
954.9102, 7.394531
955.3923, 13.36914
955.8745, 33.88281
956.3566, 38.77051
956.8387, 26.74316
957.3208, 12.16895
957.8029, 1.254883
958.2850, 11.91406
958.7672, 19.24902
959.2493, 22.45801
959.7314, 17.09863
960.2135, 2.864258
960.6956, 8.865234
961.1777, 10.32227
961.6599, 18.51660
962.1420, 7.251953
962.6241, 44.76953
963.1062, 72.47852
963.5883, 88.78906
964.0704, 75.34277
964.5526, 25.23926
965.0347, 65.02637
965.5168, 20.81348
965.9989, 113.1328
966.4810, 155.6943
966.9631, 159.6016
967.4453, 139.6084
967.9274, 96.70996
968.4095, 63.03809
968.8916, 43.57617
969.3737, 40.41992
969.8558, 72.12695
970.3380, 106.0479
970.8201, 106.1416
971.3022, 83.58496
971.7843, 74.92480
972.2664, 93.22266
972.7485, 109.6846
973.2307, 97.48926
973.7128, 81.54688
974.1949, 81.40137
974.6770, 97.94922
975.1591, 137.9512
975.6412, 195.9629
976.1234, 248.1348
976.6055, 281.1123
977.0876, 305.8984
977.5698, 335.4121
978.0519, 366.4551
978.5340, 384.8975
979.0161, 397.4668
979.4982, 435.6270
979.9803, 506.1387
980.4625, 588.5664
980.9446, 669.6416
981.4267, 742.0547
981.9088, 785.1318
982.3909, 802.0176
982.8730, 823.1309
983.3552, 850.3369
983.8373, 897.3682
984.3194, 974.5186
984.8015, 1038.956
985.2836, 1044.614
985.7657, 999.7275
986.2479, 943.1357
986.7300, 875.6328
987.2121, 794.1963
987.6942, 688.9385
988.1763, 596.5000
988.6584, 536.3096
989.1406, 494.7598
989.6227, 457.5215
990.1048, 424.1670
990.5869, 380.3594
991.0690, 307.4814
991.5511, 261.2549
992.0333, 269.9160
992.5154, 277.5674
992.9975, 250.8066
993.4796, 206.5322
993.9617, 165.1494
994.4438, 124.2588
994.9260, 113.2979
995.4081, 172.9473
995.8902, 208.5000
996.3723, 181.4141
996.8544, 142.2891
997.3365, 121.7139
997.8187, 115.4805
998.3008, 112.5166
998.7829, 111.3945
999.2650, 110.8066
999.7471, 98.33203
1000.229, 101.1504
1000.711, 146.9482
1001.193, 201.7178
1001.676, 241.5332
1002.158, 260.5713
1002.640, 247.7354
1003.122, 195.9473
1003.604, 155.4707
1004.086, 164.6738
1004.568, 185.7910
1005.050, 187.4814
1005.533, 182.5293
1006.015, 195.0977
1006.497, 220.2139
1006.979, 227.0703
1007.461, 199.8311
1007.943, 176.8232
1008.425, 196.7871
1008.907, 236.3516
1009.389, 275.9863
1009.872, 307.7705
1010.354, 308.8340
1010.836, 284.2588
1011.318, 276.2510
1011.800, 311.1025
1012.282, 354.5840
1012.764, 356.3887
1013.246, 339.2725
1013.729, 360.8379
1014.211, 409.4082
1014.693, 438.3193
1015.175, 435.9736
1015.657, 407.2656
1016.139, 351.9600
1016.621, 292.3438
1017.103, 270.9551
1017.585, 279.4844
1018.068, 283.1309
1018.550, 279.3066
1019.032, 259.8916
1019.514, 222.7793
1019.996, 185.7891
1020.478, 161.1221
1020.960, 147.7773
1021.442, 148.8223
1021.924, 163.1699
1022.407, 157.8730
1022.889, 129.2920
1023.371, 106.7168
1023.853, 92.94727
1024.335, 90.22754
1024.817, 103.8896
1025.299, 124.1211
1025.781, 115.0742
1026.264, 70.00879
1026.746, 53.82129
1027.228, 73.80469
1027.710, 100.1113
1028.192, 128.8516
1028.674, 142.1230
1029.156, 116.5469
1029.638, 65.83984
1030.120, 46.78516
1030.603, 68.86230
1031.085, 86.88086
1031.567, 94.86133
1032.049, 114.1357
1032.531, 164.5420
1033.013, 208.6582
1033.495, 204.8047
1033.977, 162.9629
1034.459, 133.0225
1034.942, 116.6699
1035.424, 108.9736
1035.906, 119.4043
1036.388, 121.7266
1036.870, 96.28125
1037.352, 70.18848
1037.834, 76.14160
1038.316, 106.5840
1038.799, 115.7969
1039.281, 87.96191
1039.763, 69.72754
1040.245, 56.52148
1040.727, 58.69727
1041.209, 109.0840
1041.691, 153.1934
1042.173, 124.2451
1042.656, 39.39648
1043.138, 9.851563
1043.620, 4.513672
1044.102, 4.791016
1044.584, 25.63379
1045.066, 36.89258
1045.548, 13.83203
1046.030, 9.243164
1046.512, 10.44824
1046.995, 62.79980
1047.477, 91.37109
1047.959, 82.28516
1048.441, 69.50977
1048.923, 48.88184
1049.405, 37.17383
1049.887, 52.58398
1050.369, 71.86914
1050.851, 68.87695
1051.334, 48.12500
1051.816, 32.21875
1052.298, 21.70996
1052.780, 25.12598
1053.262, 45.67383
1053.744, 78.96191
1054.226, 142.8154
1054.708, 202.4092
1055.191, 220.4062
1055.673, 202.1543
1056.155, 173.5146
1056.637, 133.2334
1057.119, 107.9463
1057.601, 110.3584
1058.083, 123.2998
1058.565, 145.9766
1059.047, 169.5146
1059.530, 195.7627
1060.012, 214.0020
1060.494, 188.4951
1060.976, 95.52637
1061.458, 39.01758
1061.940, 90.56641
1062.422, 144.9775
1062.904, 141.3115
1063.386, 117.6289
1063.869, 117.7422
1064.351, 132.2256
1064.833, 122.8262
1065.315, 76.91406
1065.797, 32.10449
1066.279, 3.548828
1066.761, 24.90918
1067.243, 25.66504
1067.726, 12.32812
1068.208, 12.00293
1068.690, 42.07715
1069.172, 71.47559
1069.654, 99.33203
1070.136, 110.8145
1070.618, 91.67090
1071.100, 65.22363
1071.583, 28.21777
1072.065, 2.408203
1072.547, 20.56348
1073.029, 61.03809
1073.511, 72.55664
1073.993, 43.61426
1074.475, 26.44434
1074.957, 64.78125
1075.439, 94.91406
1075.922, 67.20801
1076.404, 32.89355
1076.886, 45.13281
1077.368, 82.24316
1077.850, 94.42285
1078.332, 74.71680
1078.814, 66.13086
1079.296, 97.58301
1079.779, 129.5176
1080.261, 146.6719
1080.743, 153.3936
1081.225, 149.3164
1081.707, 139.1348
1082.189, 128.5000
1082.671, 118.7461
1083.153, 109.7559
1083.635, 101.9590
1084.118, 94.64551
1084.600, 83.28711
1085.082, 76.80176
1085.564, 87.22070
1086.046, 103.3291
1086.528, 107.5781
1087.010, 101.0449
1087.492, 100.7803
1087.974, 113.8721
1088.457, 129.3213
1088.939, 154.0830
1089.421, 167.3975
1089.903, 146.1973
1090.385, 113.4785
1090.867, 97.17285
1091.349, 94.94043
1091.831, 86.35645
1092.314, 63.58887
1092.796, 43.84375
1093.278, 28.22266
1093.760, 23.68164
1094.242, 42.44238
1094.724, 66.50488
1095.206, 80.38965
1095.688, 84.47656
1096.171, 81.66602
1096.653, 70.43945
1097.135, 69.25488
1097.617, 101.2109
1098.099, 121.0527
1098.581, 100.6650
1099.063, 71.13867
1099.545, 54.03711
1100.027, 47.74512
1100.510, 47.67480
1100.992, 53.18457
1101.474, 57.42676
1101.956, 60.33105
1102.438, 59.75586
1102.920, 57.25391
1103.402, 49.18164
1103.884, 18.97559
1104.366, 9.793945
1104.849, 1.706055
1105.331, 52.43457
1105.813, 89.19336
1106.295, 102.7549
1106.777, 103.9365
1107.259, 79.71289
1107.741, 60.37793
1108.223, 69.32617
1108.706, 82.51367
1109.188, 70.43457
1109.670, 37.89648
1110.152, 15.14746
1110.634, 4.606445
1111.116, 2.064453
1111.598, 14.99707
1112.080, 25.75000
1112.563, 31.94238
1113.045, 31.68750
1113.527, 16.13379
1114.009, 5.213867
1114.491, 3.720703
1114.973, 31.25195
1115.455, 43.20508
1115.937, 18.72656
1116.419, 5.970703
1116.901, 35.61914
1117.384, 47.67383
1117.866, 16.12207
1118.348, 30.47852
1118.830, 39.20020
1119.312, 8.137695
1119.794, 8.112305
1120.276, 52.02441
1120.758, 94.56543
1121.241, 140.5312
1121.723, 162.8604
1122.205, 141.0166
1122.687, 103.4014
1123.169, 84.72559
1123.651, 80.25293
1124.133, 59.65039
1124.615, 14.64355
1125.098, 6.458984
1125.580, 3.815430
1126.062, 20.21875
1126.544, 38.09570
1127.026, 47.15137
1127.508, 37.86914
1127.990, 15.85352
1128.472, 7.914063
1128.954, 33.77148
1129.437, 45.00000
1129.919, 41.12012
1130.401, 32.07715
1130.883, 19.90527
1131.365, 2.989258
1131.847, 20.30273
1132.329, 43.62207
1132.811, 58.32617
1133.293, 64.33887
1133.776, 58.19238
1134.258, 41.96875
1134.740, 41.17676
1135.222, 56.86133
1135.704, 59.20605
1136.186, 36.39258
1136.668, 17.47754
1137.150, 31.10547
1137.633, 66.59863
1138.115, 119.9834
1138.597, 173.6572
1139.079, 155.0830
1139.561, 83.92871
1140.043, 60.32617
1140.525, 101.9922
1141.007, 138.1699
1141.490, 123.0322
1141.972, 90.14844
1142.454, 77.13770
1142.936, 74.78809
1143.418, 70.80859
1143.900, 64.65918
1144.382, 49.16602
1144.864, 30.91895
1145.346, 37.66309
1145.828, 79.44531
1146.311, 121.4277
1146.793, 134.0020
1147.275, 138.0361
1147.757, 165.3428
1148.239, 184.6494
1148.721, 137.7363
1149.203, 61.22559
1149.685, 34.58496
1150.168, 67.85449
1150.650, 100.5098
1151.132, 103.6104
1151.614, 106.5996
1152.096, 130.3672
1152.578, 152.9053
1153.060, 152.6689
1153.542, 147.1729
1154.025, 164.8604
1154.507, 196.2373
1154.989, 201.3936
1155.471, 165.3740
1155.953, 138.9453
1156.435, 142.1084
1156.917, 145.4287
1157.399, 130.9092
1157.881, 122.3809
1158.364, 148.7910
1158.846, 186.4248
1159.328, 192.4072
1159.810, 164.6191
1160.292, 144.1553
1160.774, 128.8135
1161.256, 126.0664
1161.738, 144.9736
1162.220, 162.1895
1162.703, 178.1494
1163.185, 179.8730
1163.667, 145.7783
1164.149, 93.26270
1164.631, 85.44824
1165.113, 135.5459
1165.595, 142.0684
1166.077, 87.15918
1166.560, 73.37793
1167.042, 131.6016
1167.524, 188.3877
1168.006, 200.7207
1168.488, 186.2617
1168.970, 170.3818
1169.452, 152.0986
1169.934, 120.4990
1170.417, 78.10938
1170.899, 45.74707
1171.381, 26.46973
1171.863, 40.84180
1172.345, 95.70117
1172.827, 161.2012
1173.309, 216.8271
1173.791, 245.6572
1174.273, 200.7305
1174.755, 115.3867
1175.238, 65.13086
1175.720, 50.49414
1176.202, 69.37988
1176.684, 109.1650
1177.166, 132.3037
1177.648, 123.1904
1178.130, 96.95605
1178.612, 46.16113
1179.095, 7.319336
1179.577, 29.58105
1180.059, 74.86621
1180.541, 102.8965
1181.023, 114.1279
1181.505, 115.0830
1181.987, 109.3672
1182.469, 105.9141
1182.952, 107.1152
1183.434, 112.7998
1183.916, 122.6533
1184.398, 134.8857
1184.880, 152.3281
1185.362, 168.1357
1185.844, 178.9033
1186.326, 180.9971
1186.808, 163.4355
1187.291, 121.6045
1187.773, 103.9268
1188.255, 140.2305
1188.737, 162.4121
1189.219, 156.3115
1189.701, 145.3965
1190.183, 136.4863
1190.665, 130.1064
1191.147, 128.3086
1191.630, 129.4512
1192.112, 125.7158
1192.594, 113.8936
1193.076, 110.2754
1193.558, 115.3740
1194.040, 128.6367
1194.522, 153.0342
1195.004, 171.0918
1195.487, 169.9521
1195.969, 156.5801
1196.451, 137.1260
1196.933, 114.0459
1197.415, 97.59375
1197.897, 86.22559
1198.379, 66.03613
1198.861, 40.63281
1199.344, 49.04492
1199.826, 97.08301
1200.308, 125.8076
1200.790, 92.04004
1201.272, 43.73535
1201.754, 35.40625
1202.236, 50.28711
1202.718, 79.59961
1203.200, 110.0527
1203.682, 111.5195
1204.165, 93.25391
1204.647, 89.68750
1205.129, 109.9258
1205.611, 133.9141
1206.093, 155.7295
1206.575, 170.8428
1207.057, 185.6777
1207.539, 183.0381
1208.022, 122.1162
1208.504, 58.88867
1208.986, 70.47070
1209.468, 138.7979
1209.950, 184.3115
1210.432, 195.5439
1210.914, 195.8125
1211.396, 181.1191
1211.879, 163.6924
1212.361, 131.1729
1212.843, 118.9668
1213.325, 160.9707
1213.807, 209.4727
1214.289, 203.3281
1214.771, 155.4658
1215.253, 130.2354
1215.735, 131.8154
1216.218, 114.8066
1216.700, 75.80762
1217.182, 49.89844
1217.664, 45.10840
1218.146, 60.05664
1218.628, 96.10645
1219.110, 123.2461
1219.592, 88.35449
1220.074, 32.64844
1220.557, 72.58691
1221.039, 165.5850
1221.521, 194.9424
1222.003, 171.6113
1222.485, 166.1025
1222.967, 190.6328
1223.449, 203.3213
1223.931, 181.8809
1224.414, 142.4346
1224.896, 72.79102
1225.378, 18.13086
1225.860, 35.15723
1226.342, 68.08105
1226.824, 50.68164
1227.306, 5.074219
1227.788, 17.67578
1228.271, 10.99219
1228.753, 9.239258
1229.235, 64.75195
1229.717, 89.04395
1230.199, 38.17188
1230.681, 3.041016
1231.163, 24.53613
1231.645, 55.08203
1232.127, 54.73340
1232.609, 42.94141
1233.092, 61.15234
1233.574, 107.9736
1234.056, 122.7832
1234.538, 101.3584
1235.020, 76.36816
1235.502, 48.86426
1235.984, 50.40137
1236.466, 92.71680
1236.949, 132.6533
1237.431, 135.8174
1237.913, 121.5195
1238.395, 119.3311
1238.877, 124.1465
1239.359, 127.7842
1239.841, 127.0010
1240.323, 106.3965
1240.806, 74.87793
1241.288, 66.77832
1241.770, 88.68359
1242.252, 105.4307
1242.734, 89.92090
1243.216, 86.47949
1243.698, 153.5215
1244.180, 207.9814
1244.662, 175.6914
1245.145, 115.6045
1245.627, 87.20117
1246.109, 81.93750
1246.591, 66.35645
1247.073, 35.82520
1247.555, 25.41309
1248.037, 61.53320
1248.519, 69.44727
1249.001, 26.99707
1249.484, 3.794922
1249.966, 1.280273
1250.448, 13.86328
1250.930, 12.32520
1251.412, 2.010742
1251.894, 10.33496
1252.376, 21.24902
1252.858, 7.671875
1253.341, 68.55762
1253.823, 84.05762
1254.305, 53.95801
1254.787, 42.42383
1255.269, 63.40430
1255.751, 80.51758
1256.233, 66.69336
1256.715, 48.14844
1257.198, 68.64941
1257.680, 89.30566
1258.162, 52.64941
1258.644, 3.0273000E-02
1259.126, 22.98242
1259.608, 14.75488
1260.090, 28.83398
1260.572, 99.81250
1261.054, 134.7334
1261.536, 96.11621
1262.019, 66.51270
1262.501, 67.65430
1262.983, 71.12402
1263.465, 56.82617
1263.947, 57.88477
1264.429, 112.9189
1264.911, 172.8164
1265.393, 155.7881
1265.876, 77.91309
1266.358, 51.41016
1266.840, 84.04590
1267.322, 102.2334
1267.804, 103.7246
1268.286, 84.28125
1268.768, 36.25781
1269.250, 2.633789
1269.733, 7.124023
1270.215, 32.16602
1270.697, 65.65918
1271.179, 82.92188
1271.661, 93.37207
1272.143, 91.88965
1272.625, 90.24805
1273.107, 87.27051
1273.589, 76.31641
1274.072, 59.62402
1274.554, 46.85938
1275.036, 39.95410
1275.518, 43.29688
1276.000, 69.12793
1276.482, 83.14062
1276.964, 63.36914
1277.446, 52.01855
1277.929, 77.27441
1278.411, 102.3389
1278.893, 88.01270
1279.375, 51.37305
1279.857, 41.02051
1280.339, 57.48535
1280.821, 45.35742
1281.303, 5.976563
1281.786, 0.3964840
1282.268, 0.0000000E+00
##END=



