##NAMES=Dickinsonite-(KMnNa)
##RRUFFID=R160070
##IDEAL CHEMISTRY=K(NaMn^2+^)CaNa_3_AlMn^2+^_13_(PO_4_)_12_(OH)_2_
##LOCALITY=Smith mine, Newport, New Hampshire, USA
##OWNER=UAMM
##SOURCE=Rock Currier
##DESCRIPTION=Pale yellowish green granular crystals, associated with muscovite and albite.
##STATUS=The identification of this mineral has been confirmed only by single crystal X-ray diffraction.
##URL=rruff.info/R160070
139.7232, 0.0000000E+00
140.2053, 3.019165
140.6874, 3.735718
141.1696, 3.397583
141.6517, 2.706421
142.1338, 1.578857
142.6159, 2.929688
143.0980, 3.057007
143.5801, 4.259888
144.0623, 4.296875
144.5444, 2.528198
145.0265, 0.1453860
145.5086, 0.7509770
145.9907, 0.9045410
146.4728, 2.751099
146.9550, 4.070313
147.4371, 4.625122
147.9192, 5.183105
148.4013, 5.880859
148.8834, 6.563599
149.3655, 6.913818
149.8477, 6.279175
150.3298, 5.857178
150.8119, 6.124390
151.2940, 7.996216
151.7761, 9.214600
152.2583, 8.859619
152.7404, 7.648926
153.2225, 7.820068
153.7046, 11.72717
154.1867, 15.47046
154.6688, 17.26855
155.1510, 15.47302
155.6331, 13.69495
156.1152, 12.38452
156.5973, 11.57556
157.0794, 11.02100
157.5615, 10.77014
158.0437, 10.68372
158.5258, 10.57227
159.0079, 9.691650
159.4900, 9.390503
159.9721, 10.51855
160.4542, 12.86829
160.9364, 14.78345
161.4185, 15.27795
161.9006, 15.27893
162.3827, 15.33496
162.8648, 14.57690
163.3469, 13.76489
163.8291, 13.94995
164.3112, 14.64258
164.7933, 14.40649
165.2754, 13.89587
165.7575, 13.43994
166.2396, 12.54749
166.7218, 9.966187
167.2039, 7.599487
167.6860, 6.669800
168.1681, 7.220703
168.6502, 8.141846
169.1323, 9.099243
169.6145, 9.919556
170.0966, 10.35425
170.5787, 10.10461
171.0608, 9.557129
171.5429, 9.094604
172.0250, 8.737183
172.5072, 8.202759
172.9893, 6.368042
173.4714, 4.233765
173.9535, 3.649292
174.4356, 7.587402
174.9177, 12.54858
175.3999, 13.92493
175.8820, 11.26184
176.3641, 7.901978
176.8462, 6.808350
177.3283, 7.381348
177.8104, 8.087891
178.2926, 8.268921
178.7747, 8.069580
179.2568, 7.766602
179.7389, 7.382690
180.2210, 6.738281
180.7031, 5.049683
181.1853, 2.707642
181.6674, 1.183472
182.1495, 2.311157
182.6316, 4.808105
183.1137, 5.159180
183.5958, 2.843628
184.0780, 0.1196290
184.5601, 1.121460
185.0422, 0.3867190
185.5243, 0.5989990
186.0064, 1.493164
186.4885, 2.111816
186.9707, 1.484375
187.4528, 0.7659910
187.9349, 3.280151
188.4170, 3.810425
188.8991, 2.451416
189.3812, 0.8540040
189.8634, 0.3159180
190.3455, 1.024780
190.8276, 0.9849850
191.3097, 0.1048580
191.7918, 1.397949
192.2739, 1.277466
192.7561, 0.1390380
193.2382, 1.832520
193.7203, 3.228149
194.2024, 4.359497
194.6845, 5.882324
195.1666, 8.050537
195.6488, 10.34900
196.1309, 11.45667
196.6130, 11.27209
197.0951, 11.17566
197.5772, 12.39331
198.0593, 14.82251
198.5415, 16.35608
199.0236, 16.63086
199.5057, 16.20593
199.9878, 16.42310
200.4699, 17.43970
200.9520, 18.30542
201.4342, 18.37427
201.9163, 17.56543
202.3984, 16.78271
202.8805, 15.97375
203.3626, 15.26477
203.8447, 15.23132
204.3269, 15.93811
204.8090, 16.79089
205.2911, 17.70776
205.7732, 18.87817
206.2553, 18.62939
206.7374, 16.22388
207.2196, 12.76416
207.7017, 11.46338
208.1838, 12.93665
208.6659, 14.86328
209.1480, 16.02625
209.6301, 16.35718
210.1123, 16.23962
210.5944, 15.38403
211.0765, 14.22559
211.5586, 14.29626
212.0407, 16.23840
212.5228, 17.99304
213.0050, 18.08398
213.4871, 15.71289
213.9692, 14.77759
214.4513, 16.20593
214.9334, 18.91699
215.4155, 19.46643
215.8977, 16.77551
216.3798, 13.98108
216.8619, 12.98230
217.3440, 14.64282
217.8261, 15.29199
218.3082, 14.48376
218.7904, 12.61926
219.2725, 10.84302
219.7546, 9.020142
220.2367, 7.544434
220.7188, 6.717529
221.2009, 6.845703
221.6831, 6.779419
222.1652, 6.220947
222.6473, 5.563354
223.1294, 6.150391
223.6115, 9.111084
224.0936, 11.52612
224.5758, 11.77612
225.0579, 8.538452
225.5400, 6.539185
226.0221, 6.463623
226.5042, 7.554321
226.9863, 7.657471
227.4685, 6.257568
227.9506, 4.668945
228.4327, 3.413086
228.9148, 2.360718
229.3969, 1.899048
229.8790, 2.187744
230.3612, 2.991455
230.8433, 3.706665
231.3254, 4.130737
231.8075, 4.736084
232.2896, 5.845337
232.7717, 7.915039
233.2539, 9.189453
233.7360, 9.222046
234.2181, 8.563721
234.7002, 8.501831
235.1823, 9.195068
235.6644, 10.20203
236.1466, 11.51819
236.6287, 13.67456
237.1108, 14.61792
237.5929, 13.76770
238.0750, 11.95935
238.5571, 10.82874
239.0393, 10.79749
239.5214, 10.78247
240.0035, 10.47302
240.4856, 9.887207
240.9677, 9.035522
241.4498, 7.817871
241.9320, 6.377197
242.4141, 5.000122
242.8962, 3.917236
243.3783, 2.878540
243.8604, 1.617310
244.3425, 0.2231450
244.8247, 0.8222660
245.3068, 0.4143070
245.7889, 2.344604
246.2710, 3.424072
246.7531, 3.461670
247.2352, 3.272217
247.7174, 2.835693
248.1995, 1.819214
248.6816, 1.966431
249.1637, 4.025513
249.6458, 6.548340
250.1279, 7.520020
250.6101, 6.116211
251.0922, 4.869385
251.5743, 4.638184
252.0564, 5.650879
252.5385, 5.696655
253.0206, 3.980469
253.5028, 2.023438
253.9849, 1.947510
254.4670, 5.069214
254.9491, 7.259888
255.4312, 7.223145
255.9133, 4.796631
256.3955, 3.228394
256.8776, 2.758789
257.3597, 2.873901
257.8418, 2.993652
258.3239, 2.917480
258.8061, 3.376343
259.2882, 4.804565
259.7703, 7.169556
260.2524, 8.396240
260.7345, 8.069336
261.2166, 7.229736
261.6988, 6.706787
262.1809, 6.611450
262.6630, 6.849121
263.1451, 7.672974
263.6272, 8.945435
264.1093, 9.069702
264.5915, 7.428345
265.0736, 5.768188
265.5557, 5.863037
266.0378, 8.694702
266.5199, 9.682739
267.0020, 7.459106
267.4842, 2.937378
267.9663, 0.8527830
268.4484, 1.892334
268.9305, 3.663452
269.4126, 4.408325
269.8947, 3.774292
270.3769, 3.712036
270.8590, 4.543701
271.3411, 5.991333
271.8232, 7.220581
272.3053, 8.276855
272.7874, 8.951416
273.2696, 8.993286
273.7517, 8.263306
274.2338, 7.785645
274.7159, 7.615479
275.1980, 7.716919
275.6801, 8.079102
276.1623, 8.809937
276.6444, 9.416626
277.1265, 9.573486
277.6086, 9.247437
278.0907, 9.232666
278.5728, 9.775391
279.0550, 10.29614
279.5371, 9.460205
280.0192, 7.059082
280.5013, 4.993042
280.9834, 4.081421
281.4655, 4.311401
281.9477, 5.191650
282.4298, 6.864380
282.9119, 8.719971
283.3940, 9.860962
283.8761, 10.26282
284.3582, 10.53992
284.8404, 10.71948
285.3225, 10.89880
285.8046, 12.04785
286.2867, 14.39648
286.7688, 16.43469
287.2509, 16.17712
287.7331, 13.75989
288.2152, 11.20715
288.6973, 8.989624
289.1794, 7.218750
289.6615, 6.511719
290.1436, 7.131470
290.6258, 7.849976
291.1079, 7.097900
291.5900, 5.229126
292.0721, 4.384888
292.5542, 5.742188
293.0363, 7.785034
293.5185, 7.449707
294.0006, 4.834961
294.4827, 2.028442
294.9648, 0.1811520
295.4469, 0.6702880
295.9290, 0.1987300
296.4112, 2.062378
296.8933, 4.927124
297.3754, 6.554443
297.8575, 7.256226
298.3396, 7.676270
298.8217, 8.576782
299.3039, 9.654419
299.7860, 9.757935
300.2681, 8.566162
300.7502, 7.461548
301.2323, 8.425171
301.7144, 10.93237
302.1966, 13.21204
302.6787, 14.41016
303.1608, 14.82861
303.6429, 14.72986
304.1250, 14.08752
304.6071, 13.11292
305.0893, 11.74329
305.5714, 10.24500
306.0535, 9.223755
306.5356, 9.194336
307.0177, 9.467529
307.4998, 9.408936
307.9820, 9.101440
308.4641, 8.682007
308.9462, 8.135986
309.4283, 7.615967
309.9104, 7.272217
310.3925, 7.532349
310.8747, 7.807373
311.3568, 7.682495
311.8389, 7.197388
312.3210, 6.649170
312.8031, 6.102173
313.2852, 5.599854
313.7674, 5.200684
314.2495, 5.114624
314.7316, 4.897583
315.2137, 4.174561
315.6958, 3.094116
316.1779, 2.163330
316.6601, 1.579102
317.1422, 1.204712
317.6243, 0.8444820
318.1064, 3.7108999E-02
318.5885, 7.1533002E-02
319.0706, 2.321777
319.5528, 5.638184
320.0349, 7.800537
320.5170, 7.298950
320.9991, 6.226196
321.4812, 5.380981
321.9633, 4.823608
322.4455, 4.556396
322.9276, 5.136353
323.4097, 5.838989
323.8918, 5.771362
324.3739, 3.239136
324.8560, 1.456909
325.3382, 1.683960
325.8203, 4.273926
326.3024, 5.958740
326.7845, 5.925171
327.2666, 5.253174
327.7487, 4.790527
328.2309, 4.549194
328.7130, 4.554565
329.1951, 5.111328
329.6772, 6.099731
330.1593, 6.277344
330.6414, 4.559570
331.1236, 3.028931
331.6057, 2.910522
332.0878, 5.525024
332.5699, 7.102295
333.0520, 7.156494
333.5341, 6.127808
334.0163, 5.141357
334.4984, 3.913574
334.9805, 3.192139
335.4626, 3.499878
335.9447, 5.360352
336.4268, 6.180298
336.9090, 5.602661
337.3911, 4.394897
337.8732, 3.795898
338.3553, 3.979980
338.8374, 4.223999
339.3195, 4.396606
339.8017, 4.501221
340.2838, 4.287842
340.7659, 3.715820
341.2480, 2.962524
341.7301, 2.132935
342.2122, 1.213745
342.6944, 0.4580080
343.1765, 0.1215820
343.6586, 0.4923100
344.1407, 0.5461430
344.6228, 0.3000490
345.1049, 0.3157960
345.5871, 2.014038
346.0692, 4.453125
346.5513, 4.788330
347.0334, 2.042603
347.5155, 1.686890
347.9977, 2.611816
348.4798, 1.033569
348.9619, 0.5880130
349.4440, 5.9448000E-02
349.9261, 1.587036
350.4082, 0.1998290
350.8904, 4.755249
351.3725, 9.835205
351.8546, 11.29944
352.3367, 10.02759
352.8188, 8.375122
353.3009, 7.777100
353.7831, 7.161499
354.2652, 4.392334
354.7473, 0.4029540
355.2294, 4.058838
355.7115, 2.702026
356.1936, 0.7006840
356.6758, 2.167236
357.1579, 0.6678470
357.6400, 4.206177
358.1221, 6.029663
358.6042, 6.425659
359.0863, 6.463013
359.5685, 6.642822
360.0506, 6.674561
360.5327, 6.303101
361.0148, 5.368774
361.4969, 4.317627
361.9790, 2.953369
362.4612, 1.651367
362.9433, 1.015381
363.4254, 2.342285
363.9075, 3.422241
364.3896, 3.029053
364.8717, 0.8070070
365.3539, 0.5892330
365.8360, 0.2822270
366.3181, 1.810913
366.8002, 2.526245
367.2823, 1.470093
367.7644, 0.5003660
368.2466, 0.2199710
368.7287, 0.4968260
369.2108, 0.2237550
369.6929, 3.535034
370.1750, 6.469849
370.6571, 7.443115
371.1393, 5.109253
371.6214, 3.166016
372.1035, 1.464233
372.5856, 0.2407230
373.0677, 0.1477050
373.5498, 1.773804
374.0320, 3.399048
374.5141, 4.255859
374.9962, 4.171509
375.4783, 5.034668
375.9604, 7.227051
376.4425, 9.692383
376.9247, 11.03076
377.4068, 10.92090
377.8889, 11.17737
378.3710, 12.45264
378.8531, 14.37097
379.3352, 15.25586
379.8174, 14.95569
380.2995, 14.53784
380.7816, 14.74939
381.2637, 15.56958
381.7458, 16.72754
382.2279, 18.15198
382.7101, 19.94897
383.1922, 22.81909
383.6743, 26.64124
384.1564, 29.99670
384.6385, 31.74536
385.1206, 32.61377
385.6028, 34.18494
386.0849, 36.58459
386.5670, 39.03894
387.0491, 40.53711
387.5312, 41.60901
388.0133, 43.34033
388.4955, 46.66895
388.9776, 50.34094
389.4597, 53.08862
389.9418, 55.06335
390.4239, 57.07910
390.9060, 59.23792
391.3882, 61.84802
391.8703, 65.26501
392.3524, 69.91821
392.8345, 74.70959
393.3166, 79.14136
393.7987, 83.37292
394.2809, 87.62292
394.7630, 92.10913
395.2451, 96.51721
395.7272, 100.6796
396.2093, 104.4790
396.6914, 108.5228
397.1736, 113.1779
397.6557, 117.9860
398.1378, 122.5436
398.6199, 126.6161
399.1020, 130.5376
399.5841, 134.1626
400.0663, 137.5583
400.5484, 141.3309
401.0305, 145.8098
401.5126, 150.3229
401.9947, 154.7163
402.4768, 159.5115
402.9590, 162.9027
403.4411, 164.3929
403.9232, 164.8798
404.4053, 166.0496
404.8874, 168.2268
405.3695, 170.0582
405.8517, 171.3577
406.3338, 172.2872
406.8159, 172.8441
407.2980, 172.7971
407.7801, 172.5582
408.2622, 172.7579
408.7444, 173.3484
409.2265, 174.0624
409.7086, 175.1492
410.1907, 175.9097
410.6728, 174.4834
411.1549, 171.0353
411.6371, 167.6650
412.1192, 165.8070
412.6013, 164.8685
413.0834, 163.5100
413.5655, 161.9116
414.0476, 160.5803
414.5298, 160.0676
415.0119, 159.8470
415.4940, 158.8090
415.9761, 155.9564
416.4582, 152.8812
416.9403, 151.0707
417.4225, 150.3422
417.9046, 149.6261
418.3867, 148.8580
418.8688, 147.6351
419.3509, 145.4292
419.8330, 141.4807
420.3152, 138.0586
420.7973, 136.3082
421.2794, 135.4780
421.7615, 134.3864
422.2436, 132.7266
422.7257, 131.0724
423.2079, 129.4176
423.6900, 127.7286
424.1721, 126.1857
424.6542, 124.9532
425.1363, 123.8931
425.6184, 122.7916
426.1006, 121.4105
426.5827, 120.2485
427.0648, 119.3669
427.5469, 118.6958
428.0290, 118.1240
428.5111, 117.7777
428.9933, 117.1925
429.4754, 115.9216
429.9575, 113.7084
430.4396, 112.6940
430.9217, 113.2488
431.4038, 114.1487
431.8860, 113.7203
432.3681, 111.9175
432.8502, 110.2466
433.3323, 109.2833
433.8144, 108.6433
434.2965, 107.0813
434.7787, 104.6378
435.2608, 102.3126
435.7429, 100.7379
436.2250, 99.85950
436.7071, 99.68347
437.1892, 100.3817
437.6714, 101.1324
438.1535, 100.9044
438.6356, 100.0538
439.1177, 99.34656
439.5998, 98.97961
440.0819, 98.97839
440.5641, 99.50757
441.0462, 100.4934
441.5283, 101.3976
442.0104, 101.5363
442.4925, 101.6191
442.9746, 102.2644
443.4568, 103.9113
443.9389, 105.5123
444.4210, 106.7578
444.9031, 107.7246
445.3852, 108.5787
445.8673, 109.2863
446.3495, 109.9490
446.8316, 110.5573
447.3137, 111.0879
447.7958, 111.9259
448.2779, 113.5883
448.7600, 115.1619
449.2422, 115.8289
449.7243, 114.6190
450.2064, 114.7037
450.6885, 116.9059
451.1706, 120.3081
451.6527, 122.3429
452.1349, 122.8159
452.6170, 122.6061
453.0991, 121.6829
453.5812, 120.1210
454.0633, 119.9873
454.5454, 121.4430
455.0276, 123.4747
455.5097, 124.9950
455.9918, 126.0957
456.4739, 127.2931
456.9560, 128.7512
457.4381, 130.1271
457.9203, 131.3158
458.4024, 132.2427
458.8845, 132.3824
459.3666, 130.4373
459.8488, 127.9758
460.3309, 127.1108
460.8130, 128.0918
461.2951, 129.0435
461.7772, 128.8704
462.2593, 128.0239
462.7415, 127.0212
463.2236, 125.5627
463.7057, 124.5404
464.1878, 124.5676
464.6699, 125.3357
465.1520, 125.8208
465.6342, 125.0299
466.1163, 124.3312
466.5984, 124.4745
467.0805, 126.0992
467.5626, 127.0662
468.0447, 127.2994
468.5269, 127.0029
469.0090, 126.1938
469.4911, 124.2783
469.9732, 122.9979
470.4553, 122.7313
470.9374, 123.2623
471.4196, 123.7998
471.9017, 124.4413
472.3838, 124.6885
472.8659, 123.9043
473.3480, 122.0676
473.8301, 121.6011
474.3123, 122.8595
474.7944, 124.1593
475.2765, 123.2263
475.7586, 120.4192
476.2407, 117.6155
476.7228, 115.3324
477.2050, 113.4008
477.6871, 111.6324
478.1692, 110.0308
478.6513, 108.5865
479.1334, 107.6273
479.6155, 106.6943
480.0977, 105.0862
480.5798, 102.6045
481.0619, 100.5682
481.5440, 100.2456
482.0261, 100.6803
482.5082, 100.7531
482.9904, 100.4261
483.4725, 99.39575
483.9546, 97.54272
484.4367, 94.88318
484.9188, 91.56372
485.4009, 86.81665
485.8831, 82.04492
486.3652, 77.54541
486.8473, 73.04529
487.3294, 69.90527
487.8115, 68.80859
488.2936, 68.37329
488.7758, 67.17822
489.2579, 65.04834
489.7400, 62.62097
490.2221, 60.08154
490.7042, 57.24048
491.1863, 53.28455
491.6685, 48.05103
492.1506, 43.28467
492.6327, 40.20251
493.1148, 38.48560
493.5969, 36.95679
494.0790, 35.64636
494.5612, 34.10193
495.0433, 31.59290
495.5254, 28.56299
496.0075, 25.94238
496.4896, 24.27393
496.9717, 22.72656
497.4539, 19.94543
497.9360, 16.61951
498.4181, 14.62976
498.9002, 16.39917
499.3823, 18.55286
499.8644, 18.73157
500.3466, 16.59167
500.8287, 14.78796
501.3108, 14.42920
501.7929, 14.48865
502.2750, 14.18127
502.7571, 13.49512
503.2393, 12.23608
503.7214, 9.631348
504.2035, 6.603638
504.6856, 5.232178
505.1677, 6.596924
505.6498, 7.650757
506.1320, 7.395874
506.6141, 5.903198
507.0962, 4.661743
507.5783, 3.645386
508.0604, 3.070313
508.5425, 3.573364
509.0247, 5.017578
509.5068, 5.243042
509.9889, 3.812744
510.4710, 1.755615
510.9531, 0.4857180
511.4352, 0.1774900
511.9174, 0.9183350
512.3995, 2.182129
512.8816, 3.581421
513.3637, 4.928101
513.8458, 6.152710
514.3279, 6.760986
514.8101, 5.734863
515.2922, 4.470337
515.7743, 4.164551
516.2564, 5.243042
516.7385, 6.521973
517.2206, 8.113403
517.7028, 9.512817
518.1849, 10.12939
518.6670, 8.841553
519.1491, 7.947632
519.6312, 7.773315
520.1133, 8.220215
520.5955, 8.990845
521.0776, 10.38574
521.5597, 11.50708
522.0418, 12.04480
522.5239, 11.99426
523.0060, 10.87415
523.4882, 8.411865
523.9703, 5.525391
524.4524, 3.107910
524.9345, 1.144409
525.4166, 0.6591800
525.8987, 2.333618
526.3809, 3.931274
526.8630, 5.490356
527.3451, 7.038696
527.8272, 8.694458
528.3093, 10.46753
528.7914, 12.37988
529.2736, 14.69055
529.7557, 17.33447
530.2378, 19.42175
530.7199, 19.12842
531.2020, 18.83630
531.6841, 20.75366
532.1663, 26.60229
532.6484, 31.74438
533.1305, 34.51855
533.6126, 36.10510
534.0947, 38.26733
534.5768, 41.91748
535.0590, 45.27124
535.5411, 48.44019
536.0232, 51.24341
536.5053, 51.86304
536.9874, 48.91504
537.4695, 46.93616
537.9517, 48.79272
538.4338, 54.76477
538.9159, 59.29321
539.3980, 62.21167
539.8801, 64.30688
540.3622, 65.78638
540.8444, 66.95215
541.3265, 69.44946
541.8086, 73.98218
542.2907, 79.32031
542.7728, 83.94788
543.2549, 88.10266
543.7371, 92.35498
544.2192, 97.32385
544.7013, 102.2472
545.1834, 106.3788
545.6655, 109.8137
546.1476, 113.6112
546.6298, 118.8311
547.1119, 124.1836
547.5940, 128.8435
548.0761, 132.6542
548.5582, 135.9320
549.0403, 138.5894
549.5225, 140.8562
550.0046, 142.8916
550.4867, 144.4006
550.9688, 146.3431
551.4509, 149.2333
551.9330, 152.5638
552.4152, 154.2759
552.8973, 154.1346
553.3794, 153.7378
553.8615, 153.9758
554.3436, 154.6625
554.8257, 154.8477
555.3079, 154.5023
555.7900, 153.8568
556.2721, 153.0129
556.7542, 152.0405
557.2363, 151.1149
557.7184, 150.3650
558.2006, 149.4478
558.6827, 148.3994
559.1648, 146.9756
559.6469, 144.7417
560.1290, 140.6346
560.6111, 136.6218
561.0933, 133.3076
561.5754, 130.7158
562.0575, 128.9506
562.5396, 129.0614
563.0217, 129.0536
563.5038, 128.1185
563.9860, 126.0342
564.4681, 123.9021
564.9502, 121.4432
565.4323, 119.3517
565.9144, 118.5166
566.3965, 119.0587
566.8787, 119.3140
567.3608, 118.8977
567.8429, 118.4275
568.3250, 119.1139
568.8071, 120.7643
569.2892, 122.4008
569.7714, 123.4711
570.2535, 124.3292
570.7356, 125.1425
571.2177, 126.0541
571.6998, 127.7754
572.1819, 132.4701
572.6641, 137.1531
573.1462, 139.1176
573.6283, 137.4779
574.1104, 135.8239
574.5925, 134.4375
575.0746, 133.8918
575.5568, 134.7850
576.0389, 138.9607
576.5210, 142.2056
577.0031, 143.9360
577.4852, 144.7706
577.9673, 146.1954
578.4495, 148.6650
578.9316, 150.2256
579.4137, 149.9236
579.8958, 148.4020
580.3779, 148.3916
580.8600, 150.0189
581.3422, 152.2963
581.8243, 155.3077
582.3064, 158.3228
582.7885, 158.8507
583.2706, 156.4933
583.7527, 154.8906
584.2349, 158.2684
584.7170, 163.6859
585.1991, 167.4052
585.6812, 167.6854
586.1633, 167.4613
586.6454, 167.9368
587.1276, 168.7321
587.6097, 169.1586
588.0918, 168.9009
588.5739, 168.4390
589.0560, 167.5936
589.5381, 166.5181
590.0203, 166.4471
590.5024, 167.9453
590.9845, 169.3721
591.4666, 169.8625
591.9487, 169.4335
592.4308, 169.1212
592.9130, 168.9128
593.3951, 169.0557
593.8772, 169.7836
594.3593, 171.0750
594.8414, 172.8009
595.3235, 174.9116
595.8057, 177.5231
596.2878, 181.6665
596.7699, 186.2896
597.2520, 189.3722
597.7341, 188.6267
598.2162, 187.5951
598.6984, 188.1677
599.1805, 189.9010
599.6626, 191.1919
600.1447, 191.2983
600.6268, 191.2166
601.1089, 191.3782
601.5911, 191.8442
602.0732, 191.7760
602.5553, 191.1732
603.0374, 190.0417
603.5195, 188.1370
604.0016, 185.3514
604.4838, 183.6356
604.9659, 183.4713
605.4480, 183.2305
605.9301, 180.3600
606.4122, 175.5011
606.8943, 171.2809
607.3765, 168.7834
607.8586, 166.6031
608.3407, 163.3199
608.8228, 159.1742
609.3049, 154.8300
609.7870, 150.7908
610.2692, 146.3812
610.7513, 140.6089
611.2334, 133.7496
611.7155, 128.5133
612.1976, 127.0140
612.6797, 125.2985
613.1619, 121.7029
613.6440, 115.7217
614.1261, 110.2758
614.6082, 105.3668
615.0903, 100.9462
615.5724, 96.80164
616.0546, 92.89868
616.5367, 90.02942
617.0188, 88.77917
617.5009, 87.66406
617.9830, 83.45081
618.4651, 77.00562
618.9473, 72.03918
619.4294, 70.84521
619.9115, 70.87903
620.3936, 69.39343
620.8757, 66.78601
621.3578, 64.60693
621.8400, 63.57068
622.3221, 63.22900
622.8042, 63.61902
623.2863, 64.79187
623.7684, 65.86182
624.2505, 66.47144
624.7327, 67.15625
625.2148, 68.08167
625.6969, 69.12390
626.1790, 70.66797
626.6611, 72.98499
627.1432, 75.42627
627.6254, 77.13782
628.1075, 78.23315
628.5896, 79.54895
629.0717, 81.12134
629.5538, 83.42651
630.0359, 87.38086
630.5181, 92.23132
631.0002, 96.73950
631.4823, 100.3199
631.9644, 103.6384
632.4465, 107.1270
632.9286, 110.8120
633.4108, 114.4054
633.8929, 117.4210
634.3750, 120.5309
634.8571, 124.2734
635.3392, 128.7333
635.8214, 132.2743
636.3035, 134.9136
636.7856, 136.8046
637.2677, 137.9561
637.7498, 138.4259
638.2319, 137.8757
638.7141, 136.0686
639.1962, 134.3018
639.6783, 134.3538
640.1604, 135.6458
640.6425, 136.0126
641.1246, 135.0563
641.6068, 133.1152
642.0889, 129.9384
642.5710, 126.1455
643.0531, 122.8230
643.5352, 121.1798
644.0173, 119.0408
644.4995, 115.1058
644.9816, 110.0853
645.4637, 105.4255
645.9458, 101.7407
646.4279, 97.71643
646.9100, 92.80029
647.3922, 87.10864
647.8743, 82.71021
648.3564, 79.83630
648.8385, 77.23450
649.3206, 74.41711
649.8027, 71.28333
650.2849, 66.96851
650.7670, 61.37549
651.2491, 56.17700
651.7312, 53.36157
652.2133, 51.87183
652.6954, 50.06042
653.1776, 47.67249
653.6597, 44.85059
654.1418, 40.88867
654.6239, 36.80237
655.1060, 33.75000
655.5881, 33.72351
656.0703, 32.68530
656.5524, 29.14136
657.0345, 24.50146
657.5166, 21.29822
657.9987, 19.95703
658.4808, 18.95129
658.9630, 18.03821
659.4451, 17.14392
659.9272, 15.96179
660.4093, 14.49512
660.8914, 13.07153
661.3735, 12.09009
661.8557, 11.21143
662.3378, 9.736206
662.8199, 7.710327
663.3020, 5.505737
663.7841, 2.664551
664.2662, 0.2437740
664.7484, 0.7784420
665.2305, 0.1149900
665.7126, 0.8371580
666.1947, 2.426147
666.6768, 3.686279
667.1589, 3.952637
667.6411, 2.947021
668.1232, 1.301758
668.6053, 1.700684
669.0874, 4.400146
669.5695, 4.152710
670.0516, 1.009399
670.5338, 1.116577
671.0159, 1.299805
671.4980, 0.5014650
671.9801, 0.1396480
672.4622, 0.6115720
672.9443, 0.8510740
673.4265, 0.2189940
673.9086, 8.2030997E-02
674.3907, 1.349365
674.8728, 3.835693
675.3549, 5.324097
675.8370, 3.891846
676.3192, 2.661621
676.8013, 3.131958
677.2834, 5.075439
677.7655, 5.634888
678.2476, 4.208984
678.7297, 2.610596
679.2119, 1.649170
679.6940, 1.318115
680.1761, 1.724243
680.6582, 2.946045
681.1403, 4.172974
681.6224, 5.012817
682.1046, 5.323120
682.5867, 4.587036
683.0688, 2.614990
683.5509, 0.7252200
684.0330, 0.4843750
684.5151, 1.011230
684.9973, 0.8615720
685.4794, 0.2047120
685.9615, 1.545898
686.4436, 4.072876
686.9257, 6.336304
687.4078, 6.412109
687.8900, 3.225342
688.3721, 0.6004640
688.8542, 1.005493
689.3363, 1.664917
689.8184, 1.011719
690.3005, 0.8123780
690.7827, 2.136230
691.2648, 2.247437
691.7469, 1.582520
692.2290, 0.3609620
692.7111, 1.173218
693.1932, 2.177002
693.6754, 1.150146
694.1575, 0.4024660
694.6396, 1.905518
695.1217, 5.390259
695.6038, 7.218384
696.0859, 5.020508
696.5681, 2.915039
697.0502, 2.531982
697.5323, 3.962891
698.0144, 5.092651
698.4965, 6.096436
698.9786, 6.360107
699.4608, 4.640137
699.9429, 1.582886
700.4250, 0.7464600
700.9071, 2.495483
701.3892, 4.088379
701.8713, 2.083618
702.3535, 1.017822
702.8356, 1.789429
703.3177, 1.364624
703.7998, 3.942261
704.2819, 3.596069
704.7640, 2.097656
705.2462, 1.350220
705.7283, 1.968384
706.2104, 2.460449
706.6925, 2.730713
707.1746, 2.857056
707.6567, 2.976074
708.1389, 3.089111
708.6210, 3.128052
709.1031, 3.086670
709.5852, 2.950195
710.0673, 2.601563
710.5494, 2.126343
711.0316, 1.784546
711.5137, 1.602051
711.9958, 1.694092
712.4779, 2.393188
712.9600, 3.471680
713.4421, 4.204224
713.9243, 4.044189
714.4064, 3.903320
714.8885, 4.068359
715.3706, 4.487549
715.8527, 4.768921
716.3348, 4.800903
716.8170, 5.024048
717.2991, 5.892944
717.7812, 7.152100
718.2633, 7.222046
718.7454, 6.133545
719.2275, 5.113403
719.7097, 5.125854
720.1918, 5.642822
720.6739, 6.164185
721.1560, 6.643921
721.6381, 6.862549
722.1202, 6.328003
722.6024, 5.767822
723.0845, 5.742188
723.5666, 6.470703
724.0487, 7.255615
724.5308, 8.447021
725.0129, 9.268799
725.4951, 8.734253
725.9772, 6.709229
726.4593, 5.927124
726.9414, 6.683960
727.4235, 7.789307
727.9056, 7.573853
728.3878, 6.572144
728.8699, 6.326050
729.3520, 7.455444
729.8341, 8.576416
730.3162, 8.463013
730.7983, 7.896851
731.2805, 7.915405
731.7626, 9.671753
732.2447, 10.70312
732.7268, 10.28503
733.2089, 9.230713
733.6910, 8.967773
734.1732, 9.616089
734.6553, 10.49634
735.1374, 11.59558
735.6195, 12.55444
736.1016, 12.06311
736.5837, 10.61230
737.0659, 10.32507
737.5480, 13.47473
738.0301, 16.57434
738.5122, 15.60571
738.9943, 12.01318
739.4764, 9.550903
739.9586, 11.05164
740.4407, 12.34741
740.9228, 11.77673
741.4049, 9.824707
741.8870, 8.561401
742.3691, 8.021973
742.8513, 7.927734
743.3334, 8.377441
743.8155, 9.085938
744.2976, 8.709106
744.7797, 7.329224
745.2618, 6.002930
745.7440, 5.202271
746.2261, 5.136963
746.7082, 6.590942
747.1903, 9.234619
747.6724, 10.90662
748.1545, 9.712646
748.6367, 7.934326
749.1188, 6.866943
749.6009, 6.699097
750.0830, 6.348877
750.5651, 5.709839
751.0472, 5.004272
751.5294, 4.258057
752.0115, 3.456299
752.4936, 3.300293
752.9757, 3.797363
753.4578, 4.226685
753.9399, 4.104004
754.4221, 3.459473
754.9042, 2.071045
755.3863, 0.1492920
755.8684, 1.834595
756.3505, 2.464844
756.8326, 2.145508
757.3148, 0.6822510
757.7969, 3.064941
758.2790, 4.695679
758.7611, 3.259644
759.2432, 1.197632
759.7253, 0.7338870
760.2075, 1.765259
760.6896, 2.372681
761.1717, 2.613281
761.6538, 2.598022
762.1359, 2.429321
762.6180, 2.168945
763.1002, 1.908203
763.5823, 1.630981
764.0644, 1.675049
764.5465, 2.827393
765.0286, 4.129883
765.5107, 4.540894
765.9929, 3.072266
766.4750, 2.031616
766.9571, 1.453979
767.4392, 1.320068
767.9213, 1.720093
768.4034, 2.677124
768.8856, 3.582520
769.3677, 4.404541
769.8498, 4.892822
770.3319, 4.410278
770.8140, 3.371216
771.2961, 2.587036
771.7783, 1.946899
772.2604, 2.195190
772.7425, 4.718872
773.2246, 8.065674
773.7067, 10.03467
774.1888, 9.172363
774.6710, 8.773071
775.1531, 9.467163
775.6352, 10.49072
776.1173, 10.10608
776.5994, 8.257202
777.0815, 7.580444
777.5637, 9.112793
778.0458, 11.29529
778.5279, 11.73303
779.0100, 11.08093
779.4921, 10.83984
779.9742, 12.35449
780.4564, 13.51587
780.9385, 12.73096
781.4206, 11.00830
781.9027, 10.64294
782.3848, 13.31934
782.8669, 14.60217
783.3491, 13.26978
783.8312, 10.50378
784.3133, 9.217651
784.7954, 9.408569
785.2775, 9.818726
785.7596, 10.20105
786.2418, 10.33411
786.7239, 9.540771
787.2060, 8.260986
787.6881, 7.543823
788.1702, 8.577026
788.6523, 9.471802
789.1345, 8.920654
789.6166, 7.649536
790.0987, 7.899658
790.5808, 10.76147
791.0629, 12.94189
791.5450, 13.54565
792.0272, 13.04626
792.5093, 12.25122
792.9914, 11.26917
793.4735, 11.60559
793.9556, 14.81396
794.4377, 18.66882
794.9199, 20.98279
795.4020, 21.83984
795.8841, 21.36023
796.3662, 17.58215
796.8483, 14.66492
797.3304, 14.96277
797.8126, 17.28357
798.2947, 17.72644
798.7768, 15.37573
799.2589, 13.78088
799.7410, 14.13379
800.2231, 15.75903
800.7053, 17.29163
801.1874, 18.63123
801.6695, 19.18665
802.1516, 17.82898
802.6337, 16.30371
803.1158, 16.22559
803.5980, 17.22913
804.0801, 18.32349
804.5622, 19.55811
805.0443, 20.40210
805.5264, 20.61060
806.0085, 20.35095
806.4907, 20.06128
806.9728, 19.63196
807.4549, 19.70361
807.9370, 20.58997
808.4191, 21.97510
808.9012, 23.51489
809.3834, 25.04480
809.8655, 25.99390
810.3476, 25.35071
810.8297, 24.75342
811.3118, 25.64514
811.7939, 27.42419
812.2761, 28.25403
812.7582, 26.87488
813.2403, 25.92432
813.7224, 25.94397
814.2045, 26.72400
814.6866, 27.65369
815.1688, 28.76099
815.6509, 29.94446
816.1330, 31.22058
816.6151, 32.56873
817.0972, 33.48059
817.5793, 34.26270
818.0615, 35.71912
818.5436, 39.51147
819.0257, 42.98291
819.5078, 44.62292
819.9899, 44.98376
820.4720, 45.86523
820.9542, 47.38855
821.4363, 49.39880
821.9184, 52.10266
822.4005, 55.10583
822.8826, 57.37659
823.3647, 58.96704
823.8469, 60.40259
824.3290, 62.12878
824.8111, 63.73865
825.2932, 64.51868
825.7753, 64.90454
826.2574, 65.76538
826.7396, 67.54321
827.2217, 69.50830
827.7038, 71.65869
828.1859, 73.80762
828.6681, 75.65723
829.1502, 77.14575
829.6323, 78.31812
830.1144, 79.24487
830.5966, 80.13464
831.0787, 80.81091
831.5608, 81.30469
832.0429, 81.94617
832.5250, 83.12280
833.0071, 84.32690
833.4893, 85.28113
833.9714, 86.00378
834.4535, 86.67505
834.9356, 87.68787
835.4177, 88.05933
835.8998, 87.30115
836.3820, 86.41296
836.8641, 87.26123
837.3462, 89.57800
837.8283, 90.98999
838.3104, 90.82227
838.7925, 90.21802
839.2747, 90.02209
839.7568, 90.18872
840.2389, 90.72632
840.7210, 92.21448
841.2031, 93.00610
841.6852, 92.78687
842.1674, 91.72937
842.6495, 89.60828
843.1316, 85.99719
843.6137, 84.22095
844.0958, 84.88403
844.5779, 86.04236
845.0601, 85.19128
845.5422, 83.22046
846.0243, 82.18433
846.5064, 82.65540
846.9885, 82.71704
847.4706, 80.56799
847.9528, 77.97925
848.4349, 76.53821
848.9170, 76.77893
849.3991, 76.84705
849.8812, 76.94653
850.3633, 76.39685
850.8455, 74.19360
851.3276, 70.64575
851.8097, 68.00989
852.2918, 66.39514
852.7739, 65.27710
853.2560, 64.70959
853.7382, 64.15405
854.2203, 63.20789
854.7024, 61.87122
855.1845, 59.87927
855.6666, 56.77319
856.1487, 53.47583
856.6309, 50.12708
857.1130, 46.78699
857.5951, 45.13684
858.0772, 45.29175
858.5593, 45.70496
859.0414, 45.61536
859.5236, 44.97534
860.0057, 43.53711
860.4878, 41.38318
860.9699, 39.14575
861.4520, 36.68677
861.9341, 34.58838
862.4163, 33.19507
862.8984, 32.42456
863.3805, 32.01587
863.8626, 32.28931
864.3447, 31.80908
864.8268, 29.60254
865.3090, 26.58057
865.7911, 24.98193
866.2732, 24.59863
866.7553, 24.62036
867.2374, 25.14404
867.7195, 25.41821
868.2017, 25.17212
868.6838, 24.29712
869.1659, 22.33765
869.6480, 18.05322
870.1301, 15.06226
870.6122, 14.61499
871.0944, 15.23047
871.5765, 13.45068
872.0586, 9.631836
872.5407, 6.453613
873.0228, 5.132568
873.5049, 3.922852
873.9871, 0.5810550
874.4692, 3.531006
874.9513, 6.375732
875.4334, 5.688232
875.9155, 6.043213
876.3976, 8.676758
876.8798, 11.67041
877.3619, 12.53125
877.8440, 11.11230
878.3261, 10.47119
878.8082, 11.01782
879.2903, 12.15356
879.7725, 13.85571
880.2546, 15.51440
880.7367, 16.00244
881.2188, 14.80786
881.7009, 14.16895
882.1830, 15.39697
882.6652, 17.09351
883.1473, 18.37378
883.6294, 19.26270
884.1115, 19.54395
884.5936, 19.14648
885.0757, 18.34863
885.5579, 17.26099
886.0400, 15.89746
886.5221, 13.85742
887.0042, 11.26709
887.4863, 9.699707
887.9684, 11.41992
888.4506, 13.08813
888.9327, 12.49072
889.4148, 9.757568
889.8969, 7.857422
890.3790, 7.225342
890.8611, 6.222168
891.3433, 4.201416
891.8254, 1.339355
892.3075, 2.618896
892.7896, 7.273438
893.2717, 10.84448
893.7538, 11.37622
894.2360, 11.63989
894.7181, 13.18213
895.2002, 15.63550
895.6823, 18.06348
896.1644, 20.70898
896.6465, 22.48047
897.1287, 22.77026
897.6108, 22.68994
898.0929, 24.66309
898.5750, 28.17480
899.0571, 30.88574
899.5392, 32.47949
900.0214, 32.44995
900.5035, 28.29712
900.9856, 23.33301
901.4677, 21.53857
901.9498, 26.89307
902.4319, 29.60352
902.9141, 28.37598
903.3962, 26.33081
903.8783, 26.76245
904.3604, 29.29077
904.8425, 29.74829
905.3246, 27.78442
905.8068, 26.04395
906.2889, 26.97412
906.7710, 28.95190
907.2531, 30.47681
907.7352, 31.32153
908.2173, 32.65869
908.6995, 34.81128
909.1816, 37.26929
909.6637, 39.88721
910.1458, 42.60327
910.6279, 44.47998
911.1100, 45.60376
911.5922, 47.60400
912.0743, 52.23706
912.5564, 57.61572
913.0385, 62.01538
913.5206, 65.57031
914.0027, 68.88770
914.4849, 71.77563
914.9670, 74.91675
915.4491, 78.55298
915.9312, 82.42236
916.4133, 86.23193
916.8954, 89.97192
917.3776, 92.44458
917.8597, 93.11646
918.3418, 93.25537
918.8239, 94.66528
919.3060, 96.26953
919.7881, 96.36108
920.2703, 93.06372
920.7524, 91.33057
921.2345, 92.81104
921.7166, 95.03687
922.1987, 95.85254
922.6808, 95.17407
923.1630, 95.41968
923.6451, 96.73413
924.1272, 98.29175
924.6093, 99.06274
925.0914, 99.88452
925.5735, 101.9399
926.0557, 105.2500
926.5378, 108.2913
927.0199, 109.6370
927.5020, 111.7244
927.9841, 115.4856
928.4662, 120.7668
928.9484, 126.6206
929.4305, 133.0366
929.9126, 139.7761
930.3947, 146.5566
930.8768, 153.7913
931.3589, 162.3174
931.8411, 171.4082
932.3232, 179.4380
932.8053, 185.4636
933.2874, 191.3799
933.7695, 196.7742
934.2516, 202.4756
934.7338, 210.1018
935.2159, 219.8630
935.6980, 229.1699
936.1801, 237.5217
936.6622, 245.3835
937.1443, 253.2683
937.6265, 260.9092
938.1086, 267.5696
938.5907, 272.7598
939.0728, 279.4661
939.5549, 289.6421
940.0370, 299.1687
940.5192, 305.0854
941.0013, 307.6592
941.4834, 312.1912
941.9655, 318.7332
942.4476, 325.3501
942.9297, 331.1472
943.4119, 336.1523
943.8940, 339.9348
944.3761, 342.8774
944.8582, 346.4824
945.3403, 350.2986
945.8224, 355.6987
946.3046, 363.6531
946.7867, 373.0381
947.2688, 380.3618
947.7509, 386.0032
948.2330, 393.3687
948.7151, 404.1072
949.1973, 415.2136
949.6794, 423.6592
950.1615, 430.9126
950.6436, 438.7903
951.1257, 447.5024
951.6078, 457.1782
952.0900, 468.0823
952.5721, 479.5203
953.0542, 490.7288
953.5363, 501.8906
954.0184, 514.5386
954.5005, 528.5471
954.9827, 542.2988
955.4648, 554.6272
955.9469, 566.2000
956.4290, 577.2498
956.9111, 587.8562
957.3932, 598.6843
957.8754, 610.3120
958.3575, 620.8816
958.8396, 629.4875
959.3217, 636.8252
959.8038, 644.2175
960.2859, 651.5981
960.7681, 658.7476
961.2502, 666.0823
961.7323, 672.3545
962.2144, 676.6184
962.6965, 679.5479
963.1786, 682.0359
963.6608, 684.3025
964.1429, 685.7014
964.6250, 686.0886
965.1071, 686.1526
965.5892, 685.9395
966.0714, 686.1177
966.5535, 688.3123
967.0356, 692.6250
967.5177, 697.7114
967.9998, 701.5222
968.4819, 707.3003
968.9641, 717.4895
969.4462, 731.4116
969.9283, 744.5535
970.4104, 756.4680
970.8925, 770.7996
971.3746, 789.6824
971.8568, 810.8933
972.3389, 831.4473
972.8210, 851.9338
973.3031, 873.8406
973.7852, 900.3013
974.2673, 924.4653
974.7495, 944.5005
975.2316, 962.4512
975.7137, 980.3691
976.1958, 998.4353
976.6779, 1016.266
977.1600, 1034.126
977.6422, 1049.442
978.1243, 1058.614
978.6064, 1065.423
979.0885, 1074.089
979.5706, 1085.003
980.0527, 1094.953
980.5349, 1103.420
981.0170, 1110.810
981.4991, 1117.266
981.9812, 1122.797
982.4633, 1127.034
982.9454, 1130.196
983.4276, 1133.828
983.9097, 1139.831
984.3918, 1144.706
984.8739, 1145.907
985.3560, 1144.445
985.8381, 1141.612
986.3203, 1136.144
986.8024, 1132.886
987.2845, 1132.636
987.7666, 1133.158
988.2487, 1132.513
988.7308, 1130.792
989.2130, 1128.481
989.6951, 1125.595
990.1772, 1120.690
990.6593, 1110.249
991.1414, 1100.155
991.6235, 1094.654
992.1057, 1092.573
992.5878, 1086.522
993.0699, 1075.853
993.5520, 1065.413
994.0341, 1057.000
994.5162, 1049.330
994.9984, 1041.416
995.4805, 1032.816
995.9626, 1022.458
996.4447, 1008.496
996.9268, 995.0830
997.4089, 984.3723
997.8911, 973.1917
998.3732, 958.3354
998.8553, 940.1064
999.3374, 921.7937
999.8195, 903.6558
1000.302, 886.5879
1000.784, 872.9709
1001.266, 859.0012
1001.748, 840.7317
1002.230, 818.4116
1002.712, 797.2017
1003.194, 777.7798
1003.676, 758.5881
1004.159, 739.1284
1004.641, 719.3872
1005.123, 698.8335
1005.605, 677.6765
1006.087, 656.2446
1006.569, 634.0049
1007.051, 612.4175
1007.533, 591.4019
1008.016, 571.3955
1008.498, 552.6638
1008.980, 535.6919
1009.462, 518.5356
1009.944, 500.9529
1010.426, 483.7778
1010.908, 467.2761
1011.390, 451.8835
1011.872, 438.8062
1012.355, 427.6296
1012.837, 416.1245
1013.319, 401.9043
1013.801, 389.1477
1014.283, 379.1130
1014.765, 370.7070
1015.247, 361.7710
1015.729, 352.2959
1016.211, 343.1819
1016.694, 334.6147
1017.176, 326.2510
1017.658, 318.4863
1018.140, 310.4233
1018.622, 300.5498
1019.104, 288.0833
1019.586, 279.6379
1020.068, 276.6438
1020.551, 273.0603
1021.033, 265.3896
1021.515, 255.1416
1021.997, 244.6218
1022.479, 234.4419
1022.961, 226.3376
1023.443, 223.1650
1023.925, 219.5376
1024.407, 213.7478
1024.890, 206.8677
1025.372, 200.0532
1025.854, 193.3625
1026.336, 186.4841
1026.818, 179.3381
1027.300, 172.1230
1027.782, 164.8101
1028.264, 157.5503
1028.746, 150.6519
1029.229, 144.1514
1029.711, 136.7156
1030.193, 127.0896
1030.675, 119.0593
1031.157, 114.1643
1031.639, 111.3140
1032.121, 108.7678
1032.603, 106.0583
1033.086, 101.8425
1033.568, 95.29150
1034.050, 87.94458
1034.532, 78.95947
1035.014, 70.76978
1035.496, 65.80347
1035.978, 64.74463
1036.460, 62.53906
1036.943, 59.21631
1037.425, 55.21045
1037.907, 50.14014
1038.389, 45.12451
1038.871, 41.51489
1039.353, 39.07788
1039.835, 36.94507
1040.317, 34.59253
1040.799, 33.17920
1041.281, 33.32812
1041.764, 33.67480
1042.246, 31.38574
1042.728, 27.45142
1043.210, 25.67725
1043.692, 27.04248
1044.174, 27.49072
1044.656, 23.83008
1045.138, 19.24121
1045.621, 15.59985
1046.103, 12.92700
1046.585, 11.24121
1047.067, 10.64185
1047.549, 9.800293
1048.031, 8.062012
1048.513, 5.920410
1048.995, 3.357910
1049.478, 1.012207
1049.960, 2.5635000E-02
1050.442, 2.299805
1050.924, 3.253662
1051.406, 2.647949
1051.888, 0.9077150
1052.370, 2.428711
1052.852, 6.534424
1053.334, 8.290771
1053.817, 7.772461
1054.299, 7.078369
1054.781, 7.069336
1055.263, 7.457031
1055.745, 8.187500
1056.227, 9.201904
1056.709, 10.67188
1057.191, 12.68311
1057.673, 13.47925
1058.156, 12.47974
1058.638, 11.18921
1059.120, 11.28296
1059.602, 11.88037
1060.084, 12.04858
1060.566, 11.60620
1061.048, 10.94971
1061.530, 9.867676
1062.013, 9.160400
1062.495, 9.389404
1062.977, 10.10132
1063.459, 10.63013
1063.941, 10.71899
1064.423, 9.614746
1064.905, 5.022705
1065.387, 2.007568
1065.870, 3.117432
1066.352, 5.755127
1066.834, 8.199707
1067.316, 10.43970
1067.798, 10.27856
1068.280, 7.638428
1068.762, 5.361816
1069.244, 6.436523
1069.726, 7.917480
1070.208, 6.949951
1070.691, 4.222412
1071.173, 3.195068
1071.655, 4.581787
1072.137, 5.714600
1072.619, 6.201416
1073.101, 6.085449
1073.583, 5.333008
1074.065, 4.074951
1074.548, 2.351807
1075.030, 8.7158002E-02
1075.512, 1.746826
1075.994, 2.702881
1076.476, 3.391846
1076.958, 3.902588
1077.440, 4.397705
1077.922, 6.087402
1078.405, 8.497559
1078.887, 9.081055
1079.369, 5.233154
1079.851, 2.231445
1080.333, 3.693115
1080.815, 7.201416
1081.297, 10.11182
1081.779, 12.40869
1082.261, 14.16870
1082.744, 15.38306
1083.226, 16.20190
1083.708, 16.23633
1084.190, 16.30469
1084.672, 17.26123
1085.154, 18.98438
1085.636, 21.01538
1086.118, 22.95898
1086.601, 26.19238
1087.083, 31.70581
1087.565, 36.56396
1088.047, 35.75708
1088.529, 31.88330
1089.011, 30.58960
1089.493, 32.49731
1089.975, 34.30420
1090.458, 34.08765
1090.940, 34.24170
1091.422, 36.09668
1091.904, 38.67432
1092.386, 38.41479
1092.868, 35.84497
1093.350, 34.46973
1093.832, 35.63989
1094.314, 37.10425
1094.797, 36.75879
1095.279, 36.43164
1095.761, 38.43530
1096.243, 43.12305
1096.725, 44.10010
1097.207, 41.02930
1097.689, 38.33252
1098.171, 38.54736
1098.653, 40.33130
1099.136, 43.32471
1099.618, 46.46582
1100.100, 47.60938
1100.582, 44.60571
1101.064, 42.72729
1101.546, 42.19580
1102.028, 42.50708
1102.510, 43.56836
1102.993, 44.96973
1103.475, 45.84570
1103.957, 46.21167
1104.439, 46.43408
1104.921, 46.17773
1105.403, 46.49756
1105.885, 47.82642
1106.367, 49.69263
1106.849, 51.26367
1107.332, 52.62573
1107.814, 54.06494
1108.296, 55.63696
1108.778, 57.59082
1109.260, 61.51611
1109.742, 64.54272
1110.224, 64.16406
1110.706, 61.11646
1111.188, 59.61865
1111.671, 59.74536
1112.153, 60.13525
1112.635, 60.39258
1113.117, 60.46094
1113.599, 60.09961
1114.081, 59.58154
1114.563, 59.11621
1115.045, 58.53247
1115.528, 59.07544
1116.010, 61.31836
1116.492, 62.88306
1116.974, 62.41772
1117.456, 60.31030
1117.938, 55.63159
1118.420, 50.15088
1118.902, 47.52734
1119.385, 52.11450
1119.867, 54.91309
1120.349, 55.35400
1120.831, 54.39648
1121.313, 52.12695
1121.795, 49.04395
1122.277, 46.47974
1122.759, 44.67676
1123.241, 43.64941
1123.724, 43.50098
1124.206, 43.46289
1124.688, 43.25659
1125.170, 43.07349
1125.652, 43.65234
1126.134, 44.92505
1126.616, 45.34155
1127.098, 44.48975
1127.580, 43.14453
1128.063, 41.62573
1128.545, 40.48364
1129.027, 39.98267
1129.509, 39.89697
1129.991, 40.08374
1130.473, 40.59180
1130.955, 40.80347
1131.437, 40.51953
1131.920, 40.37231
1132.402, 41.08472
1132.884, 42.20435
1133.366, 43.26880
1133.848, 44.16724
1134.330, 44.56201
1134.812, 44.15698
1135.294, 44.84570
1135.776, 47.97388
1136.259, 51.83350
1136.741, 54.21948
1137.223, 55.49219
1137.705, 56.46997
1138.187, 57.54688
1138.669, 58.40576
1139.151, 58.73340
1139.633, 59.40747
1140.115, 61.64673
1140.598, 64.31763
1141.080, 64.88770
1141.562, 63.86646
1142.044, 62.68359
1142.526, 61.10034
1143.008, 60.82300
1143.490, 62.82446
1143.972, 64.88379
1144.455, 64.44849
1144.937, 62.29785
1145.419, 60.87061
1145.901, 60.25537
1146.383, 59.98706
1146.865, 61.04395
1147.347, 60.78198
1147.829, 57.41797
1148.312, 53.37207
1148.794, 53.10620
1149.276, 55.85669
1149.758, 56.28491
1150.240, 53.72852
1150.722, 50.99927
1151.204, 49.27271
1151.686, 48.56641
1152.168, 49.25610
1152.651, 50.81616
1153.133, 52.26294
1153.615, 53.53027
1154.097, 52.40210
1154.579, 47.77930
1155.061, 43.93750
1155.543, 45.40869
1156.025, 48.28711
1156.507, 49.27075
1156.990, 48.49780
1157.472, 47.85156
1157.954, 47.33643
1158.436, 47.41455
1158.918, 49.07056
1159.400, 49.39404
1159.882, 43.41650
1160.364, 35.62476
1160.847, 31.56079
1161.329, 32.30737
1161.811, 32.51099
1162.293, 32.13159
1162.775, 31.37720
1163.257, 30.20068
1163.739, 28.86328
1164.221, 27.73657
1164.703, 26.62988
1165.186, 25.18726
1165.668, 23.03979
1166.150, 21.21240
1166.632, 19.70190
1167.114, 18.53735
1167.596, 17.92847
1168.078, 17.56616
1168.560, 17.17285
1169.042, 16.62354
1169.525, 15.59448
1170.007, 13.89087
1170.489, 11.79150
1170.971, 9.025146
1171.453, 6.660889
1171.935, 6.114990
1172.417, 6.486328
1172.899, 5.936768
1173.382, 4.599365
1173.864, 3.499756
1174.346, 3.172363
1174.828, 2.748047
1175.310, 1.882080
1175.792, 1.275879
1176.274, 2.653320
1176.756, 4.749023
1177.239, 4.040771
1177.721, 0.4665530
1178.203, 2.292725
1178.685, 2.559082
1179.167, 2.030762
1179.649, 0.9072270
1180.131, 0.4895020
1180.613, 1.756592
1181.095, 2.786621
1181.578, 3.314697
1182.060, 3.302734
1182.542, 2.890625
1183.024, 1.671875
1183.506, 0.6030270
1183.988, 0.1425780
1184.470, 0.3295900
1184.952, 1.297119
1185.434, 3.987061
1185.917, 4.907471
1186.399, 3.044678
1186.881, 1.392822
1187.363, 1.020508
1187.845, 1.737793
1188.327, 4.005615
1188.809, 6.962402
1189.291, 7.018311
1189.774, 4.746582
1190.256, 2.795410
1190.738, 1.816406
1191.220, 1.756592
1191.702, 3.385254
1192.184, 5.153809
1192.666, 6.174805
1193.148, 6.489258
1193.630, 6.023682
1194.113, 4.981934
1194.595, 4.661377
1195.077, 6.272217
1195.559, 7.484131
1196.041, 6.815186
1196.523, 5.544434
1197.005, 4.695313
1197.487, 4.224854
1197.969, 2.941406
1198.452, 1.077148
1198.934, 0.2949220
1199.416, 2.567383
1199.898, 4.725586
1200.380, 5.062744
1200.862, 4.685547
1201.344, 4.503662
1201.826, 4.515625
1202.309, 5.553711
1202.791, 7.494873
1203.273, 8.818604
1203.755, 8.081055
1204.237, 7.148438
1204.719, 7.180908
1205.201, 7.378174
1205.683, 6.552734
1206.166, 4.727539
1206.648, 3.919922
1207.130, 4.196289
1207.612, 5.187256
1208.094, 7.511963
1208.576, 9.537842
1209.058, 10.26050
1209.540, 10.17041
1210.022, 9.936768
1210.505, 9.547119
1210.987, 8.261230
1211.469, 6.060303
1211.951, 4.236572
1212.433, 3.426514
1212.915, 3.500000
1213.397, 4.916992
1213.879, 6.940430
1214.361, 8.638184
1214.844, 9.965576
1215.326, 9.638916
1215.808, 7.495850
1216.290, 5.751709
1216.772, 5.860107
1217.254, 6.929199
1217.736, 9.176758
1218.218, 11.55884
1218.701, 11.63013
1219.183, 9.684082
1219.665, 8.837158
1220.147, 9.585205
1220.629, 10.75049
1221.111, 11.90698
1221.593, 12.87866
1222.075, 13.64941
1222.557, 14.14478
1223.040, 14.08960
1223.522, 13.54980
1224.004, 12.74927
1224.486, 11.65259
1224.968, 11.51611
1225.450, 15.07153
1225.932, 17.52490
1226.414, 15.82642
1226.896, 11.68628
1227.379, 10.57983
1227.861, 11.86548
1228.343, 11.74561
1228.825, 9.111816
1229.307, 6.831055
1229.789, 6.837158
1230.271, 7.297119
1230.753, 7.114746
1231.236, 6.662598
1231.718, 7.427734
1232.200, 9.106689
1232.682, 10.57251
1233.164, 11.65479
1233.646, 11.85791
1234.128, 10.38452
1234.610, 8.619385
1235.093, 6.998291
1235.575, 5.592529
1236.057, 5.025391
1236.539, 5.148438
1237.021, 4.933594
1237.503, 3.946777
1237.985, 3.351807
1238.467, 3.939941
1238.949, 4.454102
1239.432, 4.198242
1239.914, 3.536377
1240.396, 3.829834
1240.878, 4.628662
1241.360, 4.561035
1241.842, 2.601318
1242.324, 1.856201
1242.806, 4.146484
1243.288, 5.964600
1243.771, 5.344971
1244.253, 3.182617
1244.735, 1.724121
1245.217, 1.158691
1245.699, 1.731201
1246.181, 4.009033
1246.663, 6.468262
1247.145, 9.327393
1247.628, 11.32324
1248.110, 11.69336
1248.592, 10.95410
1249.074, 9.579834
1249.556, 7.917725
1250.038, 6.505859
1250.520, 5.525391
1251.002, 5.503662
1251.484, 6.538086
1251.967, 8.139160
1252.449, 10.69922
1252.931, 12.77319
1253.413, 11.20093
1253.895, 7.829590
1254.377, 6.110840
1254.859, 7.257324
1255.341, 9.026123
1255.823, 11.67212
1256.306, 13.47510
1256.788, 12.81348
1257.270, 11.50903
1257.752, 12.16064
1258.234, 13.48486
1258.716, 13.18604
1259.198, 10.39648
1259.680, 9.638428
1260.163, 11.09399
1260.645, 12.71460
1261.127, 14.26196
1261.609, 14.50635
1262.091, 10.75610
1262.573, 5.846191
1263.055, 3.872803
1263.537, 5.447510
1264.020, 5.177734
1264.502, 3.089355
1264.984, 3.247070
1265.466, 11.04810
1265.948, 17.92944
1266.430, 17.06104
1266.912, 12.89355
1267.394, 10.44580
1267.876, 9.715332
1268.359, 8.751221
1268.841, 7.624268
1269.323, 6.640381
1269.805, 6.099854
1270.287, 5.584961
1270.769, 4.281006
1271.251, 3.513916
1271.733, 4.906494
1272.215, 8.089111
1272.698, 8.560547
1273.180, 6.653564
1273.662, 4.213379
1274.144, 1.024902
1274.626, 1.074219
1275.108, 1.794189
1275.590, 1.371826
1276.072, 0.8483890
1276.555, 3.942383
1277.037, 4.062744
1277.519, 2.096191
1278.001, 0.6875000
1278.483, 1.132813
1278.965, 1.789307
1279.447, 2.699219
1279.929, 3.320557
1280.411, 3.171387
1280.894, 2.469238
1281.376, 1.044678
1281.858, 0.5070800
1282.340, 0.8283690
1282.822, 1.410400
1283.304, 2.805908
1283.786, 3.292725
1284.268, 3.447021
1284.750, 3.676514
1285.233, 3.829834
1285.715, 3.032471
1286.197, 2.276367
1286.679, 3.722900
1287.161, 8.448730
1287.643, 10.26147
1288.125, 8.450195
1288.607, 7.068359
1289.090, 8.961426
1289.572, 10.70801
1290.054, 9.833496
1290.536, 8.055664
1291.018, 7.488525
1291.500, 7.949951
1291.982, 7.732910
1292.464, 7.298828
1292.947, 6.195801
1293.429, 3.464600
1293.911, 1.258057
1294.393, 0.9082030
1294.875, 1.428223
1295.357, 2.439941
1295.839, 3.642578
1296.321, 3.479004
1296.803, 2.357422
1297.286, 1.312256
1297.768, 0.7187500
1298.250, 0.3466800
1298.732, 4.8827998E-02
1299.214, 3.5645001E-02
1299.696, 0.7673340
1300.178, 0.5246580
1300.660, 0.0000000E+00
##END=



