##NAMES=Dickinsonite-(KMnNa)
##RRUFFID=R160070
##IDEAL CHEMISTRY=K(NaMn^2+^)CaNa_3_AlMn^2+^_13_(PO_4_)_12_(OH)_2_
##LOCALITY=Smith mine, Newport, New Hampshire, USA
##OWNER=UAMM
##SOURCE=Rock Currier
##DESCRIPTION=Pale yellowish green granular crystals, associated with muscovite and albite.
##STATUS=The identification of this mineral has been confirmed only by single crystal X-ray diffraction.
##URL=rruff.info/R160070
8.813672e+001, 7.173881e+002
8.861884e+001, 7.261352e+002
8.910095e+001, 7.350331e+002
8.958307e+001, 7.464841e+002
9.006519e+001, 7.605104e+002
9.054730e+001, 7.758011e+002
9.102942e+001, 7.944902e+002
9.151154e+001, 8.112074e+002
9.199365e+001, 8.182813e+002
9.247577e+001, 8.174244e+002
9.295789e+001, 8.165038e+002
9.344000e+001, 8.220248e+002
9.392212e+001, 8.312084e+002
9.440424e+001, 8.380204e+002
9.488635e+001, 8.419510e+002
9.536847e+001, 8.444713e+002
9.585059e+001, 8.478757e+002
9.633270e+001, 8.520571e+002
9.681482e+001, 8.572880e+002
9.729694e+001, 8.637167e+002
9.777905e+001, 8.713336e+002
9.826117e+001, 8.802507e+002
9.874329e+001, 8.911091e+002
9.922540e+001, 9.033679e+002
9.970752e+001, 9.132468e+002
1.001896e+002, 9.199919e+002
1.006718e+002, 9.256332e+002
1.011539e+002, 9.326963e+002
1.016360e+002, 9.415588e+002
1.021181e+002, 9.506233e+002
1.026002e+002, 9.591381e+002
1.030823e+002, 9.668184e+002
1.035645e+002, 9.757272e+002
1.040466e+002, 9.860009e+002
1.045287e+002, 9.974822e+002
1.050108e+002, 1.010324e+003
1.054929e+002, 1.025464e+003
1.059750e+002, 1.040630e+003
1.064572e+002, 1.055261e+003
1.069393e+002, 1.071816e+003
1.074214e+002, 1.083638e+003
1.079035e+002, 1.088956e+003
1.083856e+002, 1.089506e+003
1.088677e+002, 1.091007e+003
1.093499e+002, 1.093014e+003
1.098320e+002, 1.096398e+003
1.103141e+002, 1.101526e+003
1.107962e+002, 1.109746e+003
1.112783e+002, 1.118319e+003
1.117604e+002, 1.127255e+003
1.122426e+002, 1.136578e+003
1.127247e+002, 1.145780e+003
1.132068e+002, 1.153902e+003
1.136889e+002, 1.162378e+003
1.141710e+002, 1.172113e+003
1.146531e+002, 1.185886e+003
1.151353e+002, 1.198442e+003
1.156174e+002, 1.207753e+003
1.160995e+002, 1.213745e+003
1.165816e+002, 1.220093e+003
1.170637e+002, 1.229445e+003
1.175458e+002, 1.239383e+003
1.180280e+002, 1.247399e+003
1.185101e+002, 1.249893e+003
1.189922e+002, 1.251923e+003
1.194743e+002, 1.256421e+003
1.199564e+002, 1.263717e+003
1.204385e+002, 1.272164e+003
1.209207e+002, 1.280163e+003
1.214028e+002, 1.288625e+003
1.218849e+002, 1.299121e+003
1.223670e+002, 1.316416e+003
1.228491e+002, 1.334482e+003
1.233312e+002, 1.346248e+003
1.238134e+002, 1.349921e+003
1.242955e+002, 1.351280e+003
1.247776e+002, 1.354849e+003
1.252597e+002, 1.360399e+003
1.257418e+002, 1.367124e+003
1.262239e+002, 1.375172e+003
1.267061e+002, 1.384080e+003
1.271882e+002, 1.392475e+003
1.276703e+002, 1.399820e+003
1.281524e+002, 1.407491e+003
1.286345e+002, 1.417997e+003
1.291166e+002, 1.431100e+003
1.295988e+002, 1.444289e+003
1.300809e+002, 1.456081e+003
1.305630e+002, 1.466472e+003
1.310451e+002, 1.475419e+003
1.315272e+002, 1.482283e+003
1.320093e+002, 1.488001e+003
1.324915e+002, 1.494910e+003
1.329736e+002, 1.503065e+003
1.334557e+002, 1.511624e+003
1.339378e+002, 1.519728e+003
1.344199e+002, 1.527375e+003
1.349020e+002, 1.534946e+003
1.353842e+002, 1.542328e+003
1.358663e+002, 1.549552e+003
1.363484e+002, 1.557976e+003
1.368305e+002, 1.567977e+003
1.373126e+002, 1.577959e+003
1.377947e+002, 1.586147e+003
1.382769e+002, 1.592405e+003
1.387590e+002, 1.597549e+003
1.392411e+002, 1.601867e+003
1.397232e+002, 1.605403e+003
1.402053e+002, 1.606884e+003
1.406874e+002, 1.605838e+003
1.411696e+002, 1.603457e+003
1.416517e+002, 1.601216e+003
1.421338e+002, 1.598999e+003
1.426159e+002, 1.597374e+003
1.430980e+002, 1.596812e+003
1.435801e+002, 1.597814e+003
1.440623e+002, 1.597688e+003
1.445444e+002, 1.595745e+003
1.450265e+002, 1.593182e+003
1.455086e+002, 1.592100e+003
1.459907e+002, 1.593559e+003
1.464728e+002, 1.595194e+003
1.469550e+002, 1.596281e+003
1.474371e+002, 1.596599e+003
1.479192e+002, 1.596922e+003
1.484013e+002, 1.597380e+003
1.488834e+002, 1.597831e+003
1.493655e+002, 1.597957e+003
1.498477e+002, 1.597107e+003
1.503298e+002, 1.596469e+003
1.508119e+002, 1.596518e+003
1.512940e+002, 1.598148e+003
1.517761e+002, 1.599111e+003
1.522583e+002, 1.598448e+003
1.527404e+002, 1.596931e+003
1.532225e+002, 1.596779e+003
1.537046e+002, 1.600277e+003
1.541867e+002, 1.603665e+003
1.546688e+002, 1.605197e+003
1.551510e+002, 1.603182e+003
1.556331e+002, 1.601178e+003
1.561152e+002, 1.599637e+003
1.565973e+002, 1.598517e+003
1.570794e+002, 1.597676e+003
1.575615e+002, 1.597304e+003
1.580437e+002, 1.597076e+003
1.585258e+002, 1.596785e+003
1.590079e+002, 1.595766e+003
1.594900e+002, 1.595332e+003
1.599721e+002, 1.596318e+003
1.604542e+002, 1.598442e+003
1.609364e+002, 1.600042e+003
1.614185e+002, 1.600385e+003
1.619006e+002, 1.600024e+003
1.623827e+002, 1.599403e+003
1.628648e+002, 1.598361e+003
1.633469e+002, 1.597334e+003
1.638291e+002, 1.596566e+003
1.643112e+002, 1.596033e+003
1.647933e+002, 1.595422e+003
1.652754e+002, 1.594748e+003
1.657575e+002, 1.593856e+003
1.662396e+002, 1.592583e+003
1.667218e+002, 1.589944e+003
1.672039e+002, 1.587594e+003
1.676860e+002, 1.586749e+003
1.681681e+002, 1.587399e+003
1.686502e+002, 1.588419e+003
1.691323e+002, 1.589472e+003
1.696145e+002, 1.590385e+003
1.700966e+002, 1.590910e+003
1.705787e+002, 1.590749e+003
1.710608e+002, 1.590289e+003
1.715429e+002, 1.589914e+003
1.720250e+002, 1.589644e+003
1.725072e+002, 1.589196e+003
1.729893e+002, 1.587447e+003
1.734714e+002, 1.585398e+003
1.739535e+002, 1.584898e+003
1.744356e+002, 1.588920e+003
1.749177e+002, 1.593965e+003
1.753999e+002, 1.595424e+003
1.758820e+002, 1.592843e+003
1.763641e+002, 1.589565e+003
1.768462e+002, 1.588553e+003
1.773283e+002, 1.589208e+003
1.778104e+002, 1.589997e+003
1.782926e+002, 1.590261e+003
1.787747e+002, 1.590145e+003
1.792568e+002, 1.589926e+003
1.797389e+002, 1.589623e+003
1.802210e+002, 1.589034e+003
1.807031e+002, 1.587399e+003
1.811853e+002, 1.585102e+003
1.816674e+002, 1.583645e+003
1.821495e+002, 1.584864e+003
1.826316e+002, 1.587431e+003
1.831137e+002, 1.587849e+003
1.835958e+002, 1.585602e+003
1.840780e+002, 1.582678e+003
1.845601e+002, 1.581689e+003
1.850422e+002, 1.582450e+003
1.855243e+002, 1.583483e+003
1.860064e+002, 1.584442e+003
1.864885e+002, 1.585161e+003
1.869707e+002, 1.584639e+003
1.874528e+002, 1.582495e+003
1.879349e+002, 1.580092e+003
1.884170e+002, 1.579674e+003
1.888991e+002, 1.581145e+003
1.893812e+002, 1.582855e+003
1.898634e+002, 1.584139e+003
1.903455e+002, 1.584963e+003
1.908276e+002, 1.585022e+003
1.913097e+002, 1.584012e+003
1.917918e+002, 1.582778e+003
1.922739e+002, 1.582884e+003
1.927561e+002, 1.584357e+003
1.932382e+002, 1.586146e+003
1.937203e+002, 1.587639e+003
1.942024e+002, 1.588860e+003
1.946845e+002, 1.590506e+003
1.951666e+002, 1.592815e+003
1.956488e+002, 1.595238e+003
1.961309e+002, 1.596479e+003
1.966130e+002, 1.596406e+003
1.970951e+002, 1.596426e+003
1.975772e+002, 1.597634e+003
1.980593e+002, 1.600060e+003
1.985415e+002, 1.601588e+003
1.990236e+002, 1.601860e+003
1.995057e+002, 1.601437e+003
1.999878e+002, 1.601666e+003
2.004699e+002, 1.602710e+003
2.009520e+002, 1.603606e+003
2.014342e+002, 1.603703e+003
2.019163e+002, 1.602929e+003
2.023984e+002, 1.602199e+003
2.028805e+002, 1.601476e+003
2.033626e+002, 1.600906e+003
2.038447e+002, 1.600941e+003
2.043269e+002, 1.601701e+003
2.048090e+002, 1.602603e+003
2.052911e+002, 1.603570e+003
2.057732e+002, 1.604795e+003
2.062553e+002, 1.604605e+003
2.067374e+002, 1.602260e+003
2.072196e+002, 1.598859e+003
2.077017e+002, 1.597612e+003
2.081838e+002, 1.599141e+003
2.086659e+002, 1.601135e+003
2.091480e+002, 1.602367e+003
2.096301e+002, 1.602766e+003
2.101123e+002, 1.602699e+003
2.105944e+002, 1.601881e+003
2.110765e+002, 1.600771e+003
2.115586e+002, 1.600902e+003
2.120407e+002, 1.602910e+003
2.125228e+002, 1.604730e+003
2.130050e+002, 1.604888e+003
2.134871e+002, 1.602589e+003
2.139692e+002, 1.601734e+003
2.144513e+002, 1.603250e+003
2.149334e+002, 1.606055e+003
2.154155e+002, 1.606700e+003
2.158977e+002, 1.604106e+003
2.163798e+002, 1.601410e+003
2.168619e+002, 1.600510e+003
2.173440e+002, 1.602270e+003
2.178261e+002, 1.603021e+003
2.183082e+002, 1.602318e+003
2.187904e+002, 1.600561e+003
2.192725e+002, 1.598894e+003
2.197546e+002, 1.597183e+003
2.202367e+002, 1.595823e+003
2.207188e+002, 1.595114e+003
2.212009e+002, 1.595362e+003
2.216831e+002, 1.595421e+003
2.221652e+002, 1.594994e+003
2.226473e+002, 1.594467e+003
2.231294e+002, 1.595178e+003
2.236115e+002, 1.598262e+003
2.240936e+002, 1.600804e+003
2.245758e+002, 1.601190e+003
2.250579e+002, 1.598106e+003
2.255400e+002, 1.596269e+003
2.260221e+002, 1.596354e+003
2.265042e+002, 1.597602e+003
2.269863e+002, 1.597859e+003
2.274685e+002, 1.596610e+003
2.279506e+002, 1.595171e+003
2.284327e+002, 1.594066e+003
2.289148e+002, 1.593167e+003
2.293969e+002, 1.592861e+003
2.298790e+002, 1.593307e+003
2.303612e+002, 1.594271e+003
2.308433e+002, 1.595155e+003
2.313254e+002, 1.595761e+003
2.318075e+002, 1.596551e+003
2.322896e+002, 1.597821e+003
2.327717e+002, 1.600042e+003
2.332539e+002, 1.601470e+003
2.337360e+002, 1.601653e+003
2.342181e+002, 1.601148e+003
2.347002e+002, 1.601241e+003
2.351823e+002, 1.602092e+003
2.356644e+002, 1.603263e+003
2.361466e+002, 1.604742e+003
2.366287e+002, 1.607052e+003
2.371108e+002, 1.608136e+003
2.375929e+002, 1.607407e+003
2.380750e+002, 1.605680e+003
2.385571e+002, 1.604669e+003
2.390393e+002, 1.604812e+003
2.395214e+002, 1.605006e+003
2.400035e+002, 1.604898e+003
2.404856e+002, 1.604496e+003
2.409677e+002, 1.603828e+003
2.414498e+002, 1.602814e+003
2.419320e+002, 1.601633e+003
2.424141e+002, 1.600579e+003
2.428962e+002, 1.599772e+003
2.433783e+002, 1.598960e+003
2.438604e+002, 1.597914e+003
2.443425e+002, 1.596283e+003
2.448247e+002, 1.595900e+003
2.453068e+002, 1.597429e+003
2.457889e+002, 1.599808e+003
2.462710e+002, 1.601368e+003
2.467531e+002, 1.601800e+003
2.472352e+002, 1.601904e+003
2.477174e+002, 1.601699e+003
2.481995e+002, 1.600900e+003
2.486816e+002, 1.601261e+003
2.491637e+002, 1.603558e+003
2.496458e+002, 1.606400e+003
2.501279e+002, 1.607685e+003
2.506101e+002, 1.606511e+003
2.510922e+002, 1.605469e+003
2.515743e+002, 1.605429e+003
2.520564e+002, 1.606624e+003
2.525385e+002, 1.606845e+003
2.530206e+002, 1.605297e+003
2.535028e+002, 1.603504e+003
2.539849e+002, 1.603593e+003
2.544670e+002, 1.606879e+003
2.549491e+002, 1.609233e+003
2.554312e+002, 1.609359e+003
2.559133e+002, 1.607093e+003
2.563955e+002, 1.605684e+003
2.568776e+002, 1.605375e+003
2.573597e+002, 1.605651e+003
2.578418e+002, 1.605926e+003
2.583239e+002, 1.605990e+003
2.588061e+002, 1.606567e+003
2.592882e+002, 1.608095e+003
2.597703e+002, 1.610546e+003
2.602524e+002, 1.611844e+003
2.607345e+002, 1.611545e+003
2.612166e+002, 1.610738e+003
2.616988e+002, 1.610352e+003
2.621809e+002, 1.610443e+003
2.626630e+002, 1.610878e+003
2.631451e+002, 1.611899e+003
2.636272e+002, 1.613366e+003
2.641093e+002, 1.613683e+003
2.645915e+002, 1.612232e+003
2.650736e+002, 1.610762e+003
2.655557e+002, 1.611054e+003
2.660378e+002, 1.614088e+003
2.665199e+002, 1.615280e+003
2.670020e+002, 1.613241e+003
2.674842e+002, 1.608859e+003
2.679663e+002, 1.606926e+003
2.684484e+002, 1.608169e+003
2.689305e+002, 1.610155e+003
2.694126e+002, 1.611117e+003
2.698947e+002, 1.610699e+003
2.703769e+002, 1.610853e+003
2.708590e+002, 1.611902e+003
2.713411e+002, 1.613569e+003
2.718232e+002, 1.615022e+003
2.723053e+002, 1.616308e+003
2.727874e+002, 1.617215e+003
2.732696e+002, 1.617484e+003
2.737517e+002, 1.616971e+003
2.742338e+002, 1.616711e+003
2.747159e+002, 1.616778e+003
2.751980e+002, 1.617125e+003
2.756801e+002, 1.617735e+003
2.761623e+002, 1.618711e+003
2.766444e+002, 1.619561e+003
2.771265e+002, 1.619958e+003
2.776086e+002, 1.619872e+003
2.780907e+002, 1.620108e+003
2.785728e+002, 1.620915e+003
2.790550e+002, 1.621705e+003
2.795371e+002, 1.621138e+003
2.800192e+002, 1.619005e+003
2.805013e+002, 1.617209e+003
2.809834e+002, 1.616568e+003
2.814655e+002, 1.617059e+003
2.819477e+002, 1.618201e+003
2.824298e+002, 1.620138e+003
2.829119e+002, 1.622263e+003
2.833940e+002, 1.623681e+003
2.838761e+002, 1.624359e+003
2.843582e+002, 1.624904e+003
2.848404e+002, 1.625337e+003
2.853225e+002, 1.625746e+003
2.858046e+002, 1.627100e+003
2.862867e+002, 1.629639e+003
2.867688e+002, 1.631875e+003
2.872509e+002, 1.631838e+003
2.877331e+002, 1.629681e+003
2.882152e+002, 1.627432e+003
2.886973e+002, 1.625527e+003
2.891794e+002, 1.624068e+003
2.896615e+002, 1.623663e+003
2.901436e+002, 1.624418e+003
2.906258e+002, 1.625209e+003
2.911079e+002, 1.624627e+003
2.915900e+002, 1.623031e+003
2.920721e+002, 1.622429e+003
2.925542e+002, 1.623937e+003
2.930363e+002, 1.626219e+003
2.935185e+002, 1.626188e+003
2.940006e+002, 1.623879e+003
2.944827e+002, 1.621380e+003
2.949648e+002, 1.619842e+003
2.954469e+002, 1.619302e+003
2.959290e+002, 1.620087e+003
2.964112e+002, 1.622664e+003
2.968933e+002, 1.625846e+003
2.973754e+002, 1.627742e+003
2.978575e+002, 1.628487e+003
2.983396e+002, 1.629040e+003
2.988217e+002, 1.630261e+003
2.993039e+002, 1.631669e+003
2.997860e+002, 1.632057e+003
3.002681e+002, 1.630937e+003
3.007502e+002, 1.629798e+003
3.012323e+002, 1.630711e+003
3.017144e+002, 1.633179e+003
3.021966e+002, 1.635433e+003
3.026787e+002, 1.636629e+003
3.031608e+002, 1.637042e+003
3.036429e+002, 1.636983e+003
3.041250e+002, 1.636445e+003
3.046071e+002, 1.635664e+003
3.050893e+002, 1.634575e+003
3.055714e+002, 1.633398e+003
3.060535e+002, 1.632631e+003
3.065356e+002, 1.632793e+003
3.070177e+002, 1.633279e+003
3.074998e+002, 1.633547e+003
3.079820e+002, 1.633587e+003
3.084641e+002, 1.633515e+003
3.089462e+002, 1.633269e+003
3.094283e+002, 1.633016e+003
3.099104e+002, 1.632991e+003
3.103925e+002, 1.633604e+003
3.108747e+002, 1.634247e+003
3.113568e+002, 1.634495e+003
3.118389e+002, 1.634395e+003
3.123210e+002, 1.634221e+003
3.128031e+002, 1.634041e+003
3.132852e+002, 1.633908e+003
3.137674e+002, 1.633890e+003
3.142495e+002, 1.634194e+003
3.147316e+002, 1.634371e+003
3.152137e+002, 1.634043e+003
3.156958e+002, 1.633359e+003
3.161779e+002, 1.632828e+003
3.166601e+002, 1.632644e+003
3.171422e+002, 1.632667e+003
3.176243e+002, 1.632697e+003
3.181064e+002, 1.632280e+003
3.185885e+002, 1.632708e+003
3.190706e+002, 1.635359e+003
3.195528e+002, 1.639081e+003
3.200349e+002, 1.641651e+003
3.205170e+002, 1.641558e+003
3.209991e+002, 1.640892e+003
3.214812e+002, 1.640453e+003
3.219633e+002, 1.640304e+003
3.224455e+002, 1.640450e+003
3.229276e+002, 1.641452e+003
3.234097e+002, 1.642578e+003
3.238918e+002, 1.642926e+003
3.243739e+002, 1.640811e+003
3.248560e+002, 1.639451e+003
3.253382e+002, 1.640122e+003
3.258203e+002, 1.643173e+003
3.263024e+002, 1.645312e+003
3.267845e+002, 1.645725e+003
3.272666e+002, 1.645498e+003
3.277487e+002, 1.645485e+003
3.282309e+002, 1.645695e+003
3.287130e+002, 1.646150e+003
3.291951e+002, 1.647152e+003
3.296772e+002, 1.648582e+003
3.301593e+002, 1.649199e+003
3.306414e+002, 1.647922e+003
3.311236e+002, 1.646834e+003
3.316057e+002, 1.647160e+003
3.320878e+002, 1.650222e+003
3.325699e+002, 1.652249e+003
3.330520e+002, 1.652754e+003
3.335341e+002, 1.652176e+003
3.340163e+002, 1.651642e+003
3.344984e+002, 1.650868e+003
3.349805e+002, 1.650602e+003
3.354626e+002, 1.651367e+003
3.359447e+002, 1.653686e+003
3.364268e+002, 1.654966e+003
3.369090e+002, 1.654850e+003
3.373911e+002, 1.654105e+003
3.378732e+002, 1.653974e+003
3.383553e+002, 1.654636e+003
3.388374e+002, 1.655363e+003
3.393195e+002, 1.656019e+003
3.398017e+002, 1.656605e+003
3.402838e+002, 1.656867e+003
3.407659e+002, 1.656768e+003
3.412480e+002, 1.656489e+003
3.417301e+002, 1.656135e+003
3.422122e+002, 1.655693e+003
3.426944e+002, 1.655416e+003
3.431765e+002, 1.655317e+003
3.436586e+002, 1.655429e+003
3.441407e+002, 1.655860e+003
3.446228e+002, 1.656593e+003
3.451049e+002, 1.657698e+003
3.455871e+002, 1.659887e+003
3.460692e+002, 1.662818e+003
3.465513e+002, 1.663646e+003
3.470334e+002, 1.661397e+003
3.475155e+002, 1.658168e+003
3.479977e+002, 1.657744e+003
3.484798e+002, 1.659824e+003
3.489619e+002, 1.661953e+003
3.494440e+002, 1.661822e+003
3.499261e+002, 1.660816e+003
3.504082e+002, 1.662722e+003
3.508904e+002, 1.668189e+003
3.513725e+002, 1.673783e+003
3.518546e+002, 1.675773e+003
3.523367e+002, 1.675043e+003
3.528188e+002, 1.673955e+003
3.533009e+002, 1.673966e+003
3.537831e+002, 1.673930e+003
3.542652e+002, 1.671705e+003
3.547473e+002, 1.667439e+003
3.552294e+002, 1.664307e+003
3.557115e+002, 1.666189e+003
3.561936e+002, 1.670118e+003
3.566758e+002, 1.672109e+003
3.571579e+002, 1.669799e+003
3.576400e+002, 1.666787e+003
3.581221e+002, 1.665493e+003
3.586042e+002, 1.665636e+003
3.590863e+002, 1.666139e+003
3.595685e+002, 1.666501e+003
3.600506e+002, 1.667015e+003
3.605327e+002, 1.667936e+003
3.610148e+002, 1.669424e+003
3.614969e+002, 1.671032e+003
3.619790e+002, 1.672956e+003
3.624612e+002, 1.674820e+003
3.629433e+002, 1.676019e+003
3.634254e+002, 1.675259e+003
3.639075e+002, 1.674752e+003
3.643896e+002, 1.675721e+003
3.648717e+002, 1.678520e+003
3.653539e+002, 1.680494e+003
3.658360e+002, 1.680202e+003
3.663181e+002, 1.679255e+003
3.668002e+002, 1.679125e+003
3.672823e+002, 1.680770e+003
3.677644e+002, 1.682331e+003
3.682466e+002, 1.683202e+003
3.687287e+002, 1.683515e+003
3.692108e+002, 1.684826e+003
3.696929e+002, 1.688730e+003
3.701750e+002, 1.692260e+003
3.706571e+002, 1.693831e+003
3.711393e+002, 1.692099e+003
3.716214e+002, 1.690761e+003
3.721035e+002, 1.689665e+003
3.725856e+002, 1.689049e+003
3.730677e+002, 1.689571e+003
3.735498e+002, 1.691829e+003
3.740320e+002, 1.694110e+003
3.745141e+002, 1.695643e+003
3.749962e+002, 1.696250e+003
3.754783e+002, 1.697821e+003
3.759604e+002, 1.700766e+003
3.764425e+002, 1.703981e+003
3.769247e+002, 1.705966e+003
3.774068e+002, 1.706455e+003
3.778889e+002, 1.707301e+003
3.783710e+002, 1.709168e+003
3.788531e+002, 1.711682e+003
3.793352e+002, 1.713166e+003
3.798174e+002, 1.713469e+003
3.802995e+002, 1.713656e+003
3.807816e+002, 1.714467e+003
3.812637e+002, 1.715883e+003
3.817458e+002, 1.717637e+003
3.822279e+002, 1.719678e+003
3.827101e+002, 1.722138e+003
3.831922e+002, 1.725661e+003
3.836743e+002, 1.730086e+003
3.841564e+002, 1.734034e+003
3.846385e+002, 1.736375e+003
3.851206e+002, 1.737838e+003
3.856028e+002, 1.740005e+003
3.860849e+002, 1.743001e+003
3.865670e+002, 1.746051e+003
3.870491e+002, 1.748142e+003
3.875312e+002, 1.749802e+003
3.880133e+002, 1.752120e+003
3.884955e+002, 1.756042e+003
3.889776e+002, 1.760319e+003
3.894597e+002, 1.763672e+003
3.899418e+002, 1.766234e+003
3.904239e+002, 1.768830e+003
3.909060e+002, 1.771568e+003
3.913882e+002, 1.774761e+003
3.918703e+002, 1.778764e+003
3.923524e+002, 1.784008e+003
3.928345e+002, 1.789394e+003
3.933166e+002, 1.794417e+003
3.937987e+002, 1.799231e+003
3.942809e+002, 1.804059e+003
3.947630e+002, 1.809125e+003
3.952451e+002, 1.814117e+003
3.957272e+002, 1.818865e+003
3.962093e+002, 1.823248e+003
3.966914e+002, 1.827873e+003
3.971736e+002, 1.833107e+003
3.976557e+002, 1.838492e+003
3.981378e+002, 1.843625e+003
3.986199e+002, 1.848273e+003
3.991020e+002, 1.852770e+003
3.995841e+002, 1.856973e+003
4.000663e+002, 1.860960e+003
4.005484e+002, 1.865353e+003
4.010305e+002, 1.870483e+003
4.015126e+002, 1.875666e+003
4.019947e+002, 1.880728e+003
4.024768e+002, 1.886171e+003
4.029590e+002, 1.890166e+003
4.034411e+002, 1.892208e+003
4.039232e+002, 1.893233e+003
4.044053e+002, 1.894938e+003
4.048874e+002, 1.897656e+003
4.053695e+002, 1.900189e+003
4.058517e+002, 1.902242e+003
4.063338e+002, 1.903820e+003
4.068159e+002, 1.904920e+003
4.072980e+002, 1.905447e+003
4.077801e+002, 1.905871e+003
4.082622e+002, 1.906640e+003
4.087444e+002, 1.907733e+003
4.092265e+002, 1.908947e+003
4.097086e+002, 1.910532e+003
4.101907e+002, 1.911789e+003
4.106728e+002, 1.910858e+003
4.111549e+002, 1.907904e+003
4.116371e+002, 1.905027e+003
4.121192e+002, 1.903661e+003
4.126013e+002, 1.903264e+003
4.130834e+002, 1.902673e+003
4.135655e+002, 1.901753e+003
4.140476e+002, 1.900914e+003
4.145298e+002, 1.900889e+003
4.150119e+002, 1.901208e+003
4.154940e+002, 1.900928e+003
4.159761e+002, 1.898944e+003
4.164582e+002, 1.896758e+003
4.169403e+002, 1.895835e+003
4.174225e+002, 1.896001e+003
4.179046e+002, 1.896177e+003
4.183867e+002, 1.896273e+003
4.188688e+002, 1.895851e+003
4.193509e+002, 1.894375e+003
4.198330e+002, 1.891066e+003
4.203152e+002, 1.888197e+003
4.207973e+002, 1.886961e+003
4.212794e+002, 1.886717e+003
4.217615e+002, 1.886274e+003
4.222436e+002, 1.885233e+003
4.227257e+002, 1.884073e+003
4.232079e+002, 1.882887e+003
4.236900e+002, 1.881673e+003
4.241721e+002, 1.880658e+003
4.246542e+002, 1.879988e+003
4.251363e+002, 1.879435e+003
4.256184e+002, 1.878807e+003
4.261006e+002, 1.877892e+003
4.265827e+002, 1.877200e+003
4.270648e+002, 1.876777e+003
4.275469e+002, 1.876563e+003
4.280290e+002, 1.876447e+003
4.285111e+002, 1.876555e+003
4.289933e+002, 1.876423e+003
4.294754e+002, 1.875604e+003
4.299575e+002, 1.873841e+003
4.304396e+002, 1.873276e+003
4.309217e+002, 1.874279e+003
4.314038e+002, 1.875625e+003
4.318860e+002, 1.875641e+003
4.323681e+002, 1.874281e+003
4.328502e+002, 1.873051e+003
4.333323e+002, 1.872527e+003
4.338144e+002, 1.872324e+003
4.342965e+002, 1.871197e+003
4.347787e+002, 1.869187e+003
4.352608e+002, 1.867294e+003
4.357429e+002, 1.866150e+003
4.362250e+002, 1.865701e+003
4.367071e+002, 1.865953e+003
4.371892e+002, 1.867078e+003
4.376714e+002, 1.868254e+003
4.381535e+002, 1.868450e+003
4.386356e+002, 1.868022e+003
4.391177e+002, 1.867736e+003
4.395998e+002, 1.867789e+003
4.400819e+002, 1.868206e+003
4.405641e+002, 1.869152e+003
4.410462e+002, 1.870553e+003
4.415283e+002, 1.871871e+003
4.420104e+002, 1.872422e+003
4.424925e+002, 1.872916e+003
4.429746e+002, 1.873971e+003
4.434568e+002, 1.876026e+003
4.439389e+002, 1.878034e+003
4.444210e+002, 1.879685e+003
4.449031e+002, 1.881056e+003
4.453852e+002, 1.882313e+003
4.458673e+002, 1.883422e+003
4.463495e+002, 1.884485e+003
4.468316e+002, 1.885492e+003
4.473137e+002, 1.886420e+003
4.477958e+002, 1.887654e+003
4.482779e+002, 1.889711e+003
4.487600e+002, 1.891678e+003
4.492422e+002, 1.892737e+003
4.497243e+002, 1.891918e+003
4.502064e+002, 1.892392e+003
4.506885e+002, 1.894982e+003
4.511706e+002, 1.898771e+003
4.516527e+002, 1.901191e+003
4.521349e+002, 1.902048e+003
4.526170e+002, 1.902221e+003
4.530991e+002, 1.901679e+003
4.535812e+002, 1.900474e+003
4.540633e+002, 1.900659e+003
4.545454e+002, 1.902391e+003
4.550276e+002, 1.904627e+003
4.555097e+002, 1.906267e+003
4.559918e+002, 1.907406e+003
4.564739e+002, 1.908568e+003
4.569560e+002, 1.909953e+003
4.574381e+002, 1.911314e+003
4.579203e+002, 1.912560e+003
4.584024e+002, 1.913560e+003
4.588845e+002, 1.913708e+003
4.593666e+002, 1.911694e+003
4.598488e+002, 1.909065e+003
4.603309e+002, 1.907943e+003
4.608130e+002, 1.908627e+003
4.612951e+002, 1.909362e+003
4.617772e+002, 1.909028e+003
4.622593e+002, 1.908031e+003
4.627415e+002, 1.906850e+003
4.632236e+002, 1.905164e+003
4.637057e+002, 1.903826e+003
4.641878e+002, 1.903467e+003
4.646699e+002, 1.903816e+003
4.651520e+002, 1.903886e+003
4.656342e+002, 1.902751e+003
4.661163e+002, 1.901864e+003
4.665984e+002, 1.901993e+003
4.670805e+002, 1.903747e+003
4.675626e+002, 1.904955e+003
4.680447e+002, 1.905526e+003
4.685269e+002, 1.905575e+003
4.690090e+002, 1.905111e+003
4.694911e+002, 1.903540e+003
4.699732e+002, 1.902604e+003
4.704553e+002, 1.902681e+003
4.709374e+002, 1.903554e+003
4.714196e+002, 1.904432e+003
4.719017e+002, 1.905414e+003
4.723838e+002, 1.906001e+003
4.728659e+002, 1.905556e+003
4.733480e+002, 1.904057e+003
4.738301e+002, 1.903926e+003
4.743123e+002, 1.905518e+003
4.747944e+002, 1.907149e+003
4.752765e+002, 1.906545e+003
4.757586e+002, 1.904065e+003
4.762407e+002, 1.901586e+003
4.767228e+002, 1.899626e+003
4.772050e+002, 1.898016e+003
4.776871e+002, 1.896568e+003
4.781692e+002, 1.895286e+003
4.786513e+002, 1.894161e+003
4.791334e+002, 1.893520e+003
4.796155e+002, 1.892904e+003
4.800977e+002, 1.891612e+003
4.805798e+002, 1.889446e+003
4.810619e+002, 1.887725e+003
4.815440e+002, 1.887717e+003
4.820261e+002, 1.888466e+003
4.825082e+002, 1.888852e+003
4.829904e+002, 1.888838e+003
4.834725e+002, 1.888120e+003
4.839546e+002, 1.886579e+003
4.844367e+002, 1.884231e+003
4.849188e+002, 1.881223e+003
4.854009e+002, 1.876787e+003
4.858831e+002, 1.872326e+003
4.863652e+002, 1.868137e+003
4.868473e+002, 1.863947e+003
4.873294e+002, 1.861117e+003
4.878115e+002, 1.860330e+003
4.882936e+002, 1.860204e+003
4.887758e+002, 1.859318e+003
4.892579e+002, 1.857497e+003
4.897400e+002, 1.855378e+003
4.902221e+002, 1.853147e+003
4.907042e+002, 1.850614e+003
4.911863e+002, 1.846966e+003
4.916685e+002, 1.842040e+003
4.921506e+002, 1.837581e+003
4.926327e+002, 1.834806e+003
4.931148e+002, 1.833396e+003
4.935969e+002, 1.832174e+003
4.940790e+002, 1.831170e+003
4.945612e+002, 1.829932e+003
4.950433e+002, 1.827729e+003
4.955254e+002, 1.825005e+003
4.960075e+002, 1.822690e+003
4.964896e+002, 1.821327e+003
4.969717e+002, 1.820085e+003
4.974539e+002, 1.817609e+003
4.979360e+002, 1.814588e+003
4.984181e+002, 1.812903e+003
4.989002e+002, 1.814977e+003
4.993823e+002, 1.817435e+003
4.998644e+002, 1.817918e+003
5.003466e+002, 1.816082e+003
5.008287e+002, 1.814582e+003
5.013108e+002, 1.814527e+003
5.017929e+002, 1.814890e+003
5.022750e+002, 1.814886e+003
5.027571e+002, 1.814503e+003
5.032393e+002, 1.813547e+003
5.037214e+002, 1.811245e+003
5.042035e+002, 1.808520e+003
5.046856e+002, 1.807451e+003
5.051677e+002, 1.809118e+003
5.056498e+002, 1.810474e+003
5.061320e+002, 1.810521e+003
5.066141e+002, 1.809330e+003
5.070962e+002, 1.808390e+003
5.075783e+002, 1.807675e+003
5.080604e+002, 1.807401e+003
5.085425e+002, 1.808205e+003
5.090247e+002, 1.809950e+003
5.095068e+002, 1.810476e+003
5.099889e+002, 1.809346e+003
5.104710e+002, 1.807589e+003
5.109531e+002, 1.806619e+003
5.114352e+002, 1.806256e+003
5.119174e+002, 1.805816e+003
5.123995e+002, 1.804854e+003
5.128816e+002, 1.803758e+003
5.133637e+002, 1.802717e+003
5.138458e+002, 1.801801e+003
5.143279e+002, 1.801505e+003
5.148101e+002, 1.802847e+003
5.152922e+002, 1.804431e+003
5.157743e+002, 1.805059e+003
5.162564e+002, 1.804305e+003
5.167385e+002, 1.803354e+003
5.172206e+002, 1.802094e+003
5.177028e+002, 1.801031e+003
5.181849e+002, 1.800756e+003
5.186670e+002, 1.802391e+003
5.191491e+002, 1.803637e+003
5.196312e+002, 1.804168e+003
5.201133e+002, 1.804082e+003
5.205955e+002, 1.803677e+003
5.210776e+002, 1.802653e+003
5.215597e+002, 1.801908e+003
5.220418e+002, 1.801753e+003
5.225239e+002, 1.802193e+003
5.230060e+002, 1.803709e+003
5.234882e+002, 1.806573e+003
5.239703e+002, 1.809866e+003
5.244524e+002, 1.812693e+003
5.249345e+002, 1.815068e+003
5.254166e+002, 1.817284e+003
5.258987e+002, 1.819371e+003
5.263809e+002, 1.821381e+003
5.268630e+002, 1.823352e+003
5.273451e+002, 1.825312e+003
5.278272e+002, 1.827379e+003
5.283093e+002, 1.829563e+003
5.287914e+002, 1.831886e+003
5.292736e+002, 1.834607e+003
5.297557e+002, 1.837661e+003
5.302378e+002, 1.840158e+003
5.307199e+002, 1.840274e+003
5.312020e+002, 1.840391e+003
5.316841e+002, 1.842717e+003
5.321663e+002, 1.848974e+003
5.326484e+002, 1.854524e+003
5.331305e+002, 1.857706e+003
5.336126e+002, 1.859700e+003
5.340947e+002, 1.862269e+003
5.345768e+002, 1.866326e+003
5.350590e+002, 1.870086e+003
5.355411e+002, 1.873661e+003
5.360232e+002, 1.876870e+003
5.365053e+002, 1.877895e+003
5.369874e+002, 1.875352e+003
5.374695e+002, 1.873778e+003
5.379517e+002, 1.876039e+003
5.384338e+002, 1.882415e+003
5.389159e+002, 1.887347e+003
5.393980e+002, 1.890669e+003
5.398801e+002, 1.893167e+003
5.403622e+002, 1.895049e+003
5.408444e+002, 1.896617e+003
5.413265e+002, 1.899516e+003
5.418086e+002, 1.904450e+003
5.422907e+002, 1.910189e+003
5.427728e+002, 1.915217e+003
5.432549e+002, 1.919772e+003
5.437371e+002, 1.924424e+003
5.442192e+002, 1.929792e+003
5.447013e+002, 1.935114e+003
5.451834e+002, 1.939644e+003
5.456655e+002, 1.943477e+003
5.461476e+002, 1.947672e+003
5.466298e+002, 1.953289e+003
5.471119e+002, 1.959038e+003
5.475940e+002, 1.964094e+003
5.480761e+002, 1.968300e+003
5.485582e+002, 1.971973e+003
5.490403e+002, 1.975025e+003
5.495225e+002, 1.977686e+003
5.500046e+002, 1.980115e+003
5.504867e+002, 1.982017e+003
5.509688e+002, 1.984352e+003
5.514509e+002, 1.987634e+003
5.519330e+002, 1.991356e+003
5.524152e+002, 1.993459e+003
5.528973e+002, 1.993708e+003
5.533794e+002, 1.993701e+003
5.538615e+002, 1.994328e+003
5.543436e+002, 1.995402e+003
5.548257e+002, 1.995973e+003
5.553079e+002, 1.996013e+003
5.557900e+002, 1.995752e+003
5.562721e+002, 1.995292e+003
5.567542e+002, 1.994703e+003
5.572363e+002, 1.994160e+003
5.577184e+002, 1.993792e+003
5.582006e+002, 1.993256e+003
5.586827e+002, 1.992588e+003
5.591648e+002, 1.991544e+003
5.596469e+002, 1.989689e+003
5.601290e+002, 1.985959e+003
5.606111e+002, 1.982321e+003
5.610933e+002, 1.979380e+003
5.615754e+002, 1.977160e+003
5.620575e+002, 1.975765e+003
5.625396e+002, 1.976244e+003
5.630217e+002, 1.976602e+003
5.635038e+002, 1.976031e+003
5.639860e+002, 1.974309e+003
5.644681e+002, 1.972538e+003
5.649502e+002, 1.970439e+003
5.654323e+002, 1.968706e+003
5.659144e+002, 1.968228e+003
5.663965e+002, 1.969125e+003
5.668787e+002, 1.969733e+003
5.673608e+002, 1.969667e+003
5.678429e+002, 1.969545e+003
5.683250e+002, 1.970578e+003
5.688071e+002, 1.972597e+003
5.692892e+002, 1.974638e+003
5.697714e+002, 1.976153e+003
5.702535e+002, 1.977526e+003
5.707356e+002, 1.978936e+003
5.712177e+002, 1.980523e+003
5.716998e+002, 1.982990e+003
5.721819e+002, 1.988464e+003
5.726641e+002, 1.993864e+003
5.731462e+002, 1.996470e+003
5.736283e+002, 1.995453e+003
5.741104e+002, 1.994484e+003
5.745925e+002, 1.993857e+003
5.750746e+002, 1.994167e+003
5.755568e+002, 1.996002e+003
5.760389e+002, 2.001156e+003
5.765210e+002, 2.005296e+003
5.770031e+002, 2.007863e+003
5.774852e+002, 2.009521e+003
5.779673e+002, 2.011795e+003
5.784495e+002, 2.015160e+003
5.789316e+002, 2.017701e+003
5.794137e+002, 2.018447e+003
5.798958e+002, 2.018004e+003
5.803779e+002, 2.019066e+003
5.808600e+002, 2.021692e+003
5.813422e+002, 2.024810e+003
5.818243e+002, 2.028486e+003
5.823064e+002, 2.032020e+003
5.827885e+002, 2.032953e+003
5.832706e+002, 2.030902e+003
5.837527e+002, 2.029596e+003
5.842349e+002, 2.033269e+003
5.847170e+002, 2.038980e+003
5.851991e+002, 2.042991e+003
5.856812e+002, 2.043561e+003
5.861633e+002, 2.043625e+003
5.866454e+002, 2.044387e+003
5.871276e+002, 2.045467e+003
5.876097e+002, 2.046176e+003
5.880918e+002, 2.046198e+003
5.885739e+002, 2.046014e+003
5.890560e+002, 2.045445e+003
5.895381e+002, 2.044644e+003
5.900203e+002, 2.044846e+003
5.905024e+002, 2.046615e+003
5.909845e+002, 2.048311e+003
5.914666e+002, 2.049069e+003
5.919487e+002, 2.048906e+003
5.924308e+002, 2.048858e+003
5.929130e+002, 2.048912e+003
5.933951e+002, 2.049316e+003
5.938772e+002, 2.050303e+003
5.943593e+002, 2.051852e+003
5.948414e+002, 2.053834e+003
5.953235e+002, 2.056199e+003
5.958057e+002, 2.059063e+003
5.962878e+002, 2.063457e+003
5.967699e+002, 2.068329e+003
5.972520e+002, 2.071659e+003
5.977341e+002, 2.071159e+003
5.982162e+002, 2.070371e+003
5.986984e+002, 2.071186e+003
5.991805e+002, 2.073160e+003
5.996626e+002, 2.074690e+003
6.001447e+002, 2.075034e+003
6.006268e+002, 2.075188e+003
6.011089e+002, 2.075584e+003
6.015911e+002, 2.076283e+003
6.020732e+002, 2.076446e+003
6.025553e+002, 2.076073e+003
6.030374e+002, 2.075170e+003
6.035195e+002, 2.073492e+003
6.040016e+002, 2.070932e+003
6.044838e+002, 2.069440e+003
6.049659e+002, 2.069498e+003
6.054480e+002, 2.069478e+003
6.059301e+002, 2.066827e+003
6.064122e+002, 2.062186e+003
6.068943e+002, 2.058182e+003
6.073765e+002, 2.055885e+003
6.078586e+002, 2.053915e+003
6.083407e+002, 2.050844e+003
6.088228e+002, 2.046909e+003
6.093049e+002, 2.042774e+003
6.097870e+002, 2.038943e+003
6.102692e+002, 2.034740e+003
6.107513e+002, 2.029173e+003
6.112334e+002, 2.022462e+003
6.117155e+002, 2.017211e+003
6.121976e+002, 2.015707e+003
6.126797e+002, 2.014159e+003
6.131619e+002, 2.010762e+003
6.136440e+002, 2.004978e+003
6.141261e+002, 1.999728e+003
6.146082e+002, 1.995005e+003
6.150903e+002, 1.990752e+003
6.155724e+002, 1.986762e+003
6.160546e+002, 1.983035e+003
6.165367e+002, 1.980348e+003
6.170188e+002, 1.979214e+003
6.175009e+002, 1.978054e+003
6.179830e+002, 1.973697e+003
6.184651e+002, 1.967193e+003
6.189473e+002, 1.962240e+003
6.194294e+002, 1.961025e+003
6.199115e+002, 1.960911e+003
6.203936e+002, 1.959238e+003
6.208757e+002, 1.956528e+003
6.213578e+002, 1.954342e+003
6.218400e+002, 1.953355e+003
6.223221e+002, 1.953079e+003
6.228042e+002, 1.953505e+003
6.232863e+002, 1.954633e+003
6.237684e+002, 1.955577e+003
6.242505e+002, 1.956004e+003
6.247327e+002, 1.956483e+003
6.252148e+002, 1.957245e+003
6.256969e+002, 1.958244e+003
6.261790e+002, 1.959860e+003
6.266611e+002, 1.962320e+003
6.271432e+002, 1.964913e+003
6.276254e+002, 1.966773e+003
6.281075e+002, 1.967957e+003
6.285896e+002, 1.969273e+003
6.290717e+002, 1.970682e+003
6.295538e+002, 1.972677e+003
6.300359e+002, 1.976311e+003
6.305181e+002, 1.981037e+003
6.310002e+002, 1.985581e+003
6.314823e+002, 1.989284e+003
6.319644e+002, 1.992731e+003
6.324465e+002, 1.996334e+003
6.329286e+002, 2.000024e+003
6.334108e+002, 2.003534e+003
6.338929e+002, 2.006454e+003
6.343750e+002, 2.009505e+003
6.348571e+002, 2.013261e+003
6.353392e+002, 2.017813e+003
6.358214e+002, 2.021458e+003
6.363035e+002, 2.024180e+003
6.367856e+002, 2.026113e+003
6.372677e+002, 2.027354e+003
6.377498e+002, 2.027930e+003
6.382319e+002, 2.027488e+003
6.387141e+002, 2.025778e+003
6.391962e+002, 2.024094e+003
6.396783e+002, 2.024223e+003
6.401604e+002, 2.025601e+003
6.406425e+002, 2.026057e+003
6.411246e+002, 2.025193e+003
6.416068e+002, 2.023344e+003
6.420889e+002, 2.020251e+003
6.425710e+002, 2.016506e+003
6.430531e+002, 2.013194e+003
6.435352e+002, 2.011616e+003
6.440173e+002, 2.009556e+003
6.444995e+002, 2.005678e+003
6.449816e+002, 2.000555e+003
6.454637e+002, 1.995743e+003
6.459458e+002, 1.992090e+003
6.464279e+002, 1.988141e+003
6.469100e+002, 1.983297e+003
6.473922e+002, 1.977658e+003
6.478743e+002, 1.973287e+003
6.483564e+002, 1.970461e+003
6.488385e+002, 1.967917e+003
6.493206e+002, 1.965161e+003
6.498027e+002, 1.962090e+003
6.502849e+002, 1.957839e+003
6.507670e+002, 1.952311e+003
6.512491e+002, 1.947178e+003
6.517312e+002, 1.944427e+003
6.522133e+002, 1.943000e+003
6.526954e+002, 1.941246e+003
6.531776e+002, 1.938905e+003
6.536597e+002, 1.936120e+003
6.541418e+002, 1.932188e+003
6.546239e+002, 1.928135e+003
6.551060e+002, 1.925135e+003
6.555881e+002, 1.925177e+003
6.560703e+002, 1.924214e+003
6.565524e+002, 1.920744e+003
6.570345e+002, 1.916177e+003
6.575166e+002, 1.913048e+003
6.579987e+002, 1.911785e+003
6.584808e+002, 1.910860e+003
6.589630e+002, 1.910028e+003
6.594451e+002, 1.909217e+003
6.599272e+002, 1.908125e+003
6.604093e+002, 1.906754e+003
6.608914e+002, 1.905427e+003
6.613735e+002, 1.904538e+003
6.618557e+002, 1.903745e+003
6.623378e+002, 1.902356e+003
6.628199e+002, 1.900421e+003
6.633020e+002, 1.898311e+003
6.637841e+002, 1.895567e+003
6.642662e+002, 1.893245e+003
6.647484e+002, 1.892320e+003
6.652305e+002, 1.893078e+003
6.657126e+002, 1.894125e+003
6.661947e+002, 1.895814e+003
6.666768e+002, 1.897178e+003
6.671589e+002, 1.897554e+003
6.676411e+002, 1.896662e+003
6.681232e+002, 1.895129e+003
6.686053e+002, 1.892231e+003
6.690874e+002, 1.889633e+003
6.695695e+002, 1.889990e+003
6.700516e+002, 1.893251e+003
6.705338e+002, 1.895495e+003
6.710159e+002, 1.895793e+003
6.714980e+002, 1.895109e+003
6.719801e+002, 1.894588e+003
6.724622e+002, 1.894242e+003
6.729443e+002, 1.894129e+003
6.734265e+002, 1.894887e+003
6.739086e+002, 1.895315e+003
6.743907e+002, 1.894019e+003
6.748728e+002, 1.891672e+003
6.753549e+002, 1.890326e+003
6.758370e+002, 1.891903e+003
6.763192e+002, 1.893281e+003
6.768013e+002, 1.892963e+003
6.772834e+002, 1.891175e+003
6.777655e+002, 1.890775e+003
6.782476e+002, 1.892365e+003
6.787297e+002, 1.894131e+003
6.792119e+002, 1.895263e+003
6.796940e+002, 1.895767e+003
6.801761e+002, 1.895536e+003
6.806582e+002, 1.894492e+003
6.811403e+002, 1.893446e+003
6.816224e+002, 1.892791e+003
6.821046e+002, 1.892670e+003
6.825867e+002, 1.893600e+003
6.830688e+002, 1.895770e+003
6.835509e+002, 1.897861e+003
6.840330e+002, 1.899274e+003
6.845151e+002, 1.900006e+003
6.849973e+002, 1.900063e+003
6.854794e+002, 1.899205e+003
6.859615e+002, 1.898074e+003
6.864436e+002, 1.895760e+003
6.869257e+002, 1.893714e+003
6.874078e+002, 1.893861e+003
6.878900e+002, 1.897276e+003
6.883721e+002, 1.900133e+003
6.888542e+002, 1.901974e+003
6.893363e+002, 1.902870e+003
6.898184e+002, 1.902455e+003
6.903005e+002, 1.900871e+003
6.907827e+002, 1.899790e+003
6.912648e+002, 1.899925e+003
6.917469e+002, 1.900840e+003
6.922290e+002, 1.902315e+003
6.927111e+002, 1.904105e+003
6.931932e+002, 1.905367e+003
6.936754e+002, 1.904600e+003
6.941575e+002, 1.904114e+003
6.946396e+002, 1.905879e+003
6.951217e+002, 1.909627e+003
6.956038e+002, 1.911722e+003
6.960859e+002, 1.909794e+003
6.965681e+002, 1.907960e+003
6.970502e+002, 1.907848e+003
6.975323e+002, 1.909546e+003
6.980144e+002, 1.910929e+003
6.984965e+002, 1.912138e+003
6.989786e+002, 1.912577e+003
6.994608e+002, 1.911052e+003
6.999429e+002, 1.908244e+003
7.004250e+002, 1.907691e+003
7.009071e+002, 1.909730e+003
7.013892e+002, 1.911612e+003
7.018713e+002, 1.909890e+003
7.023535e+002, 1.907071e+003
7.028356e+002, 1.906591e+003
7.033177e+002, 1.910044e+003
7.037998e+002, 1.912924e+003
7.042819e+002, 1.912882e+003
7.047640e+002, 1.911689e+003
7.052462e+002, 1.911248e+003
7.057283e+002, 1.912174e+003
7.062104e+002, 1.912975e+003
7.066925e+002, 1.913556e+003
7.071746e+002, 1.914000e+003
7.076567e+002, 1.914442e+003
7.081389e+002, 1.914880e+003
7.086210e+002, 1.915243e+003
7.091031e+002, 1.915523e+003
7.095852e+002, 1.915707e+003
7.100673e+002, 1.915680e+003
7.105494e+002, 1.915530e+003
7.110316e+002, 1.915519e+003
7.115137e+002, 1.915673e+003
7.119958e+002, 1.916106e+003
7.124779e+002, 1.917148e+003
7.129600e+002, 1.918571e+003
7.134421e+002, 1.919646e+003
7.139243e+002, 1.919826e+003
7.144064e+002, 1.920024e+003
7.148885e+002, 1.920530e+003
7.153706e+002, 1.921302e+003
7.158527e+002, 1.921938e+003
7.163348e+002, 1.922326e+003
7.168170e+002, 1.922907e+003
7.172991e+002, 1.924135e+003
7.177812e+002, 1.925755e+003
7.182633e+002, 1.926187e+003
7.187454e+002, 1.925462e+003
7.192275e+002, 1.924807e+003
7.197097e+002, 1.925186e+003
7.201918e+002, 1.926071e+003
7.206739e+002, 1.926962e+003
7.211560e+002, 1.927813e+003
7.216381e+002, 1.928404e+003
7.221202e+002, 1.928244e+003
7.226024e+002, 1.928074e+003
7.230845e+002, 1.928429e+003
7.235666e+002, 1.929536e+003
7.240487e+002, 1.930701e+003
7.245308e+002, 1.932274e+003
7.250129e+002, 1.933479e+003
7.254951e+002, 1.933329e+003
7.259772e+002, 1.931690e+003
7.264593e+002, 1.931351e+003
7.269414e+002, 1.932714e+003
7.274235e+002, 1.934416e+003
7.279056e+002, 1.934625e+003
7.283878e+002, 1.934017e+003
7.288699e+002, 1.934166e+003
7.293520e+002, 1.935692e+003
7.298341e+002, 1.937220e+003
7.303162e+002, 1.937529e+003
7.307983e+002, 1.937402e+003
7.312805e+002, 1.937838e+003
7.317626e+002, 1.940006e+003
7.322447e+002, 1.941511e+003
7.327268e+002, 1.941729e+003
7.332089e+002, 1.941413e+003
7.336910e+002, 1.941804e+003
7.341732e+002, 1.943034e+003
7.346553e+002, 1.944531e+003
7.351374e+002, 1.946374e+003
7.356195e+002, 1.948117e+003
7.361016e+002, 1.948325e+003
7.365837e+002, 1.947478e+003
7.370659e+002, 1.947739e+003
7.375480e+002, 1.951421e+003
7.380301e+002, 1.955083e+003
7.385122e+002, 1.954758e+003
7.389943e+002, 1.951891e+003
7.394764e+002, 1.950211e+003
7.399586e+002, 1.952518e+003
7.404407e+002, 1.954578e+003
7.409228e+002, 1.954652e+003
7.414049e+002, 1.953230e+003
7.418870e+002, 1.952426e+003
7.423691e+002, 1.952337e+003
7.428513e+002, 1.952697e+003
7.433334e+002, 1.953660e+003
7.438155e+002, 1.954970e+003
7.442976e+002, 1.955357e+003
7.447797e+002, 1.954887e+003
7.452618e+002, 1.954479e+003
7.457440e+002, 1.954400e+003
7.462261e+002, 1.954895e+003
7.467082e+002, 1.956822e+003
7.471903e+002, 1.959932e+003
7.476724e+002, 1.962083e+003
7.481545e+002, 1.961476e+003
7.486367e+002, 1.960371e+003
7.491188e+002, 1.959987e+003
7.496009e+002, 1.960464e+003
7.500830e+002, 1.960685e+003
7.505651e+002, 1.960537e+003
7.510472e+002, 1.960309e+003
7.515294e+002, 1.960060e+003
7.520115e+002, 1.959794e+003
7.524936e+002, 1.960124e+003
7.529757e+002, 1.961088e+003
7.534578e+002, 1.961980e+003
7.539399e+002, 1.962329e+003
7.544221e+002, 1.962169e+003
7.549042e+002, 1.961270e+003
7.553863e+002, 1.959530e+003
7.558684e+002, 1.958322e+003
7.563505e+002, 1.958167e+003
7.568326e+002, 1.958963e+003
7.573148e+002, 1.960912e+003
7.577969e+002, 1.965181e+003
7.582790e+002, 1.967371e+003
7.587611e+002, 1.966439e+003
7.592432e+002, 1.964866e+003
7.597253e+002, 1.964911e+003
7.602075e+002, 1.966608e+003
7.606896e+002, 1.967928e+003
7.611717e+002, 1.968695e+003
7.616538e+002, 1.969159e+003
7.621359e+002, 1.969469e+003
7.626180e+002, 1.969703e+003
7.631002e+002, 1.969958e+003
7.635823e+002, 1.970173e+003
7.640644e+002, 1.970696e+003
7.645465e+002, 1.972320e+003
7.650286e+002, 1.974089e+003
7.655107e+002, 1.974961e+003
7.659929e+002, 1.973948e+003
7.664750e+002, 1.973359e+003
7.669571e+002, 1.973230e+003
7.674392e+002, 1.973543e+003
7.679213e+002, 1.974391e+003
7.684034e+002, 1.975802e+003
7.688856e+002, 1.977167e+003
7.693677e+002, 1.978451e+003
7.698498e+002, 1.979394e+003
7.703319e+002, 1.979343e+003
7.708140e+002, 1.978716e+003
7.712961e+002, 1.978334e+003
7.717783e+002, 1.978095e+003
7.722604e+002, 1.978744e+003
7.727425e+002, 1.981666e+003
7.732246e+002, 1.985406e+003
7.737067e+002, 1.987764e+003
7.741888e+002, 1.987289e+003
7.746710e+002, 1.987274e+003
7.751531e+002, 1.988346e+003
7.756352e+002, 1.989742e+003
7.761173e+002, 1.989730e+003
7.765994e+002, 1.988259e+003
7.770815e+002, 1.987969e+003
7.775637e+002, 1.989890e+003
7.780458e+002, 1.992459e+003
7.785279e+002, 1.993282e+003
7.790100e+002, 1.993015e+003
7.794921e+002, 1.993160e+003
7.799742e+002, 1.995065e+003
7.804564e+002, 1.996622e+003
7.809385e+002, 1.996235e+003
7.814206e+002, 1.994908e+003
7.819027e+002, 1.994937e+003
7.823848e+002, 1.998005e+003
7.828669e+002, 1.999678e+003
7.833491e+002, 1.998740e+003
7.838312e+002, 1.996379e+003
7.843133e+002, 1.995504e+003
7.847954e+002, 1.996102e+003
7.852775e+002, 1.996915e+003
7.857596e+002, 1.997703e+003
7.862418e+002, 1.998248e+003
7.867239e+002, 1.997870e+003
7.872060e+002, 1.997003e+003
7.876881e+002, 1.996696e+003
7.881702e+002, 1.998142e+003
7.886523e+002, 1.999454e+003
7.891345e+002, 1.999322e+003
7.896166e+002, 1.998465e+003
7.900987e+002, 1.999129e+003
7.905808e+002, 2.002406e+003
7.910629e+002, 2.005004e+003
7.915450e+002, 2.006027e+003
7.920272e+002, 2.005946e+003
7.925093e+002, 2.005571e+003
7.929914e+002, 2.005010e+003
7.934735e+002, 2.005768e+003
7.939556e+002, 2.009399e+003
7.944377e+002, 2.013678e+003
7.949199e+002, 2.016418e+003
7.954020e+002, 2.017703e+003
7.958841e+002, 2.017653e+003
7.963662e+002, 2.014306e+003
7.968483e+002, 2.011821e+003
7.973304e+002, 2.012552e+003
7.978126e+002, 2.015307e+003
7.982947e+002, 2.016185e+003
7.987768e+002, 2.014271e+003
7.992589e+002, 2.013115e+003
7.997410e+002, 2.013909e+003
8.002231e+002, 2.015978e+003
8.007053e+002, 2.017957e+003
8.011874e+002, 2.019745e+003
8.016695e+002, 2.020751e+003
8.021516e+002, 2.019845e+003
8.026337e+002, 2.018772e+003
8.031158e+002, 2.019147e+003
8.035980e+002, 2.020605e+003
8.040801e+002, 2.022156e+003
8.045622e+002, 2.023850e+003
8.050443e+002, 2.025156e+003
8.055264e+002, 2.025829e+003
8.060085e+002, 2.026036e+003
8.064907e+002, 2.026215e+003
8.069728e+002, 2.026256e+003
8.074549e+002, 2.026800e+003
8.079370e+002, 2.028161e+003
8.084191e+002, 2.030022e+003
8.089012e+002, 2.032040e+003
8.093834e+002, 2.034053e+003
8.098655e+002, 2.035490e+003
8.103476e+002, 2.035338e+003
8.108297e+002, 2.035233e+003
8.113118e+002, 2.036619e+003
8.117939e+002, 2.038894e+003
8.122761e+002, 2.040200e+003
8.127582e+002, 2.039268e+003
8.132403e+002, 2.038783e+003
8.137224e+002, 2.039338e+003
8.142045e+002, 2.040665e+003
8.146866e+002, 2.042043e+003
8.151688e+002, 2.043451e+003
8.156509e+002, 2.044863e+003
8.161330e+002, 2.046323e+003
8.166151e+002, 2.047689e+003
8.170972e+002, 2.048386e+003
8.175793e+002, 2.048794e+003
8.180615e+002, 2.049931e+003
8.185436e+002, 2.053395e+003
8.190257e+002, 2.056390e+003
8.195078e+002, 2.057384e+003
8.199899e+002, 2.057065e+003
8.204720e+002, 2.057376e+003
8.209542e+002, 2.058390e+003
8.214363e+002, 2.059878e+003
8.219184e+002, 2.062009e+003
8.224005e+002, 2.064349e+003
8.228826e+002, 2.065871e+003
8.233647e+002, 2.066704e+003
8.238469e+002, 2.067483e+003
8.243290e+002, 2.068620e+003
8.248111e+002, 2.069590e+003
8.252932e+002, 2.069649e+003
8.257753e+002, 2.069256e+003
8.262574e+002, 2.069304e+003
8.267396e+002, 2.070273e+003
8.272217e+002, 2.071478e+003
8.277038e+002, 2.072945e+003
8.281859e+002, 2.074506e+003
8.286681e+002, 2.075885e+003
8.291502e+002, 2.077063e+003
8.296323e+002, 2.078119e+003
8.301144e+002, 2.079056e+003
8.305966e+002, 2.079867e+003
8.310787e+002, 2.080389e+003
8.315608e+002, 2.080796e+003
8.320429e+002, 2.081550e+003
8.325250e+002, 2.082977e+003
8.330071e+002, 2.084495e+003
8.334893e+002, 2.085849e+003
8.339714e+002, 2.087108e+003
8.344535e+002, 2.088431e+003
8.349356e+002, 2.090140e+003
8.354177e+002, 2.091213e+003
8.358998e+002, 2.091162e+003
8.363820e+002, 2.090987e+003
8.368641e+002, 2.092554e+003
8.373462e+002, 2.095595e+003
8.378283e+002, 2.097737e+003
8.383104e+002, 2.098305e+003
8.387925e+002, 2.098442e+003
8.392747e+002, 2.098993e+003
8.397568e+002, 2.099912e+003
8.402389e+002, 2.101208e+003
8.407210e+002, 2.103460e+003
8.412031e+002, 2.105021e+003
8.416852e+002, 2.105577e+003
8.421674e+002, 2.105300e+003
8.426495e+002, 2.103965e+003
8.431316e+002, 2.101146e+003
8.436137e+002, 2.100167e+003
8.440958e+002, 2.101633e+003
8.445779e+002, 2.103600e+003
8.450601e+002, 2.103563e+003
8.455422e+002, 2.102415e+003
8.460243e+002, 2.102204e+003
8.465064e+002, 2.103506e+003
8.469885e+002, 2.104404e+003
8.474706e+002, 2.103101e+003
8.479528e+002, 2.101363e+003
8.484349e+002, 2.100775e+003
8.489170e+002, 2.101874e+003
8.493991e+002, 2.102806e+003
8.498812e+002, 2.103775e+003
8.503633e+002, 2.104100e+003
8.508455e+002, 2.102777e+003
8.513276e+002, 2.100115e+003
8.518097e+002, 2.098370e+003
8.522918e+002, 2.097652e+003
8.527739e+002, 2.097436e+003
8.532560e+002, 2.097776e+003
8.537382e+002, 2.098133e+003
8.542203e+002, 2.098105e+003
8.547024e+002, 2.097692e+003
8.551845e+002, 2.096629e+003
8.556666e+002, 2.094457e+003
8.561487e+002, 2.092099e+003
8.566309e+002, 2.089695e+003
8.571130e+002, 2.087305e+003
8.575951e+002, 2.086610e+003
8.580772e+002, 2.087725e+003
8.585593e+002, 2.089104e+003
8.590414e+002, 2.089985e+003
8.595236e+002, 2.090321e+003
8.600057e+002, 2.089864e+003
8.604878e+002, 2.088696e+003
8.609699e+002, 2.087450e+003
8.614520e+002, 2.085987e+003
8.619341e+002, 2.084890e+003
8.624163e+002, 2.084503e+003
8.628984e+002, 2.084744e+003
8.633805e+002, 2.085351e+003
8.638626e+002, 2.086646e+003
8.643447e+002, 2.087192e+003
8.648268e+002, 2.086016e+003
8.653090e+002, 2.084030e+003
8.657911e+002, 2.083472e+003
8.662732e+002, 2.084134e+003
8.667553e+002, 2.085206e+003
8.672374e+002, 2.086785e+003
8.677195e+002, 2.088119e+003
8.682017e+002, 2.088937e+003
8.686838e+002, 2.089131e+003
8.691659e+002, 2.088245e+003
8.696480e+002, 2.085039e+003
8.701301e+002, 2.083131e+003
8.706122e+002, 2.083772e+003
8.710944e+002, 2.085481e+003
8.715765e+002, 2.084799e+003
8.720586e+002, 2.082083e+003
8.725407e+002, 2.080013e+003
8.730228e+002, 2.079807e+003
8.735049e+002, 2.079719e+003
8.739871e+002, 2.077507e+003
8.744692e+002, 2.074534e+003
8.749513e+002, 2.072839e+003
8.754334e+002, 2.074689e+003
8.759155e+002, 2.075508e+003
8.763976e+002, 2.074061e+003
8.768798e+002, 2.072267e+003
8.773619e+002, 2.072620e+003
8.778440e+002, 2.075268e+003
8.783261e+002, 2.077152e+003
8.788082e+002, 2.077862e+003
8.792903e+002, 2.077996e+003
8.797725e+002, 2.077578e+003
8.802546e+002, 2.077218e+003
8.807367e+002, 2.078044e+003
8.812188e+002, 2.080568e+003
8.817009e+002, 2.082551e+003
8.821830e+002, 2.082681e+003
8.826652e+002, 2.082357e+003
8.831473e+002, 2.082464e+003
8.836294e+002, 2.082978e+003
8.841115e+002, 2.084116e+003
8.845936e+002, 2.085948e+003
8.850757e+002, 2.088196e+003
8.855579e+002, 2.090748e+003
8.860400e+002, 2.093590e+003
8.865221e+002, 2.097121e+003
8.870042e+002, 2.101214e+003
8.874863e+002, 2.104294e+003
8.879684e+002, 2.104095e+003
8.884506e+002, 2.103957e+003
8.889327e+002, 2.106095e+003
8.894148e+002, 2.110378e+003
8.898969e+002, 2.113836e+003
8.903790e+002, 2.116032e+003
8.908611e+002, 2.118605e+003
8.913433e+002, 2.122201e+003
8.918254e+002, 2.126642e+003
8.923075e+002, 2.132182e+003
8.927896e+002, 2.138420e+003
8.932717e+002, 2.143576e+003
8.937538e+002, 2.145694e+003
8.942360e+002, 2.147546e+003
8.947181e+002, 2.150678e+003
8.952002e+002, 2.154722e+003
8.956823e+002, 2.158742e+003
8.961644e+002, 2.162981e+003
8.966465e+002, 2.166347e+003
8.971287e+002, 2.168232e+003
8.976108e+002, 2.169748e+003
8.980929e+002, 2.173318e+003
8.985750e+002, 2.178428e+003
8.990571e+002, 2.182737e+003
8.995392e+002, 2.185930e+003
9.000214e+002, 2.187500e+003
9.005035e+002, 2.184947e+003
9.009856e+002, 2.181583e+003
9.014677e+002, 2.181389e+003
9.019498e+002, 2.188344e+003
9.024319e+002, 2.192655e+003
9.029141e+002, 2.193028e+003
9.033962e+002, 2.192583e+003
9.038783e+002, 2.194615e+003
9.043604e+002, 2.198743e+003
9.048425e+002, 2.200800e+003
9.053246e+002, 2.200435e+003
9.058068e+002, 2.200293e+003
9.062889e+002, 2.202821e+003
9.067710e+002, 2.206396e+003
9.072531e+002, 2.209517e+003
9.077352e+002, 2.211957e+003
9.082173e+002, 2.214889e+003
9.086995e+002, 2.218635e+003
9.091816e+002, 2.222685e+003
9.096637e+002, 2.226894e+003
9.101458e+002, 2.231200e+003
9.106279e+002, 2.234665e+003
9.111100e+002, 2.237376e+003
9.115922e+002, 2.240962e+003
9.120743e+002, 2.247179e+003
9.125564e+002, 2.254140e+003
9.130385e+002, 2.260120e+003
9.135206e+002, 2.265254e+003
9.140027e+002, 2.270148e+003
9.144849e+002, 2.274611e+003
9.149670e+002, 2.279325e+003
9.154491e+002, 2.284532e+003
9.159312e+002, 2.289970e+003
9.164133e+002, 2.295346e+003
9.168954e+002, 2.300650e+003
9.173776e+002, 2.304684e+003
9.178597e+002, 2.306915e+003
9.183418e+002, 2.308610e+003
9.188239e+002, 2.311574e+003
9.193060e+002, 2.314729e+003
9.197881e+002, 2.316369e+003
9.202703e+002, 2.314617e+003
9.207524e+002, 2.314426e+003
9.212345e+002, 2.317446e+003
9.217166e+002, 2.321208e+003
9.221987e+002, 2.323557e+003
9.226808e+002, 2.324408e+003
9.231630e+002, 2.326180e+003
9.236451e+002, 2.329019e+003
9.241272e+002, 2.332098e+003
9.246093e+002, 2.334385e+003
9.250914e+002, 2.336719e+003
9.255735e+002, 2.340283e+003
9.260557e+002, 2.345098e+003
9.265378e+002, 2.349640e+003
9.270199e+002, 2.352484e+003
9.275020e+002, 2.356091e+003
9.279841e+002, 2.361405e+003
9.284662e+002, 2.368236e+003
9.289484e+002, 2.375618e+003
9.294305e+002, 2.383581e+003
9.299126e+002, 2.391947e+003
9.303947e+002, 2.400448e+003
9.308768e+002, 2.409442e+003
9.313589e+002, 2.419766e+003
9.318411e+002, 2.430822e+003
9.323232e+002, 2.441057e+003
9.328053e+002, 2.449447e+003
9.332874e+002, 2.457665e+003
9.337695e+002, 2.465364e+003
9.342516e+002, 2.473515e+003
9.347338e+002, 2.483758e+003
9.352159e+002, 2.496169e+003
9.356980e+002, 2.508015e+003
9.361801e+002, 2.518843e+003
9.366622e+002, 2.529193e+003
9.371443e+002, 2.539614e+003
9.376265e+002, 2.549874e+003
9.381086e+002, 2.559233e+003
9.385907e+002, 2.567126e+003
9.390728e+002, 2.576434e+003
9.395549e+002, 2.589145e+003
9.400370e+002, 2.601256e+003
9.405192e+002, 2.609836e+003
9.410013e+002, 2.615124e+003
9.414834e+002, 2.622397e+003
9.419655e+002, 2.631667e+003
9.424476e+002, 2.640955e+003
9.429297e+002, 2.649341e+003
9.434119e+002, 2.656834e+003
9.438940e+002, 2.662985e+003
9.443761e+002, 2.668135e+003
9.448582e+002, 2.673750e+003
9.453403e+002, 2.679443e+003
9.458224e+002, 2.686793e+003
9.463046e+002, 2.696766e+003
9.467867e+002, 2.708097e+003
9.472688e+002, 2.717161e+003
9.477509e+002, 2.724399e+003
9.482330e+002, 2.733291e+003
9.487151e+002, 2.745464e+003
9.491973e+002, 2.757862e+003
9.496794e+002, 2.767477e+003
9.501615e+002, 2.775850e+003
9.506436e+002, 2.784837e+003
9.511257e+002, 2.794647e+003
9.516078e+002, 2.805409e+003
9.520900e+002, 2.817387e+003
9.525721e+002, 2.829886e+003
9.530542e+002, 2.842142e+003
9.535363e+002, 2.854339e+003
9.540184e+002, 2.868010e+003
9.545005e+002, 2.883029e+003
9.549827e+002, 2.897778e+003
9.554648e+002, 2.911091e+003
9.559469e+002, 2.923636e+003
9.564290e+002, 2.935646e+003
9.569111e+002, 2.947200e+003
9.573932e+002, 2.958963e+003
9.578754e+002, 2.971512e+003
9.583575e+002, 2.982990e+003
9.588396e+002, 2.992491e+003
9.593217e+002, 3.000711e+003
9.598038e+002, 3.008973e+003
9.602859e+002, 3.017211e+003
9.607681e+002, 3.025206e+003
9.612502e+002, 3.033375e+003
9.617323e+002, 3.040470e+003
9.622144e+002, 3.045545e+003
9.626965e+002, 3.049274e+003
9.631786e+002, 3.052550e+003
9.636608e+002, 3.055594e+003
9.641429e+002, 3.057759e+003
9.646250e+002, 3.058901e+003
9.651071e+002, 3.059707e+003
9.655892e+002, 3.060224e+003
9.660714e+002, 3.061121e+003
9.665535e+002, 3.064023e+003
9.670356e+002, 3.069032e+003
9.675177e+002, 3.074804e+003
9.679998e+002, 3.079289e+003
9.684819e+002, 3.085731e+003
9.689641e+002, 3.096573e+003
9.694462e+002, 3.111137e+003
9.699283e+002, 3.124910e+003
9.704104e+002, 3.137444e+003
9.708925e+002, 3.152385e+003
9.713746e+002, 3.171866e+003
9.718568e+002, 3.193664e+003
9.723389e+002, 3.214794e+003
9.728210e+002, 3.235846e+003
9.733031e+002, 3.258307e+003
9.737852e+002, 3.285311e+003
9.742673e+002, 3.310007e+003
9.747495e+002, 3.330563e+003
9.752316e+002, 3.349024e+003
9.757137e+002, 3.367441e+003
9.761958e+002, 3.385995e+003
9.766779e+002, 3.404303e+003
9.771600e+002, 3.422629e+003
9.776422e+002, 3.438399e+003
9.781243e+002, 3.448015e+003
9.786064e+002, 3.455256e+003
9.790885e+002, 3.464343e+003
9.795706e+002, 3.475668e+003
9.800527e+002, 3.486016e+003
9.805349e+002, 3.494871e+003
9.810170e+002, 3.502638e+003
9.814991e+002, 3.509460e+003
9.819812e+002, 3.515345e+003
9.824633e+002, 3.519925e+003
9.829454e+002, 3.523419e+003
9.834276e+002, 3.527372e+003
9.839097e+002, 3.533685e+003
9.843918e+002, 3.538859e+003
9.848739e+002, 3.540348e+003
9.853560e+002, 3.539161e+003
9.858381e+002, 3.536593e+003
9.863203e+002, 3.531378e+003
9.868024e+002, 3.528362e+003
9.872845e+002, 3.528343e+003
9.877666e+002, 3.529083e+003
9.882487e+002, 3.528644e+003
9.887308e+002, 3.527116e+003
9.892130e+002, 3.524985e+003
9.896951e+002, 3.522266e+003
9.901772e+002, 3.517513e+003
9.906593e+002, 3.507209e+003
9.911414e+002, 3.497237e+003
9.916235e+002, 3.491843e+003
9.921057e+002, 3.489854e+003
9.925878e+002, 3.483873e+003
9.930699e+002, 3.473262e+003
9.935520e+002, 3.462865e+003
9.940341e+002, 3.454479e+003
9.945162e+002, 3.446819e+003
9.949984e+002, 3.438862e+003
9.954805e+002, 3.430093e+003
9.959626e+002, 3.419480e+003
9.964447e+002, 3.405258e+003
9.969268e+002, 3.391588e+003
9.974089e+002, 3.380596e+003
9.978911e+002, 3.369094e+003
9.983732e+002, 3.353859e+003
9.988553e+002, 3.335176e+003
9.993374e+002, 3.316308e+003
9.998195e+002, 3.297483e+003
1.000302e+003, 3.279651e+003
1.000784e+003, 3.265291e+003
1.001266e+003, 3.250616e+003
1.001748e+003, 3.231604e+003
1.002230e+003, 3.208478e+003
1.002712e+003, 3.186423e+003
1.003194e+003, 3.166151e+003
1.003676e+003, 3.146115e+003
1.004159e+003, 3.125841e+003
1.004641e+003, 3.105295e+003
1.005123e+003, 3.083896e+003
1.005605e+003, 3.061828e+003
1.006087e+003, 3.039430e+003
1.006569e+003, 3.016193e+003
1.007051e+003, 2.993644e+003
1.007533e+003, 2.971892e+003
1.008016e+003, 2.951290e+003
1.008498e+003, 2.931879e+003
1.008980e+003, 2.914061e+003
1.009462e+003, 2.895897e+003
1.009944e+003, 2.877150e+003
1.010426e+003, 2.858795e+003
1.010908e+003, 2.841243e+003
1.011390e+003, 2.824909e+003
1.011872e+003, 2.810803e+003
1.012355e+003, 2.798487e+003
1.012837e+003, 2.785876e+003
1.013319e+003, 2.770686e+003
1.013801e+003, 2.756997e+003
1.014283e+003, 2.745926e+003
1.014765e+003, 2.736395e+003
1.015247e+003, 2.726283e+003
1.015729e+003, 2.715617e+003
1.016211e+003, 2.705335e+003
1.016694e+003, 2.695652e+003
1.017176e+003, 2.686253e+003
1.017658e+003, 2.677565e+003
1.018140e+003, 2.668661e+003
1.018622e+003, 2.657974e+003
1.019104e+003, 2.644707e+003
1.019586e+003, 2.635465e+003
1.020068e+003, 2.631677e+003
1.020551e+003, 2.627348e+003
1.021033e+003, 2.618990e+003
1.021515e+003, 2.608055e+003
1.021997e+003, 2.596702e+003
1.022479e+003, 2.585532e+003
1.022961e+003, 2.576491e+003
1.023443e+003, 2.572509e+003
1.023925e+003, 2.568149e+003
1.024407e+003, 2.561662e+003
1.024890e+003, 2.554101e+003
1.025372e+003, 2.546610e+003
1.025854e+003, 2.539241e+003
1.026336e+003, 2.531675e+003
1.026818e+003, 2.523833e+003
1.027300e+003, 2.515921e+003
1.027782e+003, 2.507910e+003
1.028264e+003, 2.499946e+003
1.028746e+003, 2.492338e+003
1.029229e+003, 2.485122e+003
1.029711e+003, 2.476965e+003
1.030193e+003, 2.466612e+003
1.030675e+003, 2.457849e+003
1.031157e+003, 2.452216e+003
1.031639e+003, 2.448622e+003
1.032121e+003, 2.445327e+003
1.032603e+003, 2.441863e+003
1.033086e+003, 2.436888e+003
1.033568e+003, 2.429572e+003
1.034050e+003, 2.421455e+003
1.034532e+003, 2.411695e+003
1.035014e+003, 2.402725e+003
1.035496e+003, 2.396974e+003
1.035978e+003, 2.395125e+003
1.036460e+003, 2.392125e+003
1.036943e+003, 2.388003e+003
1.037425e+003, 2.383193e+003
1.037907e+003, 2.377314e+003
1.038389e+003, 2.371485e+003
1.038871e+003, 2.367058e+003
1.039353e+003, 2.363799e+003
1.039835e+003, 2.360840e+003
1.040317e+003, 2.357657e+003
1.040799e+003, 2.355409e+003
1.041281e+003, 2.354719e+003
1.041764e+003, 2.354223e+003
1.042246e+003, 2.351087e+003
1.042728e+003, 2.346302e+003
1.043210e+003, 2.343673e+003
1.043692e+003, 2.344180e+003
1.044174e+003, 2.343766e+003
1.044656e+003, 2.339240e+003
1.045138e+003, 2.333782e+003
1.045621e+003, 2.329268e+003
1.046103e+003, 2.325719e+003
1.046585e+003, 2.323154e+003
1.047067e+003, 2.321672e+003
1.047549e+003, 2.319945e+003
1.048031e+003, 2.317318e+003
1.048513e+003, 2.314285e+003
1.048995e+003, 2.310828e+003
1.049478e+003, 2.307585e+003
1.049960e+003, 2.305647e+003
1.050442e+003, 2.307070e+003
1.050924e+003, 2.307119e+003
1.051406e+003, 2.305606e+003
1.051888e+003, 2.302956e+003
1.052370e+003, 2.298708e+003
1.052852e+003, 2.293689e+003
1.053334e+003, 2.291019e+003
1.053817e+003, 2.290624e+003
1.054299e+003, 2.290405e+003
1.054781e+003, 2.289501e+003
1.055263e+003, 2.288201e+003
1.055745e+003, 2.286559e+003
1.056227e+003, 2.284634e+003
1.056709e+003, 2.282255e+003
1.057191e+003, 2.279337e+003
1.057673e+003, 2.277637e+003
1.058156e+003, 2.277737e+003
1.058638e+003, 2.278132e+003
1.059120e+003, 2.277146e+003
1.059602e+003, 2.275660e+003
1.060084e+003, 2.274607e+003
1.060566e+003, 2.274169e+003
1.061048e+003, 2.273949e+003
1.061530e+003, 2.274159e+003
1.062013e+003, 2.273998e+003
1.062495e+003, 2.272905e+003
1.062977e+003, 2.271333e+003
1.063459e+003, 2.269948e+003
1.063941e+003, 2.269007e+003
1.064423e+003, 2.269264e+003
1.064905e+003, 2.273013e+003
1.065387e+003, 2.275188e+003
1.065870e+003, 2.273240e+003
1.066352e+003, 2.269767e+003
1.066834e+003, 2.266491e+003
1.067316e+003, 2.263425e+003
1.067798e+003, 2.262767e+003
1.068280e+003, 2.264595e+003
1.068762e+003, 2.266065e+003
1.069244e+003, 2.264188e+003
1.069726e+003, 2.261910e+003
1.070208e+003, 2.262087e+003
1.070691e+003, 2.264030e+003
1.071173e+003, 2.264278e+003
1.071655e+003, 2.262117e+003
1.072137e+003, 2.260215e+003
1.072619e+003, 2.258965e+003
1.073101e+003, 2.258325e+003
1.073583e+003, 2.258328e+003
1.074065e+003, 2.258843e+003
1.074548e+003, 2.259830e+003
1.075030e+003, 2.261364e+003
1.075512e+003, 2.262472e+003
1.075994e+003, 2.262705e+003
1.076476e+003, 2.262675e+003
1.076958e+003, 2.262470e+003
1.077440e+003, 2.262253e+003
1.077922e+003, 2.263234e+003
1.078405e+003, 2.264938e+003
1.078887e+003, 2.264818e+003
1.079369e+003, 2.260269e+003
1.079851e+003, 2.256570e+003
1.080333e+003, 2.257339e+003
1.080815e+003, 2.260160e+003
1.081297e+003, 2.262386e+003
1.081779e+003, 2.264001e+003
1.082261e+003, 2.265082e+003
1.082744e+003, 2.265619e+003
1.083226e+003, 2.265763e+003
1.083708e+003, 2.265124e+003
1.084190e+003, 2.264521e+003
1.084672e+003, 2.264808e+003
1.085154e+003, 2.265864e+003
1.085636e+003, 2.267230e+003
1.086118e+003, 2.268511e+003
1.086601e+003, 2.271084e+003
1.087083e+003, 2.275939e+003
1.087565e+003, 2.280141e+003
1.088047e+003, 2.278681e+003
1.088529e+003, 2.274156e+003
1.089011e+003, 2.272214e+003
1.089493e+003, 2.273476e+003
1.089975e+003, 2.274640e+003
1.090458e+003, 2.273783e+003
1.090940e+003, 2.273299e+003
1.091422e+003, 2.274519e+003
1.091904e+003, 2.276464e+003
1.092386e+003, 2.275575e+003
1.092868e+003, 2.272378e+003
1.093350e+003, 2.270379e+003
1.093832e+003, 2.270928e+003
1.094314e+003, 2.271774e+003
1.094797e+003, 2.270814e+003
1.095279e+003, 2.269875e+003
1.095761e+003, 2.271270e+003
1.096243e+003, 2.275352e+003
1.096725e+003, 2.275727e+003
1.097207e+003, 2.272057e+003
1.097689e+003, 2.268764e+003
1.098171e+003, 2.268386e+003
1.098653e+003, 2.269580e+003
1.099136e+003, 2.271987e+003
1.099618e+003, 2.274545e+003
1.100100e+003, 2.275109e+003
1.100582e+003, 2.271529e+003
1.101064e+003, 2.269078e+003
1.101546e+003, 2.267977e+003
1.102028e+003, 2.267723e+003
1.102510e+003, 2.268222e+003
1.102993e+003, 2.269065e+003
1.103475e+003, 2.269386e+003
1.103957e+003, 2.269201e+003
1.104439e+003, 2.268876e+003
1.104921e+003, 2.268076e+003
1.105403e+003, 2.267856e+003
1.105885e+003, 2.268649e+003
1.106367e+003, 2.269983e+003
1.106849e+003, 2.271026e+003
1.107332e+003, 2.271864e+003
1.107814e+003, 2.272788e+003
1.108296e+003, 2.273844e+003
1.108778e+003, 2.275286e+003
1.109260e+003, 2.278703e+003
1.109742e+003, 2.281226e+003
1.110224e+003, 2.280385e+003
1.110706e+003, 2.276989e+003
1.111188e+003, 2.275216e+003
1.111671e+003, 2.275060e+003
1.112153e+003, 2.275153e+003
1.112635e+003, 2.275124e+003
1.113117e+003, 2.274921e+003
1.113599e+003, 2.274310e+003
1.114081e+003, 2.273577e+003
1.114563e+003, 2.272979e+003
1.115045e+003, 2.272388e+003
1.115528e+003, 2.272982e+003
1.116010e+003, 2.275223e+003
1.116492e+003, 2.276719e+003
1.116974e+003, 2.276206e+003
1.117456e+003, 2.274097e+003
1.117938e+003, 2.269429e+003
1.118420e+003, 2.263942e+003
1.118902e+003, 2.261330e+003
1.119385e+003, 2.265928e+003
1.119867e+003, 2.268708e+003
1.120349e+003, 2.269086e+003
1.120831e+003, 2.267963e+003
1.121313e+003, 2.265562e+003
1.121795e+003, 2.262407e+003
1.122277e+003, 2.259803e+003
1.122759e+003, 2.257805e+003
1.123241e+003, 2.256469e+003
1.123724e+003, 2.256111e+003
1.124206e+003, 2.256035e+003
1.124688e+003, 2.255948e+003
1.125170e+003, 2.256030e+003
1.125652e+003, 2.256864e+003
1.126134e+003, 2.258235e+003
1.126616e+003, 2.258615e+003
1.127098e+003, 2.257801e+003
1.127580e+003, 2.256648e+003
1.128063e+003, 2.255328e+003
1.128545e+003, 2.254255e+003
1.129027e+003, 2.253759e+003
1.129509e+003, 2.253751e+003
1.129991e+003, 2.254093e+003
1.130473e+003, 2.254817e+003
1.130955e+003, 2.255288e+003
1.131437e+003, 2.255268e+003
1.131920e+003, 2.255329e+003
1.132402e+003, 2.256144e+003
1.132884e+003, 2.257226e+003
1.133366e+003, 2.258152e+003
1.133848e+003, 2.258880e+003
1.134330e+003, 2.259111e+003
1.134812e+003, 2.258557e+003
1.135294e+003, 2.259099e+003
1.135776e+003, 2.262031e+003
1.136259e+003, 2.265629e+003
1.136741e+003, 2.267741e+003
1.137223e+003, 2.268880e+003
1.137705e+003, 2.269891e+003
1.138187e+003, 2.270955e+003
1.138669e+003, 2.271665e+003
1.139151e+003, 2.271754e+003
1.139633e+003, 2.272143e+003
1.140115e+003, 2.274074e+003
1.140598e+003, 2.276413e+003
1.141080e+003, 2.276625e+003
1.141562e+003, 2.275239e+003
1.142044e+003, 2.273732e+003
1.142526e+003, 2.271848e+003
1.143008e+003, 2.271271e+003
1.143490e+003, 2.272973e+003
1.143972e+003, 2.274735e+003
1.144455e+003, 2.274006e+003
1.144937e+003, 2.271574e+003
1.145419e+003, 2.269885e+003
1.145901e+003, 2.269020e+003
1.146383e+003, 2.268502e+003
1.146865e+003, 2.269305e+003
1.147347e+003, 2.268793e+003
1.147829e+003, 2.265184e+003
1.148312e+003, 2.260890e+003
1.148794e+003, 2.260364e+003
1.149276e+003, 2.262851e+003
1.149758e+003, 2.263022e+003
1.150240e+003, 2.260220e+003
1.150722e+003, 2.257268e+003
1.151204e+003, 2.255331e+003
1.151686e+003, 2.254421e+003
1.152168e+003, 2.254910e+003
1.152651e+003, 2.256271e+003
1.153133e+003, 2.257521e+003
1.153615e+003, 2.258589e+003
1.154097e+003, 2.257251e+003
1.154579e+003, 2.252406e+003
1.155061e+003, 2.248339e+003
1.155543e+003, 2.249589e+003
1.156025e+003, 2.252262e+003
1.156507e+003, 2.253060e+003
1.156990e+003, 2.252113e+003
1.157472e+003, 2.251301e+003
1.157954e+003, 2.250622e+003
1.158436e+003, 2.250531e+003
1.158918e+003, 2.252009e+003
1.159400e+003, 2.252159e+003
1.159882e+003, 2.246019e+003
1.160364e+003, 2.238077e+003
1.160847e+003, 2.233875e+003
1.161329e+003, 2.234487e+003
1.161811e+003, 2.234551e+003
1.162293e+003, 2.234032e+003
1.162775e+003, 2.233144e+003
1.163257e+003, 2.231842e+003
1.163739e+003, 2.230387e+003
1.164221e+003, 2.229149e+003
1.164703e+003, 2.227934e+003
1.165186e+003, 2.226386e+003
1.165668e+003, 2.224136e+003
1.166150e+003, 2.222209e+003
1.166632e+003, 2.220602e+003
1.167114e+003, 2.219340e+003
1.167596e+003, 2.218636e+003
1.168078e+003, 2.218185e+003
1.168560e+003, 2.217705e+003
1.169042e+003, 2.217071e+003
1.169525e+003, 2.215956e+003
1.170007e+003, 2.214164e+003
1.170489e+003, 2.211984e+003
1.170971e+003, 2.209138e+003
1.171453e+003, 2.206685e+003
1.171935e+003, 2.206043e+003
1.172417e+003, 2.206320e+003
1.172899e+003, 2.205679e+003
1.173382e+003, 2.204251e+003
1.173864e+003, 2.203060e+003
1.174346e+003, 2.202646e+003
1.174828e+003, 2.202144e+003
1.175310e+003, 2.201208e+003
1.175792e+003, 2.200537e+003
1.176274e+003, 2.201851e+003
1.176756e+003, 2.203881e+003
1.177239e+003, 2.203101e+003
1.177721e+003, 2.199450e+003
1.178203e+003, 2.196610e+003
1.178685e+003, 2.196265e+003
1.179167e+003, 2.196719e+003
1.179649e+003, 2.197771e+003
1.180131e+003, 2.199094e+003
1.180613e+003, 2.200286e+003
1.181095e+003, 2.201249e+003
1.181578e+003, 2.201714e+003
1.182060e+003, 2.201640e+003
1.182542e+003, 2.201163e+003
1.183024e+003, 2.199882e+003
1.183506e+003, 2.198755e+003
1.183988e+003, 2.197952e+003
1.184470e+003, 2.197698e+003
1.184952e+003, 2.199254e+003
1.185434e+003, 2.201890e+003
1.185917e+003, 2.202765e+003
1.186399e+003, 2.200855e+003
1.186881e+003, 2.199149e+003
1.187363e+003, 2.198712e+003
1.187845e+003, 2.199360e+003
1.188327e+003, 2.201564e+003
1.188809e+003, 2.204473e+003
1.189291e+003, 2.204491e+003
1.189774e+003, 2.202187e+003
1.190256e+003, 2.200204e+003
1.190738e+003, 2.199194e+003
1.191220e+003, 2.199105e+003
1.191702e+003, 2.200706e+003
1.192184e+003, 2.202449e+003
1.192666e+003, 2.203443e+003
1.193148e+003, 2.203729e+003
1.193630e+003, 2.203237e+003
1.194113e+003, 2.202176e+003
1.194595e+003, 2.201840e+003
1.195077e+003, 2.203437e+003
1.195559e+003, 2.204636e+003
1.196041e+003, 2.203955e+003
1.196523e+003, 2.202674e+003
1.197005e+003, 2.201815e+003
1.197487e+003, 2.201339e+003
1.197969e+003, 2.200052e+003
1.198452e+003, 2.198187e+003
1.198934e+003, 2.197406e+003
1.199416e+003, 2.199683e+003
1.199898e+003, 2.201849e+003
1.200380e+003, 2.202196e+003
1.200862e+003, 2.201831e+003
1.201344e+003, 2.201664e+003
1.201826e+003, 2.201693e+003
1.202309e+003, 2.202751e+003
1.202791e+003, 2.204714e+003
1.203273e+003, 2.206062e+003
1.203755e+003, 2.205351e+003
1.204237e+003, 2.204447e+003
1.204719e+003, 2.204510e+003
1.205201e+003, 2.204740e+003
1.205683e+003, 2.203943e+003
1.206166e+003, 2.202155e+003
1.206648e+003, 2.201386e+003
1.207130e+003, 2.201695e+003
1.207612e+003, 2.202722e+003
1.208094e+003, 2.205093e+003
1.208576e+003, 2.207168e+003
1.209058e+003, 2.207942e+003
1.209540e+003, 2.207905e+003
1.210022e+003, 2.207727e+003
1.210505e+003, 2.207395e+003
1.210987e+003, 2.206169e+003
1.211469e+003, 2.204030e+003
1.211951e+003, 2.202271e+003
1.212433e+003, 2.201528e+003
1.212915e+003, 2.201671e+003
1.213397e+003, 2.203159e+003
1.213879e+003, 2.205253e+003
1.214361e+003, 2.207027e+003
1.214844e+003, 2.208433e+003
1.215326e+003, 2.208187e+003
1.215808e+003, 2.206127e+003
1.216290e+003, 2.204468e+003
1.216772e+003, 2.204651e+003
1.217254e+003, 2.205755e+003
1.217736e+003, 2.207997e+003
1.218218e+003, 2.210401e+003
1.218701e+003, 2.210554e+003
1.219183e+003, 2.208704e+003
1.219665e+003, 2.207955e+003
1.220147e+003, 2.208796e+003
1.220629e+003, 2.210049e+003
1.221111e+003, 2.211298e+003
1.221593e+003, 2.212367e+003
1.222075e+003, 2.213240e+003
1.222557e+003, 2.213842e+003
1.223040e+003, 2.213895e+003
1.223522e+003, 2.213462e+003
1.224004e+003, 2.212764e+003
1.224486e+003, 2.211746e+003
1.224968e+003, 2.211673e+003
1.225450e+003, 2.215338e+003
1.225932e+003, 2.217908e+003
1.226414e+003, 2.216330e+003
1.226896e+003, 2.212312e+003
1.227379e+003, 2.211329e+003
1.227861e+003, 2.212741e+003
1.228343e+003, 2.212761e+003
1.228825e+003, 2.210288e+003
1.229307e+003, 2.208202e+003
1.229789e+003, 2.208410e+003
1.230271e+003, 2.209068e+003
1.230753e+003, 2.209094e+003
1.231236e+003, 2.208873e+003
1.231718e+003, 2.209888e+003
1.232200e+003, 2.211824e+003
1.232682e+003, 2.213556e+003
1.233164e+003, 2.214923e+003
1.233646e+003, 2.215426e+003
1.234128e+003, 2.214222e+003
1.234610e+003, 2.212691e+003
1.235093e+003, 2.211317e+003
1.235575e+003, 2.210236e+003
1.236057e+003, 2.210156e+003
1.236539e+003, 2.210781e+003
1.237021e+003, 2.211033e+003
1.237503e+003, 2.210444e+003
1.237985e+003, 2.210173e+003
1.238467e+003, 2.211055e+003
1.238949e+003, 2.211844e+003
1.239432e+003, 2.211855e+003
1.239914e+003, 2.211461e+003
1.240396e+003, 2.212028e+003
1.240878e+003, 2.213121e+003
1.241360e+003, 2.213365e+003
1.241842e+003, 2.211742e+003
1.242324e+003, 2.211350e+003
1.242806e+003, 2.213956e+003
1.243288e+003, 2.216058e+003
1.243771e+003, 2.215664e+003
1.244253e+003, 2.213817e+003
1.244735e+003, 2.212624e+003
1.245217e+003, 2.212230e+003
1.245699e+003, 2.213046e+003
1.246181e+003, 2.215629e+003
1.246663e+003, 2.218326e+003
1.247145e+003, 2.221383e+003
1.247628e+003, 2.223595e+003
1.248110e+003, 2.224186e+003
1.248592e+003, 2.223640e+003
1.249074e+003, 2.222500e+003
1.249556e+003, 2.221112e+003
1.250038e+003, 2.220070e+003
1.250520e+003, 2.219373e+003
1.251002e+003, 2.219608e+003
1.251484e+003, 2.220910e+003
1.251967e+003, 2.222743e+003
1.252449e+003, 2.225503e+003
1.252931e+003, 2.227802e+003
1.253413e+003, 2.226462e+003
1.253895e+003, 2.223380e+003
1.254377e+003, 2.221947e+003
1.254859e+003, 2.223313e+003
1.255341e+003, 2.225286e+003
1.255823e+003, 2.228144e+003
1.256306e+003, 2.230197e+003
1.256788e+003, 2.229856e+003
1.257270e+003, 2.228868e+003
1.257752e+003, 2.229769e+003
1.258234e+003, 2.231323e+003
1.258716e+003, 2.231299e+003
1.259198e+003, 2.228791e+003
1.259680e+003, 2.228270e+003
1.260163e+003, 2.229963e+003
1.260645e+003, 2.231841e+003
1.261127e+003, 2.233624e+003
1.261609e+003, 2.234091e+003
1.262091e+003, 2.230567e+003
1.262573e+003, 2.225886e+003
1.263055e+003, 2.224157e+003
1.263537e+003, 2.225969e+003
1.264020e+003, 2.225944e+003
1.264502e+003, 2.224114e+003
1.264984e+003, 2.224543e+003
1.265466e+003, 2.232665e+003
1.265948e+003, 2.239864e+003
1.266430e+003, 2.239316e+003
1.266912e+003, 2.235428e+003
1.267394e+003, 2.233235e+003
1.267876e+003, 2.232783e+003
1.268359e+003, 2.232142e+003
1.268841e+003, 2.231345e+003
1.269323e+003, 2.230690e+003
1.269805e+003, 2.230489e+003
1.270287e+003, 2.230298e+003
1.270769e+003, 2.229329e+003
1.271251e+003, 2.228879e+003
1.271733e+003, 2.230642e+003
1.272215e+003, 2.234126e+003
1.272698e+003, 2.234911e+003
1.273180e+003, 2.233393e+003
1.273662e+003, 2.231302e+003
1.274144e+003, 2.228376e+003
1.274626e+003, 2.226530e+003
1.275108e+003, 2.226065e+003
1.275590e+003, 2.226748e+003
1.276072e+003, 2.229252e+003
1.276555e+003, 2.232604e+003
1.277037e+003, 2.232980e+003
1.277519e+003, 2.231270e+003
1.278001e+003, 2.230123e+003
1.278483e+003, 2.230827e+003
1.278965e+003, 2.231743e+003
1.279447e+003, 2.232911e+003
1.279929e+003, 2.233791e+003
1.280411e+003, 2.233901e+003
1.280894e+003, 2.233459e+003
1.281376e+003, 2.232296e+003
1.281858e+003, 2.231008e+003
1.282340e+003, 2.230974e+003
1.282822e+003, 2.233513e+003
1.283304e+003, 2.235204e+003
1.283786e+003, 2.235958e+003
1.284268e+003, 2.236379e+003
1.284750e+003, 2.236875e+003
1.285233e+003, 2.237291e+003
1.285715e+003, 2.236753e+003
1.286197e+003, 2.236269e+003
1.286679e+003, 2.237966e+003
1.287161e+003, 2.242938e+003
1.287643e+003, 2.245046e+003
1.288125e+003, 2.244156e+003
1.288607e+003, 2.243434e+003
1.289090e+003, 2.245612e+003
1.289572e+003, 2.247750e+003
1.290054e+003, 2.247269e+003
1.290536e+003, 2.245823e+003
1.291018e+003, 2.245602e+003
1.291500e+003, 2.246661e+003
1.291982e+003, 2.247174e+003
1.292464e+003, 2.247126e+003
1.292947e+003, 2.246408e+003
1.293429e+003, 2.244086e+003
1.293911e+003, 2.242336e+003
1.294393e+003, 2.242439e+003
1.294875e+003, 2.243372e+003
1.295357e+003, 2.244800e+003
1.295839e+003, 2.246429e+003
1.296321e+003, 2.246698e+003
1.296803e+003, 2.245968e+003
1.297286e+003, 2.245318e+003
1.297768e+003, 2.245184e+003
1.298250e+003, 2.245204e+003
1.298732e+003, 2.245187e+003
1.299214e+003, 2.245646e+003
1.299696e+003, 2.246990e+003
1.300178e+003, 2.248780e+003
1.300660e+003, 2.251079e+003
##END=



