##NAMES=Dickinsonite-(KMnNa)
##RRUFFID=R160070
##IDEAL CHEMISTRY=K(NaMn^2+^)CaNa_3_AlMn^2+^_13_(PO_4_)_12_(OH)_2_
##LOCALITY=Smith mine, Newport, New Hampshire, USA
##OWNER=UAMM
##SOURCE=Rock Currier
##DESCRIPTION=Pale yellowish green granular crystals, associated with muscovite and albite.
##STATUS=The identification of this mineral has been confirmed only by single crystal X-ray diffraction.
##URL=rruff.info/R160070
99.15314, 0.0000000E+00
99.63525, 1.240509
100.1174, 1.969360
100.5995, 2.025452
101.0816, 1.738831
101.5637, 0.6021120
102.0458, 6.8024002E-02
102.5280, 6.9977000E-02
103.0101, 0.4427190
103.4922, 0.8569030
103.9743, 1.364197
104.4564, 1.695129
104.9385, 3.447906
105.4207, 8.072144
105.9028, 12.44543
106.3849, 15.12592
106.8670, 16.02548
107.3491, 15.22266
107.8312, 11.99725
108.3134, 6.444550
108.7955, 2.302856
109.2776, 1.076752
109.7597, 1.515930
110.2418, 1.728790
110.7239, 1.643036
111.2061, 1.290161
111.6882, 1.031982
112.1703, 0.9865110
112.6524, 1.326141
113.1345, 2.126801
113.6166, 3.363434
114.0988, 4.310181
114.5809, 4.934235
115.0630, 5.167542
115.5451, 4.884766
116.0272, 4.164734
116.5093, 3.434845
116.9915, 3.272156
117.4736, 4.035187
117.9557, 4.087128
118.4378, 2.815979
118.9199, 1.199249
119.4020, 6.3660003E-02
119.8842, 0.2236020
120.3663, 0.1568600
120.8484, 0.7027590
121.3305, 0.8136290
121.8126, 1.524292
122.2947, 3.872803
122.7769, 6.586121
123.2590, 8.298859
123.7411, 8.387268
124.2232, 7.457947
124.7053, 6.615417
125.1874, 5.538116
125.6696, 5.383392
126.1517, 6.256653
126.6338, 7.458878
127.1159, 8.406113
127.5980, 9.115311
128.0801, 9.607147
128.5623, 9.923035
129.0444, 9.948959
129.5265, 9.889297
130.0086, 9.974472
130.4907, 10.36459
130.9728, 10.56215
131.4550, 9.992371
131.9371, 8.983994
132.4192, 7.948685
132.9013, 6.991745
133.3834, 6.108826
133.8655, 5.330902
134.3477, 4.566635
134.8298, 4.111755
135.3119, 4.237259
135.7940, 4.716278
136.2761, 5.144196
136.7582, 5.135788
137.2404, 4.632065
137.7225, 4.660324
138.2046, 6.278885
138.6867, 7.527939
139.1688, 7.706436
139.6509, 6.902206
140.1331, 5.625626
140.6152, 4.326233
141.0973, 2.954407
141.5794, 1.910294
142.0615, 1.149078
142.5436, 0.6557010
143.0258, 0.5217290
143.5079, 0.7295840
143.9900, 1.028198
144.4721, 1.043854
144.9542, 0.5624080
145.4363, 0.4376530
145.9185, 1.112503
146.4006, 1.964478
146.8827, 2.290070
147.3648, 1.853073
147.8469, 1.001465
148.3290, 0.1706240
148.8112, 0.7144170
149.2933, 1.249695
149.7754, 0.9513400
150.2575, 0.1259000
150.7396, 0.2183380
151.2217, 0.4362490
151.7039, 1.455765
152.1860, 2.085938
152.6681, 2.355652
153.1502, 2.246750
153.6323, 1.494797
154.1144, 5.6671001E-02
154.5966, 1.020004
155.0787, 1.259720
155.5608, 1.091400
156.0429, 0.7526860
156.5250, 0.2836760
157.0071, 0.4763950
157.4893, 0.5592350
157.9714, 0.4725800
158.4535, 0.4364930
158.9356, 0.3043370
159.4177, 0.3184510
159.8998, 0.8247830
160.3820, 1.953156
160.8641, 3.325180
161.3462, 3.971863
161.8283, 3.089905
162.3104, 2.578918
162.7925, 2.830292
163.2747, 3.462784
163.7568, 4.062836
164.2389, 4.433228
164.7210, 4.601685
165.2031, 4.671982
165.6852, 4.418045
166.1674, 4.295685
166.6495, 4.426758
167.1316, 4.743851
167.6137, 5.168320
168.0958, 5.670654
168.5779, 6.217438
169.0601, 6.584961
169.5422, 6.768860
170.0243, 6.827286
170.5064, 6.702087
170.9885, 6.448792
171.4706, 6.279114
171.9528, 6.405106
172.4349, 6.687683
172.9170, 6.588455
173.3991, 5.538010
173.8812, 4.539963
174.3633, 4.514374
174.8455, 5.488693
175.3276, 6.471481
175.8097, 6.759735
176.2918, 6.631561
176.7739, 6.595779
177.2560, 6.864365
177.7382, 7.188690
178.2203, 7.204147
178.7024, 6.809708
179.1845, 6.408936
179.6666, 6.158768
180.1487, 6.077316
180.6309, 6.224564
181.1130, 6.719238
181.5951, 7.379135
182.0772, 7.690842
182.5593, 7.437820
183.0414, 7.179306
183.5236, 7.120499
184.0057, 7.189316
184.4878, 7.291061
184.9699, 7.381104
185.4520, 7.445511
185.9341, 7.427505
186.4163, 7.278564
186.8984, 7.087921
187.3805, 6.707352
187.8626, 6.309525
188.3447, 6.207275
188.8268, 6.661240
189.3090, 7.643539
189.7911, 8.267654
190.2732, 8.383636
190.7553, 8.296387
191.2374, 7.806580
191.7195, 7.153702
192.2017, 6.849548
192.6838, 7.350159
193.1659, 8.717133
193.6480, 9.501678
194.1301, 9.403107
194.6122, 9.162506
195.0944, 8.989731
195.5765, 8.930878
196.0586, 9.037933
196.5407, 9.379562
197.0228, 9.956375
197.5049, 10.32085
197.9871, 10.16261
198.4692, 10.05396
198.9513, 10.47424
199.4334, 11.38431
199.9155, 12.22386
200.3976, 12.50620
200.8798, 12.26164
201.3619, 12.16071
201.8440, 12.27377
202.3261, 12.49512
202.8082, 12.86990
203.2903, 13.42943
203.7725, 13.72800
204.2546, 13.07869
204.7367, 11.83742
205.2188, 11.05565
205.7009, 11.19823
206.1830, 11.76729
206.6652, 12.15266
207.1473, 12.38396
207.6294, 12.44447
208.1115, 12.14561
208.5936, 11.66350
209.0757, 11.25078
209.5579, 10.98148
210.0400, 10.86484
210.5221, 10.94493
211.0042, 11.39059
211.4863, 11.74685
211.9685, 11.77714
212.4506, 11.57155
212.9327, 11.29203
213.4148, 10.99344
213.8969, 10.68114
214.3790, 10.37720
214.8612, 10.02706
215.3433, 9.813957
215.8254, 9.917145
216.3075, 10.14542
216.7896, 10.20284
217.2717, 9.879951
217.7539, 9.314529
218.2360, 9.131691
218.7181, 9.803329
219.2002, 10.22351
219.6823, 9.962662
220.1644, 9.328636
220.6466, 8.750359
221.1287, 8.486816
221.6108, 8.486588
222.0929, 8.454666
222.5750, 8.237297
223.0571, 8.157234
223.5393, 8.362946
224.0214, 8.724556
224.5035, 9.077980
224.9856, 9.330788
225.4677, 9.471367
225.9498, 9.442528
226.4320, 8.963585
226.9141, 8.628227
227.3962, 8.619606
227.8783, 8.799942
228.3604, 8.968109
228.8425, 9.014954
229.3247, 8.941658
229.8068, 8.746048
230.2889, 8.115822
230.7710, 7.729599
231.2531, 7.913017
231.7352, 8.412064
232.2174, 8.781036
232.6995, 8.775848
233.1816, 8.482666
233.6637, 8.273476
234.1458, 8.109192
234.6279, 8.051834
235.1101, 8.210754
235.5922, 8.482788
236.0743, 8.646996
236.5564, 8.575478
237.0385, 8.362892
237.5206, 8.330338
238.0028, 8.543152
238.4849, 8.788338
238.9670, 9.041000
239.4491, 9.277504
239.9312, 9.453651
240.4133, 9.567230
240.8955, 9.573853
241.3776, 9.325272
241.8597, 8.655228
242.3418, 8.175148
242.8239, 8.307625
243.3060, 8.850304
243.7882, 9.219940
244.2703, 9.151711
244.7524, 8.904366
245.2345, 8.952805
245.7166, 9.376198
246.1987, 9.668739
246.6809, 9.489136
247.1630, 8.966980
247.6451, 8.527107
248.1272, 8.322701
248.6093, 8.193092
249.0914, 7.935249
249.5736, 7.548309
250.0557, 7.151886
250.5378, 6.877228
251.0199, 6.674805
251.5020, 6.265259
251.9841, 5.377769
252.4663, 4.573387
252.9484, 4.356133
253.4305, 4.678978
253.9126, 5.136749
254.3947, 5.619675
254.8768, 6.078896
255.3590, 6.251228
255.8411, 5.995026
256.3232, 5.579796
256.8053, 5.179817
257.2874, 4.798439
257.7695, 4.439865
258.2516, 3.960724
258.7338, 3.448433
259.2159, 3.478241
259.6980, 4.499420
260.1801, 5.439819
260.6622, 5.682098
261.1443, 5.424316
261.6265, 5.105675
262.1086, 4.991173
262.5907, 5.026268
263.0728, 4.968788
263.5549, 4.798195
264.0370, 4.571182
264.5192, 4.236610
265.0013, 3.880051
265.4834, 3.666580
265.9655, 3.759338
266.4476, 4.007797
266.9297, 3.817429
267.4119, 2.777084
267.8940, 1.975136
268.3761, 1.905151
268.8582, 2.176468
269.3403, 2.285255
269.8224, 1.963036
270.3046, 1.394539
270.7867, 1.112572
271.2688, 1.337257
271.7509, 1.461983
272.2330, 1.259697
272.7151, 0.9546740
273.1973, 0.7778020
273.6794, 0.8246690
274.1615, 0.9997100
274.6436, 1.098656
275.1257, 1.078125
275.6078, 1.056564
276.0900, 1.064453
276.5721, 1.075615
277.0542, 1.088448
277.5363, 1.091766
278.0184, 1.037766
278.5005, 0.8678740
278.9827, 0.4353640
279.4648, 0.2826920
279.9469, 0.7139510
280.4290, 1.192108
280.9111, 1.270966
281.3932, 0.9188310
281.8754, 0.5217060
282.3575, 0.6644970
282.8396, 1.728722
283.3217, 2.209099
283.8038, 1.634224
284.2859, 0.9444270
284.7681, 0.6193390
285.2502, 0.6903690
285.7323, 0.9494780
286.2144, 1.230492
286.6965, 1.579094
287.1786, 1.585579
287.6608, 0.8336180
288.1429, 0.1760790
288.6250, 6.7139999E-03
289.1071, 0.2513350
289.5892, 0.6175230
290.0714, 0.8986590
290.5535, 1.103951
291.0356, 1.087166
291.5177, 0.4487000
291.9998, 1.4397000E-02
292.4819, 1.3832000E-02
292.9641, 0.3794100
293.4462, 0.7826000
293.9283, 1.040871
294.4104, 1.164253
294.8925, 1.190842
295.3746, 0.9400330
295.8568, 0.7048720
296.3389, 0.4895100
296.8210, 0.3406370
297.3031, 0.3115920
297.7852, 0.4235310
298.2673, 0.6515730
298.7495, 0.9409560
299.2316, 1.504494
299.7137, 1.867798
300.1958, 1.889320
300.6779, 1.746803
301.1600, 1.591118
301.6422, 1.480721
302.1243, 1.424706
302.6064, 1.440742
303.0885, 1.588104
303.5706, 1.703949
304.0527, 1.836212
304.5349, 1.917557
305.0170, 1.833977
305.4991, 1.597496
305.9812, 1.394005
306.4633, 1.487541
306.9454, 2.073463
307.4276, 2.330475
307.9097, 1.974037
308.3918, 1.565086
308.8739, 1.409668
309.3560, 1.490044
309.8381, 1.606956
310.3203, 1.585297
310.8024, 1.422501
311.2845, 1.403778
311.7666, 1.702698
312.2487, 1.949654
312.7308, 1.988258
313.2130, 1.871094
313.6951, 1.724098
314.1772, 1.624779
314.6593, 1.569481
315.1414, 1.543182
315.6235, 1.736565
316.1057, 1.735779
316.5878, 1.284401
317.0699, 0.6520770
317.5520, 0.2187120
318.0341, 0.1550450
318.5162, 0.3187790
318.9984, 0.3518830
319.4805, 2.2933999E-02
319.9626, 0.1307140
320.4447, 4.6310001E-03
320.9268, 0.2569430
321.4089, 0.4819490
321.8911, 0.6371920
322.3732, 0.7583080
322.8553, 0.9113010
323.3374, 1.187828
323.8195, 1.253395
324.3016, 0.9214170
324.7838, 0.5547180
325.2659, 0.3928380
325.7480, 0.4377750
326.2301, 0.5351180
326.7122, 0.5310820
327.1943, 0.4100270
327.6765, 0.3099670
328.1586, 0.1724620
328.6407, 0.1081620
329.1228, 0.2127380
329.6049, 0.4261780
330.0870, 0.6158600
330.5692, 0.6917190
331.0513, 0.6679230
331.5334, 0.6526110
332.0155, 0.7152020
332.4976, 0.7057420
332.9797, 0.5608750
333.4619, 0.3445050
333.9440, 5.2910000E-02
334.4261, 0.3155520
334.9082, 0.5711590
335.3904, 0.2031400
335.8725, 1.665596
336.3546, 2.765030
336.8367, 2.637276
337.3188, 2.022926
337.8009, 1.431534
338.2831, 1.014793
338.7652, 0.7199940
339.2473, 0.4871060
339.7294, 0.3206250
340.2115, 0.2044370
340.6936, 0.1638950
341.1758, 0.1475300
341.6579, 0.1549680
342.1400, 0.1649250
342.6221, 0.1225280
343.1042, 4.1655999E-02
343.5863, 0.3267900
344.0685, 0.4413150
344.5506, 0.1338500
345.0327, 9.6259996E-02
345.5148, 6.6811003E-02
345.9969, 0.1024860
346.4790, 0.1993940
346.9612, 9.9266000E-02
347.4433, 0.1138150
347.9254, 0.1513750
348.4075, 0.1841890
348.8896, 0.3713070
349.3717, 0.2357180
349.8539, 2.1360000E-03
350.3360, 0.1886750
350.8181, 0.2681120
351.3002, 0.2153700
351.7823, 8.8019997E-02
352.2644, 0.8293460
352.7466, 1.202446
353.2287, 0.7887800
353.7108, 0.3143230
354.1929, 0.1577840
354.6750, 0.3117070
355.1571, 0.5374830
355.6393, 0.6223300
356.1214, 0.5675810
356.6035, 0.5726470
357.0856, 0.7443470
357.5677, 0.8422390
358.0498, 0.7432170
358.5320, 0.5237200
359.0141, 0.3142470
359.4962, 0.1855390
359.9783, 0.1104350
360.4604, 1.4145000E-02
360.9425, 0.1255870
361.4247, 0.2349010
361.9068, 0.3064350
362.3889, 0.3328780
362.8710, 0.3144760
363.3531, 0.2521590
363.8352, 0.1127850
364.3174, 0.2082750
364.7995, 0.7445370
365.2816, 1.106598
365.7637, 1.189270
366.2458, 1.099518
366.7279, 0.8440780
367.2101, 0.4537660
367.6922, 8.0223002E-02
368.1743, 0.1881870
368.6564, 0.3556060
369.1385, 0.4250720
369.6206, 0.3450930
370.1028, 0.2702940
370.5849, 0.2907100
371.0670, 0.3779750
371.5491, 0.4921650
372.0312, 0.6408540
372.5133, 0.7887120
372.9955, 0.8521350
373.4776, 0.8141330
373.9597, 0.8760220
374.4418, 1.255028
374.9239, 1.696999
375.4060, 1.854218
375.8882, 1.639320
376.3703, 1.401390
376.8524, 1.402626
377.3345, 1.586708
377.8166, 1.701042
378.2987, 1.633598
378.7809, 1.602142
379.2630, 1.963997
379.7451, 2.659920
380.2272, 3.136108
380.7093, 2.947449
381.1914, 2.561050
381.6736, 2.685143
382.1557, 3.391472
382.6378, 4.055649
383.1199, 4.176704
383.6020, 3.874062
384.0841, 3.764061
384.5663, 3.967041
385.0484, 4.255592
385.5305, 4.500870
386.0126, 4.724869
386.4947, 5.002495
386.9768, 5.369507
387.4590, 5.797081
387.9411, 6.235382
388.4232, 6.703217
388.9053, 7.124313
389.3874, 7.475410
389.8695, 7.776115
390.3517, 8.037552
390.8338, 8.264542
391.3159, 8.467751
391.7980, 8.627052
392.2801, 8.705727
392.7622, 9.046776
393.2444, 9.986412
393.7265, 10.90238
394.2086, 11.41512
394.6907, 11.62120
395.1728, 11.81887
395.6549, 12.17410
396.1371, 12.66417
396.6192, 13.18591
397.1013, 13.64522
397.5834, 14.26086
398.0655, 15.26524
398.5476, 16.32278
399.0298, 17.06253
399.5119, 17.39991
399.9940, 17.56174
400.4761, 17.82656
400.9582, 18.15211
401.4403, 18.71394
401.9225, 19.68192
402.4046, 20.72575
402.8867, 21.84631
403.3688, 22.89709
403.8509, 23.58168
404.3330, 23.64489
404.8152, 23.24623
405.2973, 23.27111
405.7794, 24.13301
406.2615, 24.76752
406.7436, 24.86430
407.2257, 24.74263
407.7079, 24.71415
408.1900, 24.86552
408.6721, 25.05912
409.1542, 25.11248
409.6363, 24.99678
410.1184, 24.80751
410.6006, 24.60056
411.0827, 24.35701
411.5648, 24.03604
412.0469, 23.63174
412.5290, 23.17448
413.0111, 22.66935
413.4933, 22.14153
413.9754, 21.66007
414.4575, 21.23983
414.9396, 20.80859
415.4217, 20.28603
415.9038, 19.77164
416.3860, 19.38928
416.8681, 19.17988
417.3502, 19.04636
417.8323, 18.91629
418.3144, 18.78939
418.7965, 18.68456
419.2787, 18.66779
419.7608, 18.56616
420.2429, 18.06179
420.7250, 17.20058
421.2071, 16.61806
421.6892, 16.81467
422.1714, 17.26241
422.6535, 17.18745
423.1356, 16.54150
423.6177, 15.92262
424.0998, 15.77347
424.5819, 15.98095
425.0641, 15.97488
425.5462, 15.57043
426.0283, 15.17986
426.5104, 15.02557
426.9925, 14.99551
427.4746, 14.84550
427.9568, 14.48088
428.4389, 14.07240
428.9210, 13.89008
429.4031, 14.07363
429.8852, 14.08819
430.3673, 13.82587
430.8495, 13.47918
431.3316, 13.11195
431.8137, 12.76931
432.2958, 12.54409
432.7779, 12.50871
433.2600, 12.64471
433.7422, 12.80392
434.2243, 13.11946
434.7064, 13.29503
435.1885, 13.22503
435.6706, 13.02782
436.1527, 12.77005
436.6349, 12.49304
437.1170, 12.31606
437.5991, 12.46212
438.0812, 13.08057
438.5633, 13.46957
439.0454, 13.42438
439.5276, 13.33588
440.0097, 13.38471
440.4918, 13.51267
440.9739, 13.53378
441.4560, 13.27628
441.9381, 12.90826
442.4203, 12.98947
442.9024, 13.76424
443.3845, 14.33620
443.8666, 14.21120
444.3487, 13.90589
444.8308, 13.82870
445.3130, 14.05054
445.7951, 14.37251
446.2772, 14.68233
446.7593, 14.96619
447.2414, 15.11603
447.7235, 15.03577
448.2057, 14.99595
448.6878, 15.32555
449.1699, 15.85947
449.6520, 16.18822
450.1341, 16.01054
450.6162, 15.76670
451.0984, 15.97478
451.5805, 16.54326
452.0626, 16.87076
452.5447, 16.65694
453.0268, 16.15862
453.5089, 15.83868
453.9911, 15.69660
454.4732, 15.64197
454.9553, 15.72996
455.4374, 15.87843
455.9195, 15.98627
456.4016, 16.02010
456.8838, 16.02748
457.3659, 16.04545
457.8480, 16.07115
458.3301, 16.10783
458.8122, 16.23698
459.2943, 16.28338
459.7765, 16.09142
460.2586, 15.84045
460.7407, 15.79276
461.2228, 16.02911
461.7049, 16.37817
462.1870, 16.57629
462.6692, 16.55121
463.1513, 16.60323
463.6334, 16.80448
464.1155, 16.99131
464.5976, 17.11673
465.0797, 17.16637
465.5619, 17.11291
466.0440, 16.92014
466.5261, 16.65852
467.0082, 16.53181
467.4903, 16.58207
467.9724, 16.72639
468.4546, 17.09714
468.9367, 17.41872
469.4188, 17.40600
469.9009, 17.06516
470.3830, 16.75650
470.8651, 16.83708
471.3473, 17.17109
471.8294, 17.21906
472.3115, 16.85870
472.7936, 16.49660
473.2757, 16.41843
473.7578, 16.51952
474.2400, 16.62902
474.7221, 16.78103
475.2042, 16.84186
475.6863, 16.71399
476.1684, 16.42133
476.6505, 16.00163
477.1327, 15.43625
477.6148, 14.86262
478.0969, 14.43698
478.5790, 14.17408
479.0611, 14.02235
479.5432, 14.12628
480.0254, 14.21515
480.5075, 14.11386
480.9896, 13.84843
481.4717, 13.51699
481.9538, 13.16730
482.4359, 12.81177
482.9181, 12.48133
483.4002, 12.06054
483.8823, 11.84791
484.3644, 12.16566
484.8465, 12.44336
485.3286, 12.17523
485.8108, 11.40795
486.2929, 10.60119
486.7750, 10.14929
487.2571, 10.01204
487.7392, 9.813461
488.2213, 9.483723
488.7035, 9.208061
489.1856, 9.147545
489.6677, 9.099777
490.1498, 8.821419
490.6319, 8.252853
491.1140, 7.630627
491.5962, 7.202778
492.0783, 6.943150
492.5604, 6.648129
493.0425, 6.276146
493.5246, 5.908974
494.0067, 5.636520
494.4889, 5.412670
494.9710, 5.121613
495.4531, 4.633488
495.9352, 4.191399
496.4173, 4.066711
496.8994, 4.167423
497.3816, 4.142998
497.8637, 3.863327
498.3458, 3.461529
498.8279, 3.112606
499.3100, 2.817333
499.7921, 2.578747
500.2743, 2.431278
500.7564, 2.312634
501.2385, 2.190968
501.7206, 2.063019
502.2027, 1.931923
502.6848, 1.797791
503.1670, 1.668499
503.6491, 1.568420
504.1312, 1.482918
504.6133, 1.454910
505.0954, 1.643723
505.5775, 1.760822
506.0597, 1.509579
506.5418, 0.9644470
507.0239, 0.4998470
507.5060, 0.4388160
507.9881, 0.6861920
508.4702, 0.7821430
508.9524, 0.6669080
509.4345, 0.5347630
509.9166, 0.3661350
510.3987, 0.2582740
510.8808, 0.4029540
511.3629, 0.8323480
511.8451, 1.090569
512.3271, 0.6690710
512.8093, 0.1800500
513.2914, 0.7320980
513.7735, 0.8954960
514.2556, 0.8933640
514.7377, 0.8239360
515.2198, 0.7074130
515.7020, 0.6165810
516.1841, 0.5424580
516.6662, 0.5097920
517.1483, 0.5350650
517.6304, 0.6077730
518.1125, 0.7201080
518.5947, 0.8694420
519.0768, 1.033592
519.5589, 1.199135
520.0410, 1.376614
520.5231, 1.456882
521.0052, 1.420635
521.4874, 1.326012
521.9695, 1.168156
522.4516, 0.9705810
522.9337, 0.7268750
523.4158, 0.4412230
523.8979, 0.2196810
524.3801, 0.2750740
524.8622, 0.6966480
525.3443, 0.9256130
525.8264, 0.9295690
526.3085, 0.7399060
526.7906, 0.2077750
527.2728, 0.4753910
527.7549, 0.9484790
528.2370, 1.032421
528.7191, 0.9247930
529.2012, 0.8249320
529.6833, 0.7381320
530.1655, 0.7495190
530.6476, 0.8924710
531.1297, 1.119812
531.6118, 1.454651
532.0939, 1.871841
532.5760, 2.120899
533.0582, 1.924107
533.5403, 1.736683
534.0224, 1.957485
534.5045, 2.486614
534.9866, 3.024132
535.4688, 3.450844
535.9509, 3.738548
536.4330, 3.803841
536.9151, 3.427711
537.3972, 3.367016
537.8793, 3.883186
538.3615, 4.443611
538.8436, 4.753441
539.3257, 4.865711
539.8078, 4.938873
540.2899, 5.048321
540.7720, 5.240559
541.2542, 5.663876
541.7363, 6.413219
542.2184, 7.069279
542.7005, 7.527439
543.1826, 7.903709
543.6647, 8.194611
544.1469, 8.445770
544.6290, 8.813995
545.1111, 9.435825
545.5932, 10.17638
546.0753, 10.85077
546.5574, 11.45732
547.0396, 12.01877
547.5217, 12.53938
548.0038, 13.01878
548.4859, 13.46774
548.9680, 13.89438
549.4501, 14.24391
549.9323, 14.41561
550.4144, 14.57984
550.8965, 14.89622
551.3786, 15.33013
551.8607, 15.74693
552.3428, 16.07703
552.8250, 16.33139
553.3071, 16.53710
553.7892, 16.70429
554.2713, 16.80001
554.7534, 16.84565
555.2355, 16.81274
555.7177, 16.61614
556.1998, 16.32539
556.6819, 16.12962
557.1640, 16.17740
557.6461, 16.31162
558.1282, 16.13622
558.6104, 15.57991
559.0925, 15.18903
559.5746, 15.27777
560.0567, 15.39024
560.5388, 15.04105
561.0209, 14.30529
561.5031, 13.72205
561.9852, 13.68743
562.4673, 13.76051
562.9494, 13.38560
563.4315, 12.66949
563.9136, 12.16883
564.3958, 12.12667
564.8779, 12.35614
565.3600, 12.56670
565.8421, 12.79800
566.3242, 12.87318
566.8063, 12.67428
567.2885, 12.43183
567.7706, 12.23304
568.2527, 12.09591
568.7348, 12.03919
569.2169, 12.07079
569.6990, 12.16962
570.1812, 12.30605
570.6633, 12.47507
571.1454, 12.57642
571.6275, 12.56463
572.1096, 12.58668
572.5917, 12.79442
573.0739, 13.08988
573.5560, 13.22351
574.0381, 13.02997
574.5202, 12.76157
575.0023, 12.68790
575.4844, 12.78570
575.9666, 12.96955
576.4487, 13.25658
576.9308, 13.48952
577.4129, 13.44795
577.8950, 13.12640
578.3771, 13.01577
578.8593, 13.31338
579.3414, 13.64054
579.8235, 13.81105
580.3056, 13.90976
580.7877, 14.07071
581.2698, 14.33967
581.7520, 14.68520
582.2341, 15.07037
582.7162, 15.48950
583.1984, 15.80173
583.6805, 16.01465
584.1626, 16.14489
584.6447, 16.18419
585.1268, 16.17250
585.6089, 16.11929
586.0911, 16.02976
586.5732, 16.00027
587.0553, 16.08944
587.5374, 16.31007
588.0195, 16.82006
588.5016, 17.74141
588.9838, 18.37889
589.4659, 18.09573
589.9480, 17.25263
590.4301, 16.98463
590.9122, 17.66216
591.3943, 18.16456
591.8765, 18.02608
592.3586, 17.61948
592.8407, 17.21924
593.3228, 16.92846
593.8049, 16.95975
594.2870, 17.51876
594.7692, 18.45196
595.2513, 19.04075
595.7334, 19.08083
596.2155, 19.12502
596.6976, 19.27095
597.1797, 19.40781
597.6619, 19.39606
598.1440, 19.28805
598.6261, 19.31189
599.1082, 19.65728
599.5903, 20.16964
600.0724, 20.60641
600.5546, 20.96753
601.0367, 21.18288
601.5188, 21.20592
602.0009, 21.10946
602.4830, 20.97229
602.9651, 20.79702
603.4473, 20.56747
603.9294, 20.30466
604.4115, 19.96503
604.8936, 19.46300
605.3757, 18.87589
605.8578, 18.34906
606.3400, 17.93829
606.8221, 17.61402
607.3042, 17.34546
607.7863, 17.14692
608.2684, 16.91930
608.7505, 16.73080
609.2327, 16.42776
609.7148, 15.88729
610.1969, 15.24683
610.6790, 14.68087
611.1611, 14.23887
611.6432, 13.81527
612.1254, 13.24092
612.6075, 12.60759
613.0896, 12.27687
613.5717, 12.31987
614.0538, 12.29420
614.5359, 11.91875
615.0181, 11.29547
615.5002, 10.71416
615.9823, 10.14815
616.4644, 9.630932
616.9465, 9.218899
617.4286, 8.835175
617.9108, 8.285717
618.3929, 7.677654
618.8750, 7.458870
619.3571, 7.962730
619.8392, 8.789299
620.3214, 8.772781
620.8035, 7.501282
621.2856, 6.607521
621.7677, 6.561340
622.2498, 6.657223
622.7319, 6.538082
623.2141, 6.272766
623.6962, 6.080372
624.1783, 6.079983
624.6604, 6.115154
625.1425, 5.948898
625.6246, 5.692387
626.1068, 5.738064
626.5889, 6.182995
627.0710, 6.689724
627.5531, 6.989525
628.0352, 7.091549
628.5173, 7.184566
628.9995, 7.172482
629.4816, 7.279240
629.9637, 7.544300
630.4458, 7.925034
630.9279, 8.454136
631.4100, 9.100906
631.8922, 9.703922
632.3743, 10.09909
632.8564, 10.34779
633.3385, 10.72771
633.8206, 11.29585
634.3027, 11.78041
634.7849, 12.03225
635.2670, 12.24787
635.7491, 12.64179
636.2312, 13.19019
636.7133, 13.65721
637.1954, 13.87891
637.6776, 14.04734
638.1597, 14.43238
638.6418, 14.90479
639.1239, 15.07929
639.6060, 14.83351
640.0881, 14.47665
640.5703, 14.33006
641.0524, 14.37704
641.5345, 14.33970
642.0166, 14.24964
642.4987, 14.09080
642.9808, 13.87650
643.4630, 13.57694
643.9451, 13.12106
644.4272, 12.52073
644.9093, 11.94437
645.3914, 11.52952
645.8735, 11.23110
646.3557, 10.94613
646.8378, 10.66102
647.3199, 10.38816
647.8020, 10.15808
648.2841, 9.918873
648.7662, 9.575218
649.2484, 9.125668
649.7305, 8.587482
650.2126, 7.790829
650.6947, 7.079174
651.1768, 6.723267
651.6589, 6.563587
652.1411, 6.326035
652.6232, 5.907684
653.1053, 5.389149
653.5874, 4.824078
654.0695, 4.211811
654.5516, 3.843735
655.0338, 3.874657
655.5159, 3.842281
655.9980, 3.435444
656.4801, 2.919159
656.9622, 2.589184
657.4443, 2.480080
657.9265, 2.375412
658.4086, 2.178322
658.8907, 1.941402
659.3728, 1.670090
659.8549, 1.402798
660.3370, 1.299244
660.8192, 1.444092
661.3013, 1.677719
661.7834, 1.721497
662.2655, 1.535179
662.7476, 1.309074
663.2297, 0.8429870
663.7119, 0.5624470
664.1940, 0.7614670
664.6761, 1.147343
665.1582, 1.332748
665.6403, 1.216026
666.1224, 0.9922100
666.6046, 0.7631110
667.0867, 0.5582160
667.5688, 0.4609600
668.0509, 0.4790650
668.5330, 0.5432430
669.0151, 0.6510010
669.4973, 0.7338330
669.9794, 0.6391260
670.4615, 0.2639010
670.9436, 6.2600002E-03
671.4257, 8.6483002E-02
671.9078, 0.1387440
672.3900, 0.2952120
672.8721, 0.4712750
673.3542, 0.4982800
673.8363, 0.3201140
674.3184, 6.9495998E-02
674.8005, 0.1286430
675.2827, 0.2699850
675.7648, 0.2961850
676.2469, 0.1836400
676.7290, 2.5070000E-02
677.2111, 0.1938740
677.6932, 0.3939970
678.1754, 0.4400440
678.6575, 0.3139460
679.1396, 0.1445470
679.6217, 0.1131970
680.1038, 0.3391530
680.5859, 0.4520680
681.0681, 0.4589420
681.5502, 0.3688160
682.0323, 0.1894990
682.5144, 1.9985000E-02
682.9965, 0.1991770
683.4786, 0.3564910
683.9608, 0.3102190
684.4429, 0.1387440
684.9250, 0.4310230
685.4071, 0.2043150
685.8892, 0.2214090
686.3713, 0.5488050
686.8535, 0.7511790
687.3356, 0.8201410
687.8177, 0.6434900
688.2998, 0.4103890
688.7819, 0.3365060
689.2640, 0.3792300
689.7462, 0.3670200
690.2283, 0.2320180
690.7104, 4.8817001E-02
691.1925, 8.7357000E-02
691.6746, 0.1835750
692.1567, 0.1687810
692.6389, 6.7653999E-02
693.1210, 0.2659420
693.6031, 0.4042740
694.0852, 0.4482380
694.5673, 0.3191490
695.0494, 2.3143999E-02
695.5316, 0.2436830
696.0137, 0.4496650
696.4958, 0.5083770
696.9779, 0.1376110
697.4600, 0.5292400
697.9421, 0.8413810
698.4243, 0.5456120
698.9064, 3.4260001E-02
699.3885, 0.2085340
699.8706, 0.1602440
700.3527, 0.1408120
700.8348, 0.2215730
701.3170, 0.2424390
701.7991, 0.1382220
702.2812, 9.1669997E-03
702.7633, 0.1644590
703.2454, 0.2977640
703.7275, 0.3411060
704.2097, 0.2336240
704.6918, 2.7163999E-02
705.1739, 0.2367130
705.6560, 0.5427780
706.1381, 0.7820170
706.6202, 0.9250180
707.1024, 0.9922710
707.5845, 1.001369
708.0666, 0.9523350
708.5487, 0.8496280
709.0308, 0.5172920
709.5129, 0.3669510
709.9951, 0.6627960
710.4772, 1.009743
710.9593, 1.040134
711.4414, 0.7903560
711.9235, 0.5665470
712.4056, 0.5647580
712.8878, 0.6405640
713.3699, 0.5257150
713.8520, 0.2620580
714.3341, 0.1611330
714.8162, 0.2952080
715.2983, 0.5369530
715.7805, 0.8334660
716.2626, 1.150352
716.7447, 1.287373
717.2268, 1.101135
717.7089, 0.9544830
718.1910, 0.8951190
718.6732, 0.8676610
719.1553, 0.8601990
719.6374, 0.8489720
720.1195, 0.7639810
720.6016, 0.5533600
721.0837, 0.3787690
721.5659, 0.5303800
722.0480, 0.9319610
722.5301, 1.129040
723.0122, 1.043972
723.4943, 0.9722860
723.9764, 1.129353
724.4586, 1.387535
724.9407, 1.398537
725.4228, 0.9879340
725.9049, 0.7663800
726.3870, 0.9313850
726.8691, 1.126820
727.3513, 1.190159
727.8334, 1.138042
728.3155, 0.9865720
728.7976, 0.7487790
729.2797, 0.5483820
729.7618, 0.5317690
730.2440, 0.6557770
730.7261, 0.8108220
731.2082, 1.012383
731.6903, 1.106937
732.1724, 0.9770050
732.6545, 0.7851720
733.1367, 0.7995720
733.6188, 1.082451
734.1009, 1.210457
734.5830, 1.043217
735.0651, 0.8845020
735.5472, 0.8074680
736.0294, 0.8145870
736.5115, 0.9527510
736.9936, 1.195015
737.4757, 1.383045
737.9578, 1.364517
738.4399, 1.241673
738.9221, 1.227985
739.4042, 1.315620
739.8863, 1.388477
740.3684, 1.415573
740.8505, 1.419151
741.3326, 1.442833
741.8148, 1.488689
742.2969, 1.448109
742.7790, 1.183071
743.2611, 0.9841190
743.7432, 0.8369260
744.2253, 0.7749630
744.7075, 0.9287220
745.1896, 1.204422
745.6717, 1.340313
746.1538, 1.181438
746.6359, 0.9540250
747.1180, 0.9723210
747.6002, 1.158314
748.0823, 1.199028
748.5644, 1.054947
749.0465, 0.9449420
749.5286, 1.011189
750.0107, 1.161171
750.4929, 1.154900
750.9750, 0.8499260
751.4571, 0.7432710
751.9392, 1.080299
752.4213, 1.348251
752.9034, 1.240215
753.3856, 0.9900780
753.8677, 0.9657170
754.3498, 1.240437
754.8319, 1.484997
755.3140, 1.359398
755.7961, 1.066441
756.2783, 0.9644430
756.7604, 1.037418
757.2425, 1.073612
757.7246, 0.9997410
758.2067, 0.8147700
758.6888, 0.4642490
759.1710, 5.0388001E-02
759.6531, 0.1128120
760.1352, 0.7616200
760.6173, 1.333366
761.0994, 1.256584
761.5815, 0.9830130
762.0637, 0.8259430
762.5458, 0.7806660
763.0279, 0.6985090
763.5100, 0.4671550
763.9921, 0.2560580
764.4742, 0.2117650
764.9564, 0.2835730
765.4385, 0.4022370
765.9206, 0.5483970
766.4027, 0.6776240
766.8848, 0.7602650
767.3669, 0.8078460
767.8491, 0.8648490
768.3312, 0.9691240
768.8133, 0.9169270
769.2954, 0.4753380
769.7775, 0.2011530
770.2596, 0.5126110
770.7418, 1.044495
771.2239, 1.323574
771.7060, 1.284275
772.1881, 1.148827
772.6702, 0.9476090
773.1523, 0.7457890
773.6345, 0.5992050
774.1166, 0.4915920
774.5987, 0.3702390
775.0808, 0.2261660
775.5629, 0.1264570
776.0450, 0.1394580
776.5272, 0.2531280
777.0093, 0.4507140
777.4914, 0.7809790
777.9735, 0.9057690
778.4556, 0.6100230
778.9377, 0.2967910
779.4199, 0.3833430
779.9020, 0.7781560
780.3841, 1.018612
780.8662, 0.9967610
781.3483, 0.9520800
781.8304, 0.9132770
782.3126, 0.8982810
782.7947, 0.8997570
783.2768, 0.9364240
783.7589, 1.088081
784.2410, 1.399677
784.7231, 1.681156
785.2053, 1.655113
785.6874, 1.398964
786.1695, 1.219498
786.6516, 1.134972
787.1337, 1.054836
787.6158, 0.9237520
788.0980, 0.8244860
788.5801, 0.8988990
789.0622, 1.187378
789.5443, 1.384289
790.0264, 1.455730
790.5085, 1.479599
790.9907, 1.382816
791.4728, 1.312557
791.9549, 1.476788
792.4370, 1.816753
792.9191, 2.009205
793.4012, 1.832348
793.8834, 1.542400
794.3655, 1.287277
794.8476, 1.133144
795.3297, 1.321991
795.8118, 1.835972
796.2939, 2.232399
796.7761, 2.214966
797.2582, 1.934635
797.7403, 1.751015
798.2224, 1.692436
798.7045, 1.594669
799.1866, 1.356979
799.6688, 1.233204
800.1509, 1.498287
800.6330, 1.860657
801.1151, 1.906090
801.5972, 1.577278
802.0793, 1.427643
802.5615, 1.857819
803.0436, 2.255398
803.5257, 2.160259
804.0078, 1.822544
804.4899, 1.610744
804.9720, 1.597084
805.4542, 1.652485
805.9363, 1.677036
806.4184, 1.703922
806.9005, 1.853260
807.3826, 2.113400
807.8647, 2.207573
808.3469, 2.069603
808.8290, 1.843304
809.3111, 1.576073
809.7932, 1.324604
810.2753, 1.282413
810.7574, 1.567471
811.2396, 1.829716
811.7217, 2.100784
812.2038, 2.318451
812.6859, 2.456654
813.1680, 2.525677
813.6501, 2.521904
814.1323, 2.450047
814.6144, 2.378742
815.0965, 2.353348
815.5786, 2.373394
816.0607, 2.440033
816.5428, 2.514229
817.0250, 2.529411
817.5071, 2.494701
817.9892, 2.485428
818.4713, 2.550854
818.9534, 2.690998
819.4355, 2.884319
819.9177, 3.144321
820.3998, 3.346348
820.8819, 3.488411
821.3640, 3.531597
821.8461, 3.296253
822.3282, 3.009747
822.8104, 3.171230
823.2925, 3.964901
823.7746, 4.479229
824.2567, 4.310970
824.7388, 4.084263
825.2209, 4.080513
825.7031, 4.278412
826.1852, 4.735416
826.6673, 5.387295
827.1494, 5.839947
827.6315, 5.682270
828.1136, 5.217258
828.5958, 4.950626
829.0779, 4.891479
829.5600, 4.987843
830.0421, 5.214535
830.5242, 5.506130
831.0063, 5.859032
831.4885, 6.234043
831.9706, 6.436787
832.4527, 6.332458
832.9348, 6.343849
833.4169, 6.697575
833.8990, 6.936794
834.3812, 6.776081
834.8633, 6.446320
835.3454, 6.220356
835.8275, 6.129303
836.3096, 6.151318
836.7917, 6.481297
837.2739, 6.706081
837.7560, 6.438599
838.2381, 5.970226
838.7202, 5.692551
839.2023, 5.666088
839.6844, 5.770103
840.1666, 5.939899
840.6487, 6.138912
841.1308, 6.321468
841.6129, 6.480503
842.0950, 6.550159
842.5771, 6.517628
843.0593, 6.480171
843.5414, 6.497505
844.0235, 6.525425
844.5056, 6.479382
844.9877, 6.343884
845.4698, 6.213974
845.9520, 6.077072
846.4341, 5.963512
846.9162, 5.883202
847.3983, 5.826363
847.8804, 5.826649
848.3625, 5.854687
848.8447, 5.764652
849.3268, 5.426998
849.8089, 5.092552
850.2910, 4.820248
850.7731, 4.679665
851.2552, 4.851414
851.7374, 5.233971
852.2195, 5.520996
852.7016, 5.571232
853.1837, 5.448895
853.6658, 5.193348
854.1479, 4.832073
854.6301, 4.434483
855.1122, 3.997528
855.5943, 3.844250
856.0764, 4.155663
856.5585, 4.524487
857.0406, 4.503448
857.5228, 4.128830
858.0049, 3.817268
858.4870, 3.528507
858.9691, 3.378292
859.4512, 3.577950
859.9333, 3.709984
860.4155, 3.393566
860.8976, 2.901775
861.3797, 2.837860
861.8618, 3.421196
862.3439, 3.739574
862.8260, 3.061531
863.3082, 2.307709
863.7903, 2.348000
864.2724, 2.780193
864.7545, 2.840622
865.2366, 2.392330
865.7188, 1.843121
866.2009, 1.456501
866.6830, 1.256447
867.1651, 1.414398
867.6472, 1.842113
868.1293, 1.929111
868.6115, 1.570076
869.0936, 1.221390
869.5757, 1.151138
870.0578, 1.274769
870.5399, 1.457924
871.0220, 1.775387
871.5042, 1.754551
871.9863, 1.164116
872.4684, 0.6084980
872.9505, 0.1674420
873.4326, 8.1524000E-02
873.9147, 5.6519002E-02
874.3969, 0.5030820
874.8790, 0.7570230
875.3611, 0.6712340
875.8432, 0.4552120
876.3253, 6.9179997E-02
876.8074, 0.3218730
877.2896, 0.5856670
877.7717, 0.7323530
878.2538, 0.7992940
878.7359, 0.8017080
879.2180, 0.8129840
879.7001, 0.9383890
880.1823, 1.100121
880.6644, 1.116112
881.1465, 1.029945
881.6286, 1.047436
882.1107, 1.221001
882.5928, 1.441582
883.0750, 1.620453
883.5571, 1.758205
884.0392, 1.874043
884.5213, 1.994057
885.0034, 1.910534
885.4855, 1.480415
885.9677, 1.142319
886.4498, 1.197933
886.9319, 1.421192
887.4140, 1.408958
887.8961, 1.110695
888.3782, 0.9139980
888.8604, 0.9846880
889.3425, 0.9565050
889.8246, 0.5700110
890.3067, 0.1684380
890.7888, 0.1061860
891.2709, 0.3012580
891.7531, 0.4112320
892.2352, 0.3042680
892.7173, 0.1256870
893.1994, 2.3914000E-02
893.6815, 0.1917380
894.1636, 0.4467850
894.6458, 0.7672500
895.1279, 1.101349
895.6100, 1.426456
896.0921, 1.690876
896.5742, 1.830803
897.0563, 1.890896
897.5385, 2.029350
898.0206, 2.228878
898.5027, 2.216446
898.9848, 1.919582
899.4669, 1.688694
899.9490, 1.773903
900.4312, 2.029442
900.9133, 2.127956
901.3954, 2.053833
901.8775, 1.874405
902.3596, 1.401203
902.8417, 1.148502
903.3239, 1.543713
903.8060, 2.008335
904.2881, 1.896511
904.7702, 1.319633
905.2523, 1.010696
905.7344, 1.239964
906.2166, 1.473774
906.6987, 1.553486
907.1808, 1.624973
907.6629, 1.849918
908.1450, 2.125282
908.6271, 2.225674
909.1093, 2.099831
909.5914, 1.989376
910.0735, 1.992832
910.5556, 2.151958
911.0377, 2.646557
911.5198, 3.291912
912.0020, 3.664581
912.4841, 3.736923
912.9662, 3.815361
913.4483, 4.093063
913.9304, 4.483555
914.4125, 4.893723
914.8947, 5.303638
915.3768, 5.551388
915.8589, 5.626205
916.3410, 5.582630
916.8231, 5.397923
917.3052, 5.288013
917.7874, 5.545998
918.2695, 6.106522
918.7516, 6.303497
919.2337, 5.957272
919.7158, 5.680847
920.1979, 5.562862
920.6801, 5.484974
921.1622, 5.363403
921.6443, 5.248421
922.1264, 5.250023
922.6085, 5.401752
923.0906, 5.443275
923.5728, 5.220062
924.0549, 5.027039
924.5370, 4.929451
925.0191, 4.947811
925.5012, 5.094818
925.9833, 5.365116
926.4655, 5.778290
926.9476, 6.388859
927.4297, 6.932983
927.9118, 7.107800
928.3939, 7.217010
928.8760, 7.599350
929.3582, 8.198353
929.8403, 8.854973
930.3224, 9.508877
930.8045, 10.16190
931.2866, 10.84583
931.7687, 11.52074
932.2509, 11.97551
932.7330, 12.29433
933.2151, 13.01117
933.6972, 14.15578
934.1793, 15.11584
934.6614, 15.56986
935.1436, 15.81702
935.6257, 16.28742
936.1078, 16.97148
936.5899, 17.56231
937.0720, 18.00850
937.5541, 18.54699
938.0363, 19.23976
938.5184, 20.00241
939.0005, 20.77868
939.4826, 21.57039
939.9647, 22.42390
940.4468, 23.44795
940.9290, 24.21463
941.4111, 24.58176
941.8932, 24.89429
942.3753, 25.11174
942.8574, 25.43375
943.3395, 26.21489
943.8217, 27.31373
944.3038, 27.99755
944.7859, 27.80261
945.2680, 27.75950
945.7501, 28.32413
946.2322, 29.11385
946.7144, 29.96868
947.1965, 30.77799
947.6786, 31.39669
948.1607, 31.80847
948.6428, 32.18546
949.1249, 32.57328
949.6071, 33.05313
950.0892, 33.70223
950.5713, 34.51105
951.0534, 35.51438
951.5355, 36.65952
952.0176, 37.79703
952.4998, 38.85849
952.9819, 39.82432
953.4640, 40.71261
953.9461, 41.47751
954.4282, 41.79527
954.9103, 41.77944
955.3925, 42.41773
955.8746, 43.92404
956.3567, 45.46884
956.8388, 46.49282
957.3209, 47.12885
957.8030, 47.52103
958.2852, 47.57630
958.7673, 48.70086
959.2494, 51.38527
959.7315, 53.06650
960.2136, 52.54155
960.6957, 51.63152
961.1779, 52.11755
961.6600, 53.71350
962.1421, 54.88246
962.6242, 55.56359
963.1063, 55.93214
963.5884, 55.60279
964.0706, 55.44649
964.5527, 56.00483
965.0348, 56.74973
965.5169, 57.04461
965.9990, 56.91185
966.4811, 56.93082
966.9633, 57.22879
967.4454, 57.61404
967.9275, 57.98213
968.4096, 58.48658
968.8917, 59.27841
969.3738, 60.26072
969.8560, 61.25298
970.3381, 62.22632
970.8202, 63.35035
971.3023, 64.72015
971.7844, 66.25107
972.2665, 67.89409
972.7487, 69.65642
973.2308, 71.58965
973.7129, 73.63787
974.1950, 75.68534
974.6771, 77.68337
975.1592, 79.56435
975.6414, 81.28965
976.1235, 82.83090
976.6056, 84.14249
977.0877, 85.25142
977.5698, 86.16379
978.0519, 86.92170
978.5341, 87.72678
979.0162, 88.70486
979.4983, 89.67863
979.9804, 90.36270
980.4625, 90.82774
980.9446, 91.33649
981.4268, 91.89030
981.9089, 92.47568
982.3910, 93.08909
982.8731, 93.62605
983.3552, 94.01116
983.8373, 94.22568
984.3195, 94.17429
984.8016, 93.84171
985.2837, 93.56770
985.7658, 93.33772
986.2479, 93.36460
986.7300, 93.83909
987.2122, 94.24802
987.6943, 94.02857
988.1764, 93.31197
988.6585, 92.82961
989.1406, 92.69479
989.6227, 92.47377
990.1049, 92.21985
990.5870, 91.73167
991.0691, 90.70918
991.5512, 89.62309
992.0333, 89.10533
992.5154, 89.13612
992.9976, 88.94278
993.4797, 88.30620
993.9618, 87.76751
994.4439, 87.69592
994.9260, 87.35551
995.4081, 86.21320
995.8903, 84.69560
996.3724, 83.30914
996.8545, 82.09626
997.3366, 81.11304
997.8187, 80.70065
998.3008, 80.08302
998.7830, 78.90359
999.2651, 77.53960
999.7472, 76.27013
1000.229, 75.04204
1000.711, 73.72237
1001.194, 72.28238
1001.676, 70.66990
1002.158, 68.63280
1002.640, 66.68704
1003.122, 65.26675
1003.604, 64.02646
1004.086, 62.55708
1004.568, 60.88692
1005.050, 59.29811
1005.533, 57.90187
1006.015, 56.38734
1006.497, 54.34429
1006.979, 52.23503
1007.461, 50.48922
1007.943, 48.96944
1008.425, 47.55093
1008.907, 46.18285
1009.390, 44.82759
1009.872, 43.44309
1010.354, 41.93159
1010.836, 40.06842
1011.318, 38.15577
1011.800, 36.55056
1012.282, 35.25782
1012.764, 34.46634
1013.246, 34.09443
1013.729, 33.60004
1014.211, 32.69300
1014.693, 31.57207
1015.175, 30.38334
1015.657, 29.20668
1016.139, 28.36304
1016.621, 27.81108
1017.103, 27.19830
1017.586, 26.44182
1018.068, 25.73952
1018.550, 25.23694
1019.032, 24.79594
1019.514, 24.17115
1019.996, 23.40655
1020.478, 22.74600
1020.960, 22.16694
1021.442, 21.70774
1021.925, 21.40342
1022.407, 20.87174
1022.889, 19.80183
1023.371, 18.56696
1023.853, 17.95554
1024.335, 17.94865
1024.817, 17.45075
1025.299, 16.38513
1025.781, 15.52904
1026.264, 15.10201
1026.746, 14.78422
1027.228, 14.35863
1027.710, 13.83822
1028.192, 13.24428
1028.674, 12.56909
1029.156, 11.89883
1029.638, 11.19331
1030.120, 10.65460
1030.603, 10.41357
1031.085, 10.18166
1031.567, 9.715824
1032.049, 9.107052
1032.531, 8.612423
1033.013, 8.291267
1033.495, 7.783905
1033.977, 6.831459
1034.460, 6.277695
1034.942, 6.653927
1035.424, 7.025917
1035.906, 6.575340
1036.388, 5.591492
1036.870, 4.888927
1037.352, 4.526470
1037.834, 4.256428
1038.317, 4.183636
1038.799, 4.041508
1039.281, 3.657669
1039.763, 3.295372
1040.245, 3.204014
1040.727, 3.281311
1041.209, 3.226845
1041.691, 2.992329
1042.173, 2.781475
1042.656, 2.605843
1043.138, 2.438713
1043.620, 2.278851
1044.102, 2.119720
1044.584, 1.974464
1045.066, 1.822769
1045.548, 1.593296
1046.030, 1.223839
1046.512, 1.008072
1046.995, 1.204334
1047.477, 1.257347
1047.959, 0.8828960
1048.441, 0.4133450
1048.923, 7.2933003E-02
1049.405, 0.1456220
1049.887, 0.3021160
1050.369, 0.4185560
1050.852, 0.3934520
1051.334, 3.2257002E-02
1051.816, 0.2430570
1052.298, 0.2128220
1052.780, 0.1076280
1053.262, 0.1403430
1053.744, 0.2412220
1054.226, 0.2328150
1054.708, 8.3080001E-02
1055.191, 0.1482430
1055.673, 0.6510390
1056.155, 0.9653850
1056.637, 0.7174190
1057.119, 0.3860210
1057.601, 0.4004900
1058.083, 0.6319350
1058.565, 0.7591740
1059.047, 0.7176900
1059.530, 0.6477090
1060.012, 0.4595530
1060.494, 0.4268840
1060.976, 0.9367940
1061.458, 1.399414
1061.940, 1.161423
1062.422, 0.5671770
1062.904, 0.3671650
1063.387, 0.7022360
1063.869, 1.013596
1064.351, 1.146763
1064.833, 1.143688
1065.315, 0.8823930
1065.797, 0.6234510
1066.279, 0.6514360
1066.761, 0.8125920
1067.244, 0.7588120
1067.726, 0.4512750
1068.208, 0.3093030
1068.690, 0.7007680
1069.172, 1.027065
1069.654, 0.9680370
1070.136, 0.7813680
1070.618, 0.6340030
1071.100, 0.5243070
1071.583, 0.4293400
1072.065, 0.3408550
1072.547, 0.2318990
1073.029, 1.0334000E-02
1073.511, 9.3814999E-02
1073.993, 0.2145000
1074.475, 0.4961200
1074.957, 0.3677900
1075.439, 1.3599000E-02
1075.922, 0.3490330
1076.404, 0.6440390
1076.886, 0.7163310
1077.368, 0.3669130
1077.850, 0.1105160
1078.332, 0.2843820
1078.814, 0.5337910
1079.297, 0.6774440
1079.779, 0.6906010
1080.261, 0.4450000
1080.743, 4.2080000E-02
1081.225, 7.1156003E-02
1081.707, 0.3515280
1082.189, 0.7451290
1082.671, 0.8482020
1083.153, 0.8433530
1083.635, 0.7813150
1084.118, 0.7246550
1084.600, 0.7459950
1085.082, 0.8313060
1085.564, 0.9148560
1086.046, 0.9771270
1086.528, 1.042618
1087.010, 1.164402
1087.492, 1.241585
1087.975, 1.150841
1088.457, 1.042179
1088.939, 1.066303
1089.421, 1.201378
1089.903, 1.369640
1090.385, 1.558025
1090.867, 1.715008
1091.349, 1.852989
1091.832, 1.913597
1092.314, 1.735035
1092.796, 1.591087
1093.278, 1.816223
1093.760, 2.212994
1094.242, 2.356041
1094.724, 2.178345
1095.206, 2.069283
1095.688, 2.136341
1096.171, 2.315685
1096.653, 2.824955
1097.135, 3.191460
1097.617, 2.900742
1098.099, 2.358532
1098.581, 2.186710
1099.063, 2.425220
1099.545, 2.672588
1100.027, 2.883606
1100.510, 3.007957
1100.992, 2.973671
1101.474, 2.917706
1101.956, 2.838490
1102.438, 2.831207
1102.920, 3.091217
1103.402, 3.539951
1103.884, 3.759884
1104.367, 3.581970
1104.849, 3.433514
1105.331, 3.372398
1105.813, 3.373394
1106.295, 3.472084
1106.777, 3.589939
1107.259, 3.674591
1107.741, 3.716816
1108.224, 3.674957
1108.706, 3.480282
1109.188, 3.485245
1109.670, 3.899971
1110.152, 4.255219
1110.634, 4.423512
1111.116, 4.520241
1111.598, 4.657928
1112.080, 4.763981
1112.563, 4.639946
1113.045, 4.230431
1113.527, 4.072586
1114.009, 4.390961
1114.491, 4.617912
1114.973, 4.734837
1115.455, 4.686985
1115.937, 4.321064
1116.419, 3.881763
1116.902, 3.703899
1117.384, 3.765736
1117.866, 3.786263
1118.348, 3.722404
1118.830, 3.670982
1119.312, 3.646152
1119.794, 3.657005
1120.276, 3.751240
1120.759, 3.800510
1121.241, 3.618694
1121.723, 3.319824
1122.205, 3.344025
1122.687, 3.836456
1123.169, 3.988518
1123.651, 3.657288
1124.133, 3.490765
1124.615, 3.694847
1125.098, 3.891548
1125.580, 3.811962
1126.062, 3.599522
1126.544, 3.530842
1127.026, 3.603939
1127.508, 3.533165
1127.990, 3.290485
1128.472, 3.237831
1128.954, 3.456921
1129.437, 3.685394
1129.919, 3.788692
1130.401, 3.847168
1130.883, 4.001007
1131.365, 4.160839
1131.847, 3.765755
1132.329, 2.862316
1132.811, 2.796116
1133.294, 3.652328
1133.776, 4.329552
1134.258, 4.452538
1134.740, 4.308704
1135.222, 4.100788
1135.704, 3.913074
1136.186, 3.979343
1136.668, 4.226067
1137.151, 4.417351
1137.633, 4.511715
1138.115, 4.226898
1138.597, 3.586487
1139.079, 3.278748
1139.561, 3.715794
1140.043, 4.351063
1140.525, 4.536163
1141.007, 4.440868
1141.490, 4.347607
1141.972, 4.284882
1142.454, 4.337227
1142.936, 4.484299
1143.418, 4.640221
1143.900, 4.762360
1144.382, 4.768188
1144.864, 4.519760
1145.346, 4.280136
1145.829, 4.439522
1146.311, 4.688828
1146.793, 4.556404
1147.275, 4.240833
1147.757, 4.219379
1148.239, 4.495050
1148.721, 4.646643
1149.203, 4.478230
1149.686, 4.200775
1150.168, 3.799702
1150.650, 3.505213
1151.132, 3.579998
1151.614, 3.789125
1152.096, 3.900764
1152.578, 3.907560
1153.060, 3.826221
1153.542, 3.657879
1154.025, 3.600227
1154.507, 3.899002
1154.989, 4.071674
1155.471, 3.863972
1155.953, 3.568108
1156.435, 3.319443
1156.917, 3.132923
1157.399, 3.008846
1157.881, 2.947584
1158.364, 2.961493
1158.846, 3.129826
1159.328, 3.229439
1159.810, 3.227871
1160.292, 3.183338
1160.774, 3.169254
1161.256, 3.051531
1161.738, 2.628990
1162.221, 2.074425
1162.703, 1.816334
1163.185, 1.895931
1163.667, 1.931736
1164.149, 1.945957
1164.631, 1.836452
1165.113, 1.519320
1165.595, 1.287142
1166.078, 1.308586
1166.560, 1.429045
1167.042, 1.459846
1167.524, 1.419226
1168.006, 1.376781
1168.488, 1.328735
1168.970, 1.444101
1169.452, 1.744024
1169.934, 1.694702
1170.417, 1.131716
1170.899, 0.5662100
1171.381, 0.3715020
1171.863, 0.4032540
1172.345, 0.4579390
1172.827, 0.5249960
1173.309, 0.5555820
1173.791, 0.5675580
1174.273, 0.6660670
1174.756, 0.8304290
1175.238, 0.8761040
1175.720, 0.7368240
1176.202, 0.5606860
1176.684, 0.4641690
1177.166, 0.4234280
1177.648, 0.4554180
1178.130, 0.4864670
1178.613, 0.3338360
1179.095, 0.1191100
1179.577, 0.1740720
1180.059, 0.4635600
1180.541, 0.5584530
1181.023, 0.2364640
1181.505, 5.8566999E-02
1181.987, 1.8778000E-02
1182.469, 9.4694003E-02
1182.952, 0.1238440
1183.434, 0.1306820
1183.916, 0.1477510
1184.398, 0.2020050
1184.880, 0.3988650
1185.362, 0.7389620
1185.844, 0.8692700
1186.326, 0.4284320
1186.808, 0.2061000
1187.291, 0.6601200
1187.773, 0.9606760
1188.255, 0.5082700
1188.737, 5.7434000E-02
1189.219, 0.1123640
1189.701, 0.2048150
1190.183, 0.4773410
1190.665, 0.7122330
1191.148, 0.8778760
1191.630, 1.012119
1192.112, 0.9458940
1192.594, 0.5658530
1193.076, 0.2309670
1193.558, 0.1182140
1194.040, 0.1713370
1194.522, 0.3636050
1195.005, 0.6216130
1195.487, 0.6043400
1195.969, 0.3247970
1196.451, 0.1122610
1196.933, 1.5791001E-02
1197.415, 0.1127150
1197.897, 0.1855740
1198.379, 3.6966000E-02
1198.861, 0.4798370
1199.344, 0.9798320
1199.826, 0.8397870
1200.308, 0.3837010
1200.790, 0.3004070
1201.272, 0.4181330
1201.754, 0.2836950
1202.236, 8.0509996E-03
1202.718, 4.9033999E-02
1203.200, 0.5336630
1203.683, 0.8753810
1204.165, 0.6822530
1204.647, 0.3915120
1205.129, 0.2676140
1205.611, 0.2538810
1206.093, 0.3743440
1206.575, 0.5241810
1207.057, 0.5207210
1207.540, 0.4492720
1208.022, 0.6501140
1208.504, 1.238232
1208.986, 1.452469
1209.468, 0.6626800
1209.950, 0.1554720
1210.432, 0.4586160
1210.914, 0.8148160
1211.396, 0.8439790
1211.879, 0.7340090
1212.361, 0.6646610
1212.843, 0.6351720
1213.325, 0.5809670
1213.807, 0.5093940
1214.289, 0.4030480
1214.771, 0.2123760
1215.253, 0.2182180
1215.735, 0.5237010
1216.218, 0.7915800
1216.700, 0.8405610
1217.182, 0.7536390
1217.664, 0.6036850
1218.146, 0.4478150
1218.628, 0.5259900
1219.110, 0.7651750
1219.592, 0.7256890
1220.075, 0.4624440
1220.557, 0.4488110
1221.039, 0.7350370
1221.521, 0.8208290
1222.003, 0.4090810
1222.485, 2.2402000E-02
1222.967, 1.5095000E-02
1223.449, 0.2749560
1223.932, 0.5724120
1224.414, 0.8484310
1224.896, 1.076527
1225.378, 1.218672
1225.860, 1.099653
1226.342, 0.7540490
1226.824, 0.5145280
1227.306, 0.5054300
1227.788, 0.5952190
1228.271, 0.8737160
1228.753, 1.057636
1229.235, 0.9037800
1229.717, 0.7127780
1230.199, 0.7347030
1230.681, 0.8939670
1231.163, 1.077192
1231.645, 1.300020
1232.127, 1.243916
1232.610, 0.7696720
1233.092, 0.5481050
1233.574, 0.6999930
1234.056, 0.7589610
1234.538, 0.5468940
1235.020, 0.2897280
1235.502, 0.1447330
1235.984, 0.1497500
1236.467, 0.6356200
1236.949, 1.363480
1237.431, 1.202871
1237.913, 0.3862150
1238.395, 5.3599998E-03
1238.877, 9.8433003E-02
1239.359, 0.3879390
1239.841, 0.7118150
1240.323, 0.8091810
1240.806, 0.5056550
1241.288, 0.2948950
1241.770, 0.8754330
1242.252, 1.510365
1242.734, 1.364815
1243.216, 0.9232410
1243.698, 0.6590790
1244.180, 0.5899490
1244.662, 0.6794890
1245.145, 0.8944740
1245.627, 1.018763
1246.109, 0.9196870
1246.591, 0.8337990
1247.073, 0.8603880
1247.555, 0.8689020
1248.037, 0.7573910
1248.519, 0.6985910
1249.002, 0.9037300
1249.484, 1.159174
1249.966, 0.9714980
1250.448, 0.3816740
1250.930, 0.2653940
1251.412, 0.6765790
1251.894, 0.9447990
1252.376, 1.018463
1252.859, 0.9633830
1253.341, 0.8431340
1253.823, 0.6909500
1254.305, 0.5215360
1254.787, 0.3454860
1255.269, 0.1181200
1255.751, 2.0989999E-02
1256.233, 0.3150310
1256.715, 0.8261530
1257.198, 0.9079530
1257.680, 0.6739010
1258.162, 0.5586260
1258.644, 0.6365870
1259.126, 0.6466790
1259.608, 0.4609760
1260.090, 0.3766230
1260.572, 0.6485540
1261.054, 0.8469030
1261.537, 0.6894380
1262.019, 0.4467680
1262.501, 0.2903080
1262.983, 0.2470170
1263.465, 0.4146560
1263.947, 0.7504900
1264.429, 0.8771320
1264.911, 0.7093240
1265.394, 0.6340370
1265.876, 0.6911680
1266.358, 0.6359060
1266.840, 0.3712600
1267.322, 0.2620640
1267.804, 0.5081210
1268.286, 0.8201070
1268.768, 0.8542370
1269.250, 0.6593860
1269.733, 0.2606850
1270.215, 0.1635680
1270.697, 1.0139000E-02
1271.179, 0.5366040
1271.661, 0.6537130
1272.143, 0.3636910
1272.625, 0.2380660
1273.107, 0.4968660
1273.589, 0.7558020
1274.072, 0.7783010
1274.554, 0.7286910
1275.036, 0.6493300
1275.518, 0.5686440
1276.000, 0.4239860
1276.482, 0.2096250
1276.964, 0.3610990
1277.446, 0.6727390
1277.929, 0.6103020
1278.411, 0.1198310
1278.893, 2.0261999E-02
1279.375, 0.3283960
1279.857, 0.5017620
1280.339, 0.4039710
1280.821, 0.1297400
1281.303, 4.3598000E-02
1281.786, 1.7607000E-02
1282.268, 0.0000000E+00
##END=



