##NAMES=Dondoellite
##RRUFFID=R140175
##IDEAL CHEMISTRY=Ca_2_Fe^2+^(PO_4_)_2_&#183;2H_2_O
##LOCALITY=Messel mine, Messel, Darmstadt, Hesse, Germany
##OWNER=RRUFF
##SOURCE=Rock Currier
##DESCRIPTION=Pale greenish white hemispherical or sheaflike aggregates of lamellar crystals, associated with anapaite (R141081). The cell parameters do not match messelite, but may be a related phase, perhaps a polytype. Needs more work.
##STATUS=The identification of this mineral is confirmed by single-crystal X-ray diffraction and chemical analysis.
##URL=rruff.info/R140175
##MEASURED CHEMISTRY=Ca_1.98_(Fe_0.88_Mg_0.09_)(P_1.01_O_4_)_2_Â·2H_2_O ; trace amount of Mn
141.1696, 0.0000000E+00
141.6517, 2.437988
142.1338, 2.7344000E-02
142.6159, 9.9120997E-02
143.0980, 4.978516
143.5802, 14.35889
144.0623, 17.99805
144.5444, 13.17285
145.0265, 6.085938
145.5086, 1.623047
145.9907, 1.188965
146.4729, 1.240723
146.9550, 1.738770
147.4371, 2.652344
147.9192, 2.729492
148.4013, 1.185547
148.8834, 0.4360350
149.3656, 0.6733400
149.8477, 1.999512
150.3298, 4.186035
150.8119, 5.130371
151.2940, 4.586914
151.7761, 3.699707
152.2583, 1.149902
152.7404, 1.358887
153.2225, 1.997559
153.7046, 0.9589840
154.1867, 4.466797
154.6688, 7.978027
155.1510, 11.74854
155.6331, 15.00830
156.1152, 16.18994
156.5973, 17.23975
157.0794, 20.71191
157.5615, 24.72363
158.0437, 33.43799
158.5258, 49.79590
159.0079, 76.83154
159.4900, 103.2466
159.9721, 122.9453
160.4542, 140.0654
160.9364, 161.8481
161.4185, 195.8599
161.9006, 231.5820
162.3827, 262.8140
162.8648, 286.9136
163.3469, 310.0859
163.8291, 341.0288
164.3112, 373.3833
164.7933, 393.2314
165.2754, 394.4805
165.7575, 380.8018
166.2396, 352.8506
166.7218, 304.1646
167.2039, 253.7642
167.6860, 212.5332
168.1681, 179.3203
168.6502, 149.0220
169.1323, 117.1890
169.6145, 87.98389
170.0966, 66.25781
170.5787, 55.81299
171.0608, 49.05273
171.5429, 37.62549
172.0250, 23.29102
172.5072, 14.78223
172.9893, 20.63525
173.4714, 34.57373
173.9535, 48.14941
174.4356, 59.17334
174.9177, 68.77539
175.3999, 76.85352
175.8820, 83.93994
176.3641, 93.50000
176.8462, 108.3696
177.3283, 127.6968
177.8104, 149.9746
178.2926, 174.5410
178.7747, 201.8403
179.2568, 233.7920
179.7389, 269.9590
180.2210, 306.8037
180.7031, 342.5879
181.1853, 376.3984
181.6674, 404.9536
182.1495, 427.5010
182.6316, 443.8247
183.1137, 453.0210
183.5958, 455.1548
184.0780, 450.1367
184.5601, 436.0137
185.0422, 414.1099
185.5243, 388.8994
186.0064, 359.8174
186.4885, 329.0654
186.9707, 303.5483
187.4528, 283.3408
187.9349, 265.5957
188.4170, 248.6714
188.8991, 232.7236
189.3812, 214.6030
189.8634, 192.5200
190.3455, 169.0303
190.8276, 153.6235
191.3097, 145.0986
191.7918, 140.0122
192.2739, 134.7935
192.7561, 129.4219
193.2382, 126.3442
193.7203, 127.3862
194.2024, 131.4688
194.6845, 133.3320
195.1666, 132.9468
195.6488, 129.6465
196.1309, 120.3994
196.6130, 104.4487
197.0951, 92.61182
197.5772, 90.04590
198.0593, 95.86572
198.5415, 97.83301
199.0236, 95.39844
199.5057, 91.31885
199.9878, 88.61328
200.4699, 87.48242
200.9520, 87.76611
201.4342, 89.17090
201.9163, 91.91455
202.3984, 98.37061
202.8805, 109.2886
203.3626, 122.8740
203.8447, 136.2139
204.3269, 148.6533
204.8090, 164.4814
205.2911, 186.2222
205.7732, 214.1260
206.2553, 238.1104
206.7375, 256.9512
207.2196, 273.3696
207.7017, 292.2070
208.1838, 315.3262
208.6659, 333.5498
209.1480, 342.9614
209.6302, 343.0342
210.1123, 341.1465
210.5944, 337.4678
211.0765, 331.3867
211.5586, 321.3125
212.0407, 305.4575
212.5229, 290.3359
213.0050, 278.0767
213.4871, 268.9023
213.9692, 260.4570
214.4513, 252.6387
214.9334, 245.6606
215.4156, 240.2222
215.8977, 237.6221
216.3798, 233.3799
216.8619, 225.1934
217.3440, 212.1680
217.8261, 203.3945
218.3083, 200.6055
218.7904, 200.5376
219.2725, 198.7886
219.7546, 195.1284
220.2367, 190.5518
220.7188, 185.2212
221.2010, 179.0259
221.6831, 173.0820
222.1652, 166.4004
222.6473, 161.0269
223.1294, 160.4165
223.6115, 167.5562
224.0937, 173.5830
224.5758, 176.2090
225.0579, 175.1099
225.5400, 172.5425
226.0221, 167.8008
226.5042, 162.1909
226.9864, 157.8872
227.4685, 157.0684
227.9506, 153.1133
228.4327, 143.2021
228.9148, 126.0010
229.3969, 111.7280
229.8791, 100.6411
230.3612, 92.04541
230.8433, 85.66016
231.3254, 83.80127
231.8075, 79.52734
232.2896, 69.91943
232.7718, 53.96240
233.2539, 42.61328
233.7360, 39.06348
234.2181, 37.51514
234.7002, 30.77881
235.1823, 14.22559
235.6645, 1.261230
236.1466, 3.777832
236.6287, 0.1435550
237.1108, 0.5815430
237.5929, 3.933105
238.0750, 10.33057
238.5572, 15.73730
239.0393, 20.96533
239.5214, 23.43262
240.0035, 22.56494
240.4856, 18.25488
240.9677, 11.35352
241.4499, 0.8730470
241.9320, 11.14746
242.4141, 23.44873
242.8962, 38.35352
243.3783, 48.42383
243.8604, 49.29395
244.3426, 40.84229
244.8247, 42.62109
245.3068, 62.38965
245.7889, 83.81445
246.2710, 92.41309
246.7531, 81.17090
247.2353, 70.82227
247.7174, 65.34912
248.1995, 64.38184
248.6816, 59.61230
249.1637, 49.13379
249.6458, 37.43945
250.1280, 28.23438
250.6101, 22.58496
251.0922, 17.63721
251.5743, 13.16016
252.0564, 9.312500
252.5385, 6.701660
253.0207, 5.833496
253.5028, 5.692871
253.9849, 5.001953
254.4670, 1.782715
254.9491, 2.759766
255.4312, 10.10059
255.9134, 22.14697
256.3955, 30.90234
256.8776, 34.51367
257.3597, 37.13037
257.8418, 42.06201
258.3239, 52.23926
258.8061, 55.76172
259.2882, 48.46582
259.7703, 34.28125
260.2524, 28.89795
260.7345, 36.34619
261.2166, 45.39209
261.6988, 49.93018
262.1809, 48.46094
262.6630, 47.68750
263.1451, 48.32373
263.6272, 49.94727
264.1093, 51.12012
264.5915, 51.93115
265.0736, 52.64697
265.5557, 54.09814
266.0378, 57.36279
266.5199, 56.45312
267.0020, 48.85059
267.4842, 39.04248
267.9663, 37.29590
268.4484, 46.02002
268.9305, 55.56738
269.4126, 60.53906
269.8947, 59.16016
270.3769, 64.91943
270.8590, 80.74707
271.3411, 99.72070
271.8232, 108.5190
272.3053, 103.9053
272.7874, 101.0352
273.2696, 107.5254
273.7517, 124.2153
274.2338, 130.8882
274.7159, 124.1768
275.1980, 114.2446
275.6801, 115.2241
276.1623, 128.8589
276.6444, 142.6689
277.1265, 152.4155
277.6086, 158.7783
278.0907, 168.0854
278.5728, 181.5142
279.0550, 195.3320
279.5371, 204.8682
280.0192, 209.7773
280.5013, 214.7061
280.9834, 221.0679
281.4655, 228.7495
281.9477, 236.6074
282.4298, 244.3594
282.9119, 253.1191
283.3940, 264.9258
283.8761, 279.7334
284.3582, 293.7437
284.8404, 306.2197
285.3225, 317.1553
285.8046, 327.7539
286.2867, 338.2505
286.7688, 344.6846
287.2509, 339.9180
287.7331, 325.7593
288.2152, 316.9834
288.6973, 317.2090
289.1794, 322.4502
289.6615, 325.8550
290.1436, 327.4468
290.6258, 324.8281
291.1079, 315.0879
291.5900, 299.5254
292.0721, 282.8047
292.5542, 264.7822
293.0363, 247.7251
293.5185, 237.5439
294.0006, 232.9795
294.4827, 226.0269
294.9648, 207.7686
295.4469, 182.6675
295.9290, 165.1045
296.4112, 157.7593
296.8933, 152.1567
297.3754, 135.9531
297.8575, 112.3721
298.3396, 92.58789
298.8217, 84.72656
299.3039, 83.85547
299.7860, 80.46631
300.2681, 73.93311
300.7502, 67.16650
301.2323, 64.33105
301.7144, 63.66504
302.1966, 60.57910
302.6787, 49.32910
303.1608, 37.27539
303.6429, 35.16895
304.1250, 42.41748
304.6071, 49.61621
305.0893, 46.44531
305.5714, 38.74805
306.0535, 36.41748
306.5356, 47.64746
307.0177, 60.70459
307.4998, 64.53955
307.9820, 60.35156
308.4641, 54.14893
308.9462, 44.88135
309.4283, 37.55273
309.9104, 38.85986
310.3925, 55.03857
310.8747, 71.67188
311.3568, 78.41455
311.8389, 77.62939
312.3210, 75.79053
312.8031, 74.26904
313.2852, 74.44189
313.7674, 78.02979
314.2495, 86.62695
314.7316, 94.40088
315.2137, 97.99854
315.6958, 98.81592
316.1779, 99.23535
316.6601, 100.8198
317.1422, 101.7295
317.6243, 100.5850
318.1064, 96.89600
318.5885, 93.60205
319.0706, 92.16113
319.5528, 91.52783
320.0349, 90.50488
320.5170, 90.07764
320.9991, 87.99805
321.4812, 81.93018
321.9633, 71.78027
322.4455, 65.01367
322.9276, 66.37402
323.4097, 69.82568
323.8918, 70.84180
324.3739, 63.93408
324.8560, 59.81641
325.3382, 62.46680
325.8203, 70.47217
326.3024, 74.26270
326.7845, 70.16113
327.2666, 63.87109
327.7488, 58.09717
328.2309, 53.70020
328.7130, 48.67432
329.1951, 42.51367
329.6772, 35.73535
330.1594, 29.70410
330.6415, 25.63916
331.1236, 21.00342
331.6057, 14.28662
332.0878, 3.292480
332.5699, 2.701660
333.0521, 0.8774410
333.5342, 4.244629
334.0163, 6.176758
334.4984, 3.998047
334.9805, 0.4008790
335.4626, 4.905273
335.9448, 12.11328
336.4269, 14.43408
336.9090, 9.974121
337.3911, 3.454102
337.8732, 0.4184570
338.3553, 1.043945
338.8375, 1.076660
339.3196, 4.4922002E-02
339.8017, 1.236816
340.2838, 2.091797
340.7659, 11.07910
341.2480, 20.51855
341.7302, 28.21484
342.2123, 34.17041
342.6944, 32.40088
343.1765, 19.50195
343.6586, 2.571777
344.1407, 2.313477
344.6229, 5.094727
345.1050, 13.70215
345.5871, 18.38428
346.0692, 19.50684
346.5513, 17.55322
347.0334, 12.25488
347.5156, 6.104004
347.9977, 2.394043
348.4798, 0.8002930
348.9619, 0.7236330
349.4440, 3.790039
349.9261, 7.082520
350.4083, 7.385742
350.8904, 4.769043
351.3725, 2.143555
351.8546, 3.672363
352.3367, 7.054199
352.8188, 6.943359
353.3010, 0.4106450
353.7831, 8.853516
354.2652, 11.02197
354.7473, 7.952148
355.2294, 4.567383
355.7115, 4.270508
356.1937, 5.223633
356.6758, 5.596680
357.1579, 5.317383
357.6400, 4.311035
358.1221, 2.143555
358.6042, 0.5590820
359.0864, 2.695313
359.5685, 2.020508
360.0506, 1.708496
360.5327, 4.755859
361.0148, 11.93604
361.4969, 16.80811
361.9791, 16.18262
362.4612, 12.11914
362.9433, 6.815918
363.4254, 0.7021480
363.9075, 7.556152
364.3896, 11.97021
364.8718, 14.11133
365.3539, 17.39209
365.8360, 24.16357
366.3181, 30.85938
366.8002, 35.42041
367.2823, 32.85938
367.7645, 33.99023
368.2466, 44.95068
368.7287, 60.45508
369.2108, 65.60498
369.6929, 50.91357
370.1750, 35.91309
370.6572, 27.49365
371.1393, 28.06445
371.6214, 27.28027
372.1035, 24.28223
372.5856, 20.79883
373.0677, 19.20410
373.5499, 20.73145
374.0320, 21.79053
374.5141, 20.96191
374.9962, 18.61230
375.4783, 20.61133
375.9604, 29.55371
376.4426, 37.28516
376.9247, 35.20264
377.4068, 21.40332
377.8889, 13.35840
378.3710, 14.90576
378.8531, 21.90283
379.3353, 23.26904
379.8174, 18.25098
380.2995, 15.64551
380.7816, 22.00244
381.2637, 35.81934
381.7458, 47.10986
382.2280, 55.44775
382.7101, 61.26807
383.1922, 62.20215
383.6743, 60.06445
384.1564, 63.83301
384.6385, 82.35303
385.1207, 106.3535
385.6028, 118.6831
386.0849, 119.7798
386.5670, 117.7510
387.0491, 118.9473
387.5313, 121.3887
388.0134, 121.3428
388.4955, 116.1001
388.9776, 111.6284
389.4597, 113.8330
389.9418, 121.2490
390.4240, 129.5103
390.9061, 139.6689
391.3882, 148.6221
391.8703, 151.5195
392.3524, 145.8481
392.8345, 145.2734
393.3167, 159.9302
393.7988, 182.1504
394.2809, 202.4214
394.7630, 221.0952
395.2451, 235.2227
395.7272, 239.8511
396.2094, 235.6104
396.6915, 237.9790
397.1736, 256.5825
397.6557, 278.3193
398.1378, 295.5137
398.6199, 301.7793
399.1021, 309.9048
399.5842, 320.8604
400.0663, 333.8750
400.5484, 346.8867
401.0305, 356.3438
401.5126, 370.3281
401.9948, 393.4634
402.4769, 429.2847
402.9590, 455.9761
403.4411, 468.9331
403.9232, 478.0479
404.4053, 494.8940
404.8875, 522.0273
405.3696, 548.3979
405.8517, 571.4634
406.3338, 592.3608
406.8159, 616.0596
407.2980, 642.0508
407.7802, 673.0962
408.2623, 713.0898
408.7444, 761.6455
409.2265, 807.8540
409.7086, 850.1382
410.1907, 890.7368
410.6729, 933.7080
411.1550, 979.2368
411.6371, 1024.706
412.1192, 1066.582
412.6013, 1107.693
413.0834, 1157.589
413.5656, 1215.895
414.0477, 1266.888
414.5298, 1293.932
415.0119, 1305.915
415.4940, 1318.597
415.9761, 1339.145
416.4583, 1357.078
416.9404, 1362.556
417.4225, 1358.217
417.9046, 1350.735
418.3867, 1346.548
418.8688, 1338.128
419.3510, 1321.034
419.8331, 1294.990
420.3152, 1261.553
420.7973, 1213.256
421.2794, 1160.755
421.7615, 1115.685
422.2437, 1087.750
422.7258, 1060.570
423.2079, 1028.130
423.6900, 991.2446
424.1721, 960.1147
424.6542, 937.1968
425.1364, 918.6748
425.6185, 902.7285
426.1006, 894.0156
426.5827, 879.3018
427.0648, 854.7056
427.5469, 826.3403
428.0291, 805.3481
428.5112, 794.1631
428.9933, 784.9810
429.4754, 775.9761
429.9575, 767.1230
430.4396, 758.5898
430.9218, 750.0410
431.4039, 742.0142
431.8860, 737.3369
432.3681, 736.2983
432.8502, 725.6694
433.3323, 700.7666
433.8145, 669.9116
434.2966, 649.7432
434.7787, 639.5396
435.2608, 630.6963
435.7429, 618.2358
436.2250, 603.8730
436.7072, 591.0098
437.1893, 579.7290
437.6714, 570.5674
438.1535, 565.7246
438.6356, 563.2061
439.1177, 559.6870
439.5999, 555.2314
440.0820, 548.2148
440.5641, 534.5156
441.0462, 516.4229
441.5283, 502.0176
442.0104, 495.5923
442.4926, 494.3389
442.9747, 498.0981
443.4568, 509.1387
443.9389, 516.0112
444.4210, 512.4458
444.9031, 503.4536
445.3853, 494.9966
445.8674, 489.1138
446.3495, 482.4976
446.8316, 474.2012
447.3137, 464.1514
447.7958, 453.5449
448.2780, 444.2212
448.7601, 432.4697
449.2422, 415.9126
449.7243, 391.0498
450.2064, 370.2026
450.6885, 355.4458
451.1707, 342.7832
451.6528, 325.3730
452.1349, 302.1040
452.6170, 279.3608
453.0991, 258.8813
453.5812, 240.7285
454.0634, 226.4321
454.5455, 216.2461
455.0276, 207.7261
455.5097, 199.0928
455.9918, 190.4277
456.4739, 181.8579
456.9561, 172.5156
457.4382, 165.8140
457.9203, 167.9243
458.4024, 176.0312
458.8845, 181.9907
459.3666, 180.5742
459.8488, 174.3936
460.3309, 164.9185
460.8130, 153.0020
461.2951, 145.6260
461.7772, 151.5674
462.2593, 159.4380
462.7415, 158.2144
463.2236, 140.4814
463.7057, 125.0698
464.1878, 121.8960
464.6699, 126.2158
465.1520, 128.8398
465.6342, 127.5771
466.1163, 124.3315
466.5984, 118.5615
467.0805, 109.6577
467.5626, 104.2661
468.0447, 105.5327
468.5269, 107.8042
469.0090, 107.1353
469.4911, 101.6772
469.9732, 96.74023
470.4553, 92.39844
470.9374, 88.75195
471.4196, 87.10352
471.9017, 88.97754
472.3838, 86.97852
472.8659, 76.60352
473.3480, 58.87744
473.8301, 44.23828
474.3123, 32.38525
474.7944, 25.31689
475.2765, 27.11670
475.7586, 35.98291
476.2407, 45.10400
476.7228, 55.12500
477.2050, 60.70068
477.6871, 49.31689
478.1692, 26.24463
478.6513, 8.281738
479.1334, 7.801758
479.6155, 14.26758
480.0977, 18.77832
480.5798, 20.85010
481.0619, 20.31348
481.5440, 13.77783
482.0261, 6.224121
482.5082, 2.425293
482.9904, 7.457031
483.4725, 10.42090
483.9546, 6.246094
484.4367, 1.938965
484.9188, 7.485840
485.4009, 6.584473
485.8831, 5.687500
486.3652, 6.442383
486.8473, 8.912109
487.3294, 11.70898
487.8115, 16.41357
488.2936, 19.54004
488.7758, 17.92090
489.2579, 9.619629
489.7400, 3.525391
490.2221, 0.7036130
490.7042, 3.2226998E-02
491.1863, 0.4062500
491.6685, 0.3320310
492.1506, 1.100586
492.6327, 3.755859
493.1148, 7.541504
493.5970, 8.915527
494.0791, 7.919922
494.5612, 7.927246
495.0433, 14.53711
495.5254, 23.55322
496.0075, 25.58887
496.4897, 16.18604
496.9718, 8.200684
497.4539, 15.76123
497.9360, 32.58594
498.4181, 46.93994
498.9002, 55.88330
499.3824, 59.40918
499.8645, 54.99268
500.3466, 43.57324
500.8287, 34.22021
501.3108, 28.67676
501.7929, 26.81494
502.2751, 29.21484
502.7572, 40.52539
503.2393, 47.33447
503.7214, 48.94678
504.2035, 46.23096
504.6856, 39.39404
505.1678, 24.04297
505.6499, 13.78809
506.1320, 12.37109
506.6141, 18.18604
507.0962, 23.15918
507.5783, 27.58789
508.0605, 29.63232
508.5426, 26.34473
509.0247, 18.50342
509.5068, 15.12842
509.9889, 17.11035
510.4710, 20.30615
510.9532, 20.10889
511.4353, 17.32666
511.9174, 14.30127
512.3995, 11.82568
512.8816, 9.472656
513.3637, 7.916992
513.8458, 6.446289
514.3279, 2.542969
514.8101, 8.323242
515.2922, 19.55273
515.7743, 27.08496
516.2564, 30.51025
516.7385, 29.69336
517.2206, 18.21777
517.7028, 5.989746
518.1849, 1.062988
518.6670, 18.61768
519.1491, 26.04688
519.6312, 15.16309
520.1133, 5.658203
520.5955, 18.50537
521.0776, 18.54004
521.5597, 18.99316
522.0418, 23.70850
522.5239, 32.48047
523.0060, 41.88916
523.4882, 52.48730
523.9703, 61.48291
524.4524, 65.51172
524.9345, 65.07422
525.4166, 67.55127
525.8987, 75.00537
526.3809, 80.82031
526.8630, 72.25293
527.3451, 54.32959
527.8272, 43.14697
528.3093, 50.12451
528.7914, 62.46631
529.2736, 66.97900
529.7557, 65.27783
530.2378, 63.86328
530.7199, 67.50732
531.2020, 72.08252
531.6841, 74.66602
532.1663, 74.73926
532.6484, 74.43506
533.1305, 73.16748
533.6126, 72.42383
534.0947, 73.64893
534.5768, 78.10449
535.0590, 82.84668
535.5411, 87.50928
536.0232, 92.18115
536.5053, 97.22559
536.9874, 102.9092
537.4695, 107.4087
537.9517, 108.6587
538.4338, 107.1743
538.9159, 111.9253
539.3980, 123.8296
539.8801, 135.8540
540.3622, 140.8047
540.8444, 140.5488
541.3265, 142.3491
541.8086, 147.7578
542.2907, 153.3862
542.7728, 154.2720
543.2549, 153.2847
543.7371, 155.5791
544.2192, 164.1431
544.7013, 175.9258
545.1834, 191.8965
545.6655, 210.3828
546.1476, 224.1909
546.6298, 227.9775
547.1119, 229.3667
547.5940, 231.2681
548.0761, 233.1265
548.5582, 237.8506
549.0403, 246.7427
549.5225, 257.7305
550.0046, 269.3828
550.4867, 282.8833
550.9688, 294.2783
551.4509, 303.0596
551.9330, 309.4380
552.4152, 314.6577
552.8973, 319.2466
553.3794, 317.9062
553.8615, 305.2300
554.3436, 285.8745
554.8257, 276.9160
555.3079, 278.2236
555.7900, 281.7275
556.2721, 282.4312
556.7542, 281.0552
557.2363, 279.2905
557.7184, 277.7783
558.2006, 273.2554
558.6827, 259.9976
559.1648, 243.4927
559.6469, 230.5044
560.1290, 230.0376
560.6111, 226.2065
561.0933, 209.2495
561.5754, 184.7646
562.0575, 168.2500
562.5396, 168.7656
563.0217, 170.3203
563.5038, 168.5356
563.9860, 163.2314
564.4681, 159.1450
564.9502, 156.9253
565.4323, 154.7012
565.9144, 150.3081
566.3965, 143.3643
566.8787, 139.9268
567.3608, 140.4663
567.8429, 144.3008
568.3250, 152.7876
568.8071, 164.4053
569.2892, 171.9360
569.7714, 171.7393
570.2535, 168.0679
570.7356, 165.1021
571.2177, 162.8545
571.6998, 161.4185
572.1819, 157.8813
572.6641, 156.7622
573.1462, 163.2104
573.6283, 177.8853
574.1104, 190.4360
574.5926, 198.5396
575.0747, 204.2275
575.5568, 208.4150
576.0389, 210.0825
576.5211, 209.3931
577.0032, 205.2490
577.4853, 201.8589
577.9674, 204.5283
578.4495, 214.9385
578.9316, 221.0820
579.4138, 218.2207
579.8959, 211.5693
580.3780, 217.8145
580.8601, 236.8296
581.3422, 253.0225
581.8243, 252.9927
582.3065, 245.4043
582.7886, 247.7686
583.2707, 260.2070
583.7528, 279.4424
584.2349, 313.7388
584.7170, 348.4019
585.1992, 364.6201
585.6813, 352.0498
586.1634, 342.8306
586.6455, 355.0015
587.1276, 377.2334
587.6097, 395.5068
588.0919, 405.7661
588.5740, 414.0176
589.0561, 418.5752
589.5382, 422.0884
590.0203, 433.4019
590.5024, 458.0063
590.9846, 478.4219
591.4667, 485.5674
591.9488, 481.9248
592.4309, 490.4199
592.9130, 512.3442
593.3951, 536.6475
593.8773, 551.6694
594.3594, 562.0420
594.8415, 582.0566
595.3236, 613.5361
595.8057, 649.0693
596.2878, 682.8286
596.7700, 715.8545
597.2521, 749.4390
597.7342, 786.1787
598.2163, 820.6045
598.6984, 853.3354
599.1805, 881.3687
599.6627, 899.9531
600.1448, 909.5879
600.6269, 907.9229
601.1090, 896.5806
601.5911, 875.0439
602.0732, 832.8652
602.5554, 761.1973
603.0375, 685.9624
603.5196, 620.2432
604.0017, 564.5059
604.4838, 513.2163
604.9659, 467.2612
605.4481, 423.7515
605.9302, 376.0825
606.4123, 328.0728
606.8944, 294.1338
607.3765, 280.0000
607.8586, 270.6396
608.3408, 250.4043
608.8229, 224.0137
609.3050, 200.9937
609.7871, 184.0757
610.2692, 172.0391
610.7513, 168.2070
611.2335, 169.5176
611.7156, 165.1533
612.1977, 142.4888
612.6798, 124.2603
613.1619, 119.8101
613.6440, 130.0298
614.1262, 133.9512
614.6083, 129.7051
615.0904, 122.6201
615.5725, 115.6992
616.0546, 108.9297
616.5367, 103.5518
617.0189, 100.0264
617.5010, 96.20898
617.9831, 88.32227
618.4652, 78.09277
618.9473, 70.51367
619.4294, 67.29785
619.9116, 67.06055
620.3937, 69.18652
620.8758, 71.56641
621.3579, 72.69434
621.8400, 71.82520
622.3221, 69.55664
622.8043, 66.80078
623.2864, 63.05957
623.7685, 55.84082
624.2506, 37.24902
624.7327, 23.59863
625.2148, 22.75000
625.6970, 36.32324
626.1791, 42.21582
626.6612, 38.59375
627.1433, 31.62305
627.6254, 25.36133
628.1075, 19.83789
628.5897, 15.73340
629.0718, 13.24609
629.5539, 11.88477
630.0360, 13.34473
630.5181, 15.45215
631.0002, 12.98730
631.4824, 1.058594
631.9645, 9.778320
632.4466, 11.71973
632.9287, 7.181641
633.4108, 1.121094
633.8929, 8.872070
634.3751, 16.01855
634.8572, 14.21289
635.3393, 5.745117
635.8214, 8.550781
636.3035, 30.33203
636.7856, 47.94238
637.2678, 49.72363
637.7499, 35.46582
638.2320, 28.26367
638.7141, 28.86230
639.1962, 31.54980
639.6783, 34.13184
640.1605, 35.39355
640.6426, 29.60938
641.1247, 15.15527
641.6068, 0.1376950
642.0889, 10.15234
642.5710, 15.65723
643.0532, 15.13867
643.5353, 3.058594
644.0174, 7.401367
644.4995, 8.626953
644.9816, 5.980469
645.4637, 8.414063
645.9459, 26.58398
646.4280, 36.87109
646.9101, 30.90625
647.3922, 13.24121
647.8743, 3.362305
648.3564, 2.315430
648.8386, 5.117188
649.3207, 10.12793
649.8028, 16.89258
650.2849, 21.63672
650.7670, 24.43359
651.2491, 27.40332
651.7313, 35.68457
652.2134, 43.83496
652.6955, 41.94922
653.1776, 28.29883
653.6597, 16.45996
654.1418, 16.62793
654.6240, 21.09961
655.1061, 22.60938
655.5882, 16.16797
656.0703, 13.28223
656.5524, 17.96387
657.0345, 25.49707
657.5167, 30.47168
657.9988, 32.17773
658.4809, 32.52246
658.9630, 31.22070
659.4451, 29.02637
659.9272, 27.95996
660.4094, 28.01953
660.8915, 27.85938
661.3736, 27.62695
661.8557, 26.63477
662.3378, 22.67676
662.8199, 16.72949
663.3021, 12.38672
663.7842, 14.92090
664.2663, 17.65234
664.7484, 13.02051
665.2305, 0.8730470
665.7126, 2.600586
666.1948, 14.98242
666.6769, 35.38184
667.1590, 49.19531
667.6411, 55.45410
668.1232, 56.55078
668.6053, 47.87598
669.0875, 40.48340
669.5696, 48.06152
670.0517, 69.66992
670.5338, 79.75586
671.0159, 73.31641
671.4980, 62.84863
671.9802, 66.45801
672.4623, 77.60645
672.9444, 81.13965
673.4265, 70.36816
673.9086, 56.08301
674.3907, 43.92188
674.8729, 33.79102
675.3550, 25.41895
675.8371, 22.86621
676.3192, 18.25293
676.8013, 6.164063
677.2834, 9.488281
677.7656, 13.32617
678.2477, 0.8720700
678.7298, 12.52344
679.2119, 11.81836
679.6940, 1.701172
680.1761, 0.1376950
680.6583, 7.155273
681.1404, 16.73242
681.6225, 26.96582
682.1046, 35.78613
682.5867, 37.25293
683.0688, 30.95508
683.5510, 27.36426
684.0331, 38.81641
684.5152, 52.17090
684.9973, 55.15430
685.4794, 40.74707
685.9615, 31.78711
686.4437, 38.83398
686.9258, 48.45801
687.4079, 49.67383
687.8900, 39.26465
688.3721, 30.00488
688.8542, 22.32324
689.3364, 17.42969
689.8185, 19.05273
690.3006, 26.37012
690.7827, 31.17773
691.2648, 31.39746
691.7469, 27.62207
692.2291, 16.43848
692.7112, 1.878906
693.1933, 6.598633
693.6754, 0.1826170
694.1575, 8.835938
694.6396, 13.15234
695.1218, 13.91895
695.6039, 14.71387
696.0860, 18.77148
696.5681, 19.43555
697.0502, 13.56152
697.5323, 2.147461
698.0145, 5.562500
698.4966, 9.270508
698.9787, 10.01562
699.4608, 6.485352
699.9429, 0.2744140
700.4250, 3.180664
700.9072, 4.195313
701.3893, 2.166016
701.8714, 7.622070
702.3535, 19.09473
702.8356, 26.30762
703.3177, 28.63086
703.7999, 25.72852
704.2820, 10.68652
704.7641, 5.125977
705.2462, 11.99316
705.7283, 2.309570
706.2104, 0.8505860
706.6926, 5.178711
707.1747, 13.88867
707.6568, 16.97363
708.1389, 13.89648
708.6210, 15.10840
709.1031, 22.45020
709.5853, 33.08008
710.0674, 48.38379
710.5495, 63.83301
711.0316, 67.59277
711.5137, 47.15039
711.9958, 27.41699
712.4780, 28.70898
712.9601, 41.74121
713.4422, 48.92969
713.9243, 42.15625
714.4064, 33.86621
714.8885, 25.90332
715.3707, 18.67285
715.8528, 13.48828
716.3349, 10.83203
716.8170, 8.616211
717.2991, 5.534180
717.7813, 2.543945
718.2634, 3.443359
718.7455, 7.864258
719.2276, 12.35254
719.7097, 14.90137
720.1918, 16.36914
720.6740, 17.58887
721.1561, 18.51953
721.6382, 19.40625
722.1203, 19.34570
722.6024, 20.08398
723.0845, 24.38379
723.5667, 33.55273
724.0488, 34.43262
724.5309, 22.24023
725.0130, 9.285156
725.4951, 3.387695
725.9772, 4.865234
726.4594, 6.490234
726.9415, 8.464844
727.4236, 9.130859
727.9057, 5.773438
728.3878, 0.2910160
728.8699, 4.504883
729.3521, 8.661133
729.8342, 9.129883
730.3163, 0.3222660
730.7984, 11.14160
731.2805, 18.76270
731.7626, 17.29883
732.2448, 19.34570
732.7269, 29.57520
733.2090, 40.42285
733.6911, 41.97852
734.1732, 31.10645
734.6553, 27.10156
735.1375, 33.12988
735.6196, 42.85840
736.1017, 47.25586
736.5838, 47.01074
737.0659, 47.14355
737.5480, 48.67578
738.0302, 51.62305
738.5123, 59.58887
738.9944, 68.36914
739.4765, 70.87402
739.9586, 60.70508
740.4407, 48.98730
740.9229, 35.16699
741.4050, 22.36230
741.8871, 18.59277
742.3692, 27.50000
742.8513, 35.56055
743.3334, 40.31836
743.8156, 41.38281
744.2977, 35.19922
744.7798, 22.82910
745.2619, 12.87988
745.7440, 11.15430
746.2261, 12.85938
746.7083, 12.80566
747.1904, 11.55469
747.6725, 11.44238
748.1546, 14.51074
748.6367, 17.65039
749.1188, 19.53906
749.6010, 20.15234
750.0831, 20.09180
750.5652, 18.42676
751.0473, 17.23340
751.5294, 18.79785
752.0115, 22.56250
752.4937, 26.47363
752.9758, 30.58203
753.4579, 32.79688
753.9400, 27.77344
754.4221, 21.94922
754.9042, 26.97656
755.3864, 42.34473
755.8685, 52.12695
756.3506, 40.72754
756.8327, 28.29492
757.3148, 29.25781
757.7969, 48.25586
758.2791, 58.34668
758.7612, 55.84277
759.2433, 49.57520
759.7254, 42.99414
760.2075, 35.89453
760.6896, 36.36035
761.1718, 45.79102
761.6539, 53.59082
762.1360, 49.52637
762.6181, 39.02930
763.1002, 28.61328
763.5823, 18.82031
764.0645, 12.81055
764.5466, 18.43555
765.0287, 25.32520
765.5108, 23.74707
765.9929, 4.476563
766.4750, 1.128906
766.9572, 15.35352
767.4393, 34.43262
767.9214, 36.09961
768.4035, 19.94922
768.8856, 11.23535
769.3677, 12.70215
769.8499, 17.04688
770.3320, 15.78711
770.8141, 12.14551
771.2962, 12.71973
771.7783, 20.55371
772.2604, 26.55664
772.7426, 23.46582
773.2247, 17.37207
773.7068, 14.62988
774.1889, 18.42285
774.6710, 21.82324
775.1531, 24.99805
775.6353, 27.60156
776.1174, 29.78906
776.5995, 31.67969
777.0816, 31.27246
777.5637, 28.01758
778.0458, 23.79688
778.5280, 19.20215
779.0101, 15.63379
779.4922, 15.95117
779.9743, 22.78125
780.4564, 29.77344
780.9385, 34.26855
781.4207, 37.12012
781.9028, 39.44141
782.3849, 41.42090
782.8670, 42.24121
783.3491, 41.18066
783.8312, 39.33301
784.3134, 37.49316
784.7955, 35.70117
785.2776, 36.66504
785.7597, 41.71680
786.2418, 47.24512
786.7239, 50.52734
787.2061, 50.90625
787.6882, 47.08008
788.1703, 31.80957
788.6524, 22.86621
789.1345, 32.47070
789.6166, 50.51953
790.0988, 59.52246
790.5809, 54.38574
791.0630, 50.94043
791.5451, 51.15430
792.0272, 54.52539
792.5093, 61.20312
792.9915, 70.71973
793.4736, 78.00781
793.9557, 81.77441
794.4378, 82.43262
794.9199, 76.80566
795.4020, 68.86230
795.8842, 65.97852
796.3663, 75.20996
796.8484, 83.87402
797.3305, 87.66992
797.8126, 88.74805
798.2947, 90.76660
798.7769, 94.04492
799.2590, 97.14355
799.7411, 100.8838
800.2232, 102.5879
800.7053, 94.58008
801.1874, 79.68164
801.6696, 69.26855
802.1517, 69.24219
802.6338, 72.63672
803.1159, 76.58398
803.5980, 79.51660
804.0801, 78.65723
804.5623, 68.04004
805.0444, 60.59277
805.5265, 59.54590
806.0086, 62.17871
806.4907, 64.56445
806.9728, 67.33008
807.4550, 66.63477
807.9371, 59.72754
808.4192, 52.20605
808.9013, 54.90625
809.3834, 64.44727
809.8655, 72.00488
810.3477, 73.23145
810.8298, 74.39062
811.3119, 80.70215
811.7940, 88.92773
812.2761, 93.56738
812.7582, 93.18164
813.2404, 90.28125
813.7225, 84.56836
814.2046, 77.25391
814.6867, 69.88574
815.1688, 62.78125
815.6509, 57.71875
816.1331, 54.69434
816.6152, 55.45117
817.0973, 64.51465
817.5794, 77.38965
818.0615, 85.82812
818.5436, 87.75098
819.0258, 87.42871
819.5079, 82.02832
819.9900, 75.63379
820.4721, 75.52539
820.9542, 86.43555
821.4363, 91.85547
821.9185, 89.41406
822.4006, 81.66211
822.8827, 69.50098
823.3648, 55.18848
823.8469, 49.46094
824.3290, 57.29395
824.8112, 65.64941
825.2933, 63.89941
825.7754, 57.10938
826.2575, 51.90039
826.7396, 48.92773
827.2217, 47.34668
827.7039, 48.50781
828.1860, 51.02539
828.6681, 52.93750
829.1502, 53.87793
829.6323, 57.69727
830.1144, 65.54492
830.5966, 73.23047
831.0787, 72.70410
831.5608, 68.74121
832.0429, 72.18164
832.5250, 88.41309
833.0071, 101.8896
833.4893, 104.5195
833.9714, 100.3447
834.4535, 93.32422
834.9356, 81.82129
835.4177, 71.69531
835.8998, 61.99414
836.3820, 56.15820
836.8641, 60.72070
837.3462, 73.86328
837.8283, 82.59473
838.3104, 85.62109
838.7925, 84.22168
839.2747, 77.22168
839.7568, 67.71973
840.2389, 57.95703
840.7210, 46.36816
841.2031, 41.32227
841.6852, 49.86621
842.1674, 60.00098
842.6495, 63.71777
843.1316, 59.46289
843.6137, 56.59277
844.0958, 54.68652
844.5779, 55.53223
845.0601, 66.54980
845.5422, 79.58789
846.0243, 77.13965
846.5064, 57.78125
846.9885, 40.45801
847.4706, 39.41992
847.9528, 40.88867
848.4349, 34.44238
848.9170, 18.09766
849.3991, 11.37500
849.8812, 18.06836
850.3633, 25.74805
850.8455, 25.93848
851.3276, 20.46387
851.8097, 19.77148
852.2918, 23.40527
852.7739, 27.23438
853.2560, 26.54980
853.7382, 25.96582
854.2203, 31.57520
854.7024, 42.43945
855.1845, 46.60742
855.6666, 34.43848
856.1487, 23.75586
856.6309, 20.47656
857.1130, 23.37793
857.5951, 26.17188
858.0772, 29.04199
858.5593, 30.69922
859.0414, 30.59180
859.5236, 29.30273
860.0057, 27.63086
860.4878, 25.58301
860.9699, 22.80762
861.4520, 19.18066
861.9341, 14.91406
862.4163, 7.217773
862.8984, 0.8798830
863.3805, 6.0547002E-02
863.8626, 13.19922
864.3447, 22.68457
864.8268, 24.09766
865.3090, 20.05957
865.7911, 10.79980
866.2732, 0.2529300
866.7553, 1.953125
867.2374, 17.26172
867.7195, 35.52734
868.2017, 39.36523
868.6838, 34.54590
869.1659, 29.86523
869.6480, 26.85547
870.1301, 22.61914
870.6122, 16.42285
871.0944, 9.972656
871.5765, 6.618164
872.0586, 5.591797
872.5407, 1.832031
873.0228, 5.857422
873.5049, 14.56836
873.9871, 26.52344
874.4692, 35.68555
874.9513, 33.61426
875.4334, 9.524414
875.9155, 2.469727
876.3976, 8.094727
876.8798, 21.71387
877.3619, 22.33105
877.8440, 9.440430
878.3261, 0.2685550
878.8082, 4.627930
879.2903, 6.014648
879.7725, 3.513672
880.2546, 1.475586
880.7367, 9.112305
881.2188, 19.45508
881.7009, 24.19043
882.1830, 13.86914
882.6652, 3.613281
883.1473, 2.445313
883.6294, 9.762695
884.1115, 5.790039
884.5936, 11.36230
885.0757, 26.39355
885.5579, 27.37891
886.0400, 21.91797
886.5221, 24.70410
887.0042, 33.81641
887.4863, 41.68848
887.9684, 46.23438
888.4506, 47.00391
888.9327, 40.73438
889.4148, 30.37207
889.8969, 26.19824
890.3790, 30.50000
890.8611, 32.93262
891.3433, 30.57715
891.8254, 25.37695
892.3075, 19.45312
892.7896, 13.76660
893.2717, 11.38867
893.7538, 16.98340
894.2360, 20.79785
894.7181, 13.79395
895.2002, 3.165039
895.6823, 0.1367190
896.1644, 8.712891
896.6465, 14.97070
897.1287, 17.25977
897.6108, 17.84277
898.0929, 18.18750
898.5750, 19.01562
899.0571, 23.52930
899.5392, 32.57715
900.0214, 42.17383
900.5035, 50.87109
900.9856, 57.74023
901.4677, 61.56934
901.9498, 60.55859
902.4319, 61.41016
902.9141, 64.56055
903.3962, 68.58984
903.8784, 71.88379
904.3605, 74.92969
904.8426, 83.46094
905.3247, 97.19141
905.8068, 109.2852
906.2889, 117.0146
906.7711, 120.0205
907.2532, 113.0977
907.7353, 98.88770
908.2174, 97.62109
908.6995, 122.2080
909.1816, 143.7998
909.6638, 153.4561
910.1459, 155.1592
910.6280, 160.2695
911.1101, 168.5498
911.5922, 177.4268
912.0743, 185.2871
912.5565, 194.5166
913.0386, 207.2646
913.5207, 222.9912
914.0028, 241.0156
914.4849, 263.4365
914.9670, 284.7842
915.4492, 303.2207
915.9313, 321.8682
916.4134, 343.7568
916.8955, 369.0850
917.3776, 401.0449
917.8597, 440.6543
918.3419, 482.7139
918.8240, 523.9951
919.3061, 564.0254
919.7882, 599.9375
920.2703, 628.1963
920.7524, 668.8516
921.2346, 732.5596
921.7167, 799.4795
922.1988, 856.7656
922.6809, 905.4717
923.1630, 965.1699
923.6451, 1036.233
924.1273, 1113.747
924.6094, 1197.367
925.0915, 1285.059
925.5736, 1377.031
926.0557, 1470.625
926.5378, 1557.670
927.0200, 1636.355
927.5021, 1707.382
927.9842, 1771.790
928.4663, 1828.809
928.9484, 1879.896
929.4305, 1924.054
929.9127, 1946.896
930.3948, 1940.312
930.8769, 1918.554
931.3590, 1901.471
931.8411, 1877.317
932.3232, 1828.868
932.8054, 1732.348
933.2875, 1646.741
933.7696, 1577.313
934.2517, 1517.098
934.7338, 1460.443
935.2159, 1408.207
935.6981, 1369.177
936.1802, 1343.483
936.6623, 1334.704
937.1444, 1348.145
937.6265, 1378.397
938.1086, 1420.276
938.5908, 1473.348
939.0729, 1538.012
939.5550, 1610.528
940.0371, 1699.495
940.5192, 1807.745
941.0013, 1933.370
941.4835, 2075.147
941.9656, 2233.006
942.4477, 2387.369
942.9298, 2540.508
943.4119, 2672.769
943.8940, 2780.043
944.3762, 2852.202
944.8583, 2867.453
945.3404, 2799.927
945.8225, 2705.255
946.3046, 2586.787
946.7867, 2444.534
947.2689, 2269.152
947.7510, 2067.375
948.2331, 1881.810
948.7152, 1718.608
949.1973, 1574.545
949.6794, 1449.514
950.1616, 1340.497
950.6437, 1245.043
951.1258, 1164.983
951.6079, 1095.839
952.0900, 1039.997
952.5721, 989.6494
953.0543, 938.3643
953.5364, 889.2695
954.0185, 860.8027
954.5006, 849.7100
954.9827, 834.0508
955.4648, 795.4951
955.9470, 754.7236
956.4291, 718.8955
956.9112, 691.1104
957.3933, 680.5703
957.8754, 697.1240
958.3575, 703.8926
958.8397, 691.8242
959.3218, 672.3691
959.8039, 661.9180
960.2860, 658.7520
960.7681, 660.2803
961.2502, 668.0420
961.7324, 670.9990
962.2145, 665.6289
962.6966, 650.8037
963.1787, 623.2998
963.6608, 580.2529
964.1429, 545.8809
964.6251, 522.0010
965.1072, 500.2266
965.5893, 473.8447
966.0714, 446.1689
966.5535, 426.6582
967.0356, 412.4697
967.5178, 388.0947
967.9999, 332.4756
968.4820, 280.8496
968.9641, 247.4180
969.4462, 226.5312
969.9283, 204.4482
970.4105, 180.5498
970.8926, 162.9160
971.3747, 154.4834
971.8568, 149.3584
972.3389, 140.2471
972.8210, 129.4893
973.3032, 120.9961
973.7853, 117.4658
974.2674, 110.9297
974.7495, 94.68945
975.2316, 80.58301
975.7137, 78.03125
976.1959, 86.95312
976.6780, 89.86816
977.1601, 86.74805
977.6422, 83.09375
978.1243, 83.78223
978.6064, 84.61719
979.0886, 81.06836
979.5707, 74.08301
980.0528, 68.51270
980.5349, 65.12598
981.0170, 63.80273
981.4991, 66.18555
981.9813, 68.72363
982.4634, 63.19824
982.9455, 51.44629
983.4276, 41.07910
983.9097, 34.66504
984.3918, 27.66699
984.8740, 15.20117
985.3561, 1.689453
985.8382, 9.507813
986.3203, 20.34180
986.8024, 18.08398
987.2845, 1.822266
987.7667, 20.32422
988.2488, 17.54590
988.7309, 2.566406
989.2130, 0.3027340
989.6951, 8.502930
990.1772, 14.59473
990.6594, 6.979492
991.1415, 2.692383
991.6236, 11.97266
992.1057, 27.24512
992.5878, 31.35938
993.0699, 22.19727
993.5521, 17.48145
994.0342, 21.70996
994.5163, 28.95703
994.9984, 35.87305
995.4805, 39.67969
995.9626, 34.46582
996.4448, 14.48633
996.9269, 4.838867
997.4090, 15.09961
997.8911, 28.63281
998.3732, 36.89160
998.8553, 40.40430
999.3375, 44.04297
999.8196, 47.54883
1000.302, 47.91699
1000.784, 37.62793
1001.266, 29.35938
1001.748, 37.35352
1002.230, 53.74023
1002.712, 56.12988
1003.194, 33.86230
1003.677, 22.80566
1004.159, 29.28320
1004.641, 43.45312
1005.123, 53.42383
1005.605, 60.59766
1006.087, 69.03418
1006.569, 80.09277
1007.051, 88.52930
1007.533, 90.59277
1008.016, 90.76562
1008.498, 90.00293
1008.980, 88.83008
1009.462, 97.63770
1009.944, 117.2314
1010.426, 133.2959
1010.908, 137.4424
1011.390, 136.1016
1011.872, 134.5371
1012.355, 133.7705
1012.837, 135.7197
1013.319, 142.1260
1013.801, 150.7031
1014.283, 164.6328
1014.765, 176.0684
1015.247, 172.4316
1015.729, 157.6533
1016.212, 155.5742
1016.694, 167.9941
1017.176, 180.5020
1017.658, 184.3926
1018.140, 183.7588
1018.622, 180.0859
1019.104, 173.9453
1019.586, 169.3965
1020.068, 167.5703
1020.551, 162.1553
1021.033, 150.2197
1021.515, 135.2471
1021.997, 120.2754
1022.479, 107.1846
1022.961, 100.2041
1023.443, 103.6650
1023.925, 106.4268
1024.407, 106.1797
1024.890, 103.8428
1025.372, 99.59668
1025.854, 93.45312
1026.336, 87.15820
1026.818, 80.68457
1027.300, 74.05176
1027.782, 62.65039
1028.264, 55.12793
1028.747, 61.34863
1029.229, 77.91699
1029.711, 91.17773
1030.193, 101.1670
1030.675, 105.1787
1031.157, 100.4795
1031.639, 94.86133
1032.121, 102.8535
1032.604, 118.0449
1033.086, 124.3486
1033.568, 117.7412
1034.050, 112.7852
1034.532, 119.5996
1035.014, 126.0840
1035.496, 125.8789
1035.978, 119.3232
1036.460, 108.7275
1036.943, 94.31250
1037.425, 83.15820
1037.907, 80.77051
1038.389, 80.68555
1038.871, 77.62891
1039.353, 72.36230
1039.835, 66.11523
1040.317, 57.61816
1040.799, 51.01074
1041.282, 46.40137
1041.764, 43.63379
1042.246, 43.70605
1042.728, 45.23633
1043.210, 46.38770
1043.692, 46.34863
1044.174, 38.98047
1044.656, 8.351563
1045.139, 14.77148
1045.621, 13.39453
1046.103, 2.944336
1046.585, 8.879883
1047.067, 4.321289
1047.549, 3.394531
1048.031, 13.10547
1048.513, 22.15723
1048.995, 29.69434
1049.478, 33.77051
1049.960, 31.11035
1050.442, 18.25879
1050.924, 9.851563
1051.406, 7.151367
1051.888, 6.162109
1052.370, 5.348633
1052.852, 4.382813
1053.334, 3.090820
1053.817, 1.027344
1054.299, 3.662109
1054.781, 15.14844
1055.263, 24.75098
1055.745, 28.95410
1056.227, 30.40039
1056.709, 32.38281
1057.191, 34.92480
1057.674, 33.97754
1058.156, 29.00781
1058.638, 26.05664
1059.120, 34.97363
1059.602, 44.18750
1060.084, 41.30957
1060.566, 27.83008
1061.048, 23.70801
1061.531, 34.56348
1062.013, 40.82617
1062.495, 37.04785
1062.977, 27.55566
1063.459, 13.28027
1063.941, 0.1337890
1064.423, 2.509766
1064.905, 30.56055
1065.387, 47.52734
1065.870, 28.22363
1066.352, 8.846680
1066.834, 8.675781
1067.316, 24.84082
1067.798, 37.17871
1068.280, 45.80762
1068.762, 51.74707
1069.244, 54.78223
1069.727, 56.66602
1070.209, 57.52441
1070.691, 57.29199
1071.173, 57.06836
1071.655, 56.85059
1072.137, 60.25879
1072.619, 68.53809
1073.101, 75.76367
1073.583, 73.00488
1074.066, 67.19141
1074.548, 69.68652
1075.030, 79.32715
1075.512, 83.45508
1075.994, 72.50195
1076.476, 66.75293
1076.958, 71.70996
1077.440, 81.97559
1077.922, 88.21680
1078.405, 91.37305
1078.887, 93.91504
1079.369, 96.10352
1079.851, 99.66797
1080.333, 107.0674
1080.815, 114.8037
1081.297, 120.3955
1081.779, 124.1113
1082.262, 127.0352
1082.744, 129.2529
1083.226, 136.8174
1083.708, 156.9766
1084.190, 176.3418
1084.672, 177.4932
1085.154, 171.6201
1085.636, 176.1230
1086.119, 199.4297
1086.601, 216.5527
1087.083, 226.6182
1087.565, 233.7832
1088.047, 237.1729
1088.529, 242.1484
1089.011, 259.9395
1089.493, 288.4258
1089.975, 318.3174
1090.458, 346.0029
1090.940, 375.8398
1091.422, 409.8164
1091.904, 444.4629
1092.386, 469.9688
1092.868, 490.4668
1093.350, 525.1572
1093.832, 576.7012
1094.314, 631.5918
1094.797, 687.4365
1095.279, 738.0381
1095.761, 776.7129
1096.243, 806.7539
1096.725, 847.7900
1097.207, 900.1816
1097.689, 943.2217
1098.171, 973.2578
1098.654, 984.4111
1099.136, 962.7373
1099.618, 923.8418
1100.100, 884.9336
1100.582, 849.7441
1101.064, 805.9297
1101.546, 750.1973
1102.028, 697.2324
1102.510, 659.6846
1102.993, 623.8711
1103.475, 562.2891
1103.957, 487.1699
1104.439, 423.5498
1104.921, 388.8730
1105.403, 354.5840
1105.885, 316.8818
1106.367, 280.6445
1106.849, 252.6387
1107.332, 230.8115
1107.814, 203.8252
1108.296, 173.2812
1108.778, 150.6270
1109.260, 152.7041
1109.742, 150.8154
1110.224, 127.6494
1110.706, 97.16797
1111.189, 85.46094
1111.671, 91.76270
1112.153, 79.92871
1112.635, 42.88281
1113.117, 11.24805
1113.599, 14.99023
1114.081, 30.40137
1114.563, 39.82031
1115.046, 43.12695
1115.528, 47.04785
1116.010, 51.29688
1116.492, 57.81152
1116.974, 67.86523
1117.456, 77.64844
1117.938, 82.64941
1118.420, 83.93750
1118.902, 82.21094
1119.385, 75.87207
1119.867, 72.51855
1120.349, 73.54004
1120.831, 73.35840
1121.313, 68.42285
1121.795, 60.36328
1122.277, 53.07422
1122.759, 47.04785
1123.241, 42.75684
1123.724, 42.53418
1124.206, 41.78809
1124.688, 43.02930
1125.170, 40.76172
1125.652, 27.72168
1126.134, 7.217773
1126.616, 5.872070
1127.098, 11.52344
1127.581, 11.95996
1128.063, 1.511719
1128.545, 6.167969
1129.027, 3.811523
1129.509, 3.521484
1129.991, 11.26660
1130.473, 19.44434
1130.955, 22.00098
1131.438, 18.55762
1131.920, 12.58301
1132.402, 4.503906
1132.884, 2.886719
1133.366, 5.626953
1133.848, 5.953125
1134.330, 13.28223
1134.812, 28.86719
1135.294, 40.82715
1135.776, 46.31543
1136.259, 49.48926
1136.741, 55.02930
1137.223, 60.34570
1137.705, 62.47949
1138.187, 60.85840
1138.669, 60.03320
1139.151, 60.08594
1139.633, 61.20410
1140.116, 64.21973
1140.598, 66.82227
1141.080, 64.69043
1141.562, 60.20508
1142.044, 57.69629
1142.526, 59.83398
1143.008, 57.09961
1143.490, 46.01172
1143.973, 36.72949
1144.455, 34.64355
1144.937, 38.27539
1145.419, 48.86328
1145.901, 62.00684
1146.383, 66.39844
1146.865, 51.74609
1147.347, 37.72168
1147.829, 26.10449
1148.312, 17.58301
1148.794, 12.05664
1149.276, 10.00684
1149.758, 16.16211
1150.240, 28.83398
1150.722, 39.00391
1151.204, 40.83984
1151.686, 40.89258
1152.168, 39.95215
1152.651, 39.52930
1153.133, 43.21289
1153.615, 50.03320
1154.097, 48.36230
1154.579, 37.75586
1155.061, 27.33887
1155.543, 21.92676
1156.025, 19.30273
1156.508, 19.59570
1156.990, 21.28320
1157.472, 20.37891
1157.954, 16.82129
1158.436, 21.64844
1158.918, 36.97461
1159.400, 53.24609
1159.882, 63.89648
1160.365, 71.49414
1160.847, 78.78418
1161.329, 84.89453
1161.811, 84.12500
1162.293, 75.91113
1162.775, 67.58496
1163.257, 61.25781
1163.739, 54.11328
1164.221, 39.53613
1164.703, 25.28223
1165.186, 21.20605
1165.668, 28.69629
1166.150, 29.83203
1166.632, 23.85742
1167.114, 15.60449
1167.596, 3.737305
1168.078, 2.946289
1168.560, 14.68652
1169.043, 40.97852
1169.525, 53.82129
1170.007, 45.52246
1170.489, 38.16113
1170.971, 29.90527
1171.453, 28.75195
1171.935, 42.95898
1172.417, 61.44727
1172.900, 63.06934
1173.382, 57.11035
1173.864, 61.16797
1174.346, 90.59375
1174.828, 107.0039
1175.310, 107.0898
1175.792, 99.61914
1176.274, 84.43750
1176.756, 70.27246
1177.239, 79.61426
1177.721, 103.3525
1178.203, 118.2080
1178.685, 113.1113
1179.167, 103.4375
1179.649, 89.47949
1180.131, 73.82422
1180.613, 55.44434
1181.095, 38.99121
1181.578, 38.93750
1182.060, 51.49121
1182.542, 58.60352
1183.024, 45.63867
1183.506, 38.26758
1183.988, 40.69043
1184.470, 47.68359
1184.952, 56.25977
1185.435, 64.96875
1185.917, 69.76270
1186.399, 70.20215
1186.881, 69.18164
1187.363, 60.84082
1187.845, 60.42578
1188.327, 74.08691
1188.809, 92.32227
1189.292, 101.9844
1189.774, 104.3232
1190.256, 101.9141
1190.738, 95.02051
1191.220, 88.45605
1191.702, 81.62012
1192.184, 79.58691
1192.666, 85.58691
1193.148, 95.23828
1193.630, 100.6211
1194.113, 102.3408
1194.595, 101.3027
1195.077, 97.50293
1195.559, 95.28223
1196.041, 103.3828
1196.523, 104.8818
1197.005, 89.42090
1197.487, 66.29980
1197.970, 62.84766
1198.452, 73.76758
1198.934, 78.82520
1199.416, 71.52344
1199.898, 66.14160
1200.380, 72.12793
1200.862, 77.87598
1201.344, 76.66309
1201.827, 71.42188
1202.309, 75.40137
1202.791, 85.42773
1203.273, 87.83496
1203.755, 76.66309
1204.237, 64.37109
1204.719, 56.75000
1205.201, 50.02734
1205.683, 41.58594
1206.166, 32.71094
1206.648, 28.38086
1207.130, 28.31641
1207.612, 31.55762
1208.094, 41.01270
1208.576, 46.42090
1209.058, 39.01855
1209.540, 29.85254
1210.022, 24.88477
1210.505, 23.94824
1210.987, 28.16016
1211.469, 36.20215
1211.951, 41.76465
1212.433, 39.15625
1212.915, 38.34473
1213.397, 44.26270
1213.879, 52.15039
1214.362, 59.45898
1214.844, 65.80664
1215.326, 67.59082
1215.808, 65.80078
1216.290, 65.88477
1216.772, 75.37109
1217.254, 80.36621
1217.736, 73.32227
1218.219, 63.70020
1218.701, 59.43750
1219.183, 59.71582
1219.665, 59.51562
1220.147, 58.74707
1220.629, 57.31152
1221.111, 52.53320
1221.593, 51.37500
1222.075, 61.58789
1222.557, 69.63281
1223.040, 58.44141
1223.522, 32.88281
1224.004, 14.91016
1224.486, 4.993164
1224.968, 1.512695
1225.450, 9.690430
1225.932, 16.23145
1226.414, 19.18945
1226.897, 18.70801
1227.379, 12.04688
1227.861, 2.247070
1228.343, 2.638672
1228.825, 11.97070
1229.307, 18.11035
1229.789, 14.62891
1230.271, 8.977539
1230.754, 1.664063
1231.236, 5.333984
1231.718, 11.55469
1232.200, 15.73340
1232.682, 12.50977
1233.164, 2.677734
1233.646, 4.326172
1234.128, 1.106445
1234.610, 0.4375000
1235.093, 13.80273
1235.575, 28.50293
1236.057, 20.13574
1236.539, 0.3652340
1237.021, 3.174805
1237.503, 10.15430
1237.985, 23.07129
1238.467, 28.72949
1238.949, 35.62012
1239.432, 46.96680
1239.914, 56.05664
1240.396, 47.64941
1240.878, 32.79199
1241.360, 35.00781
1241.842, 54.72070
1242.324, 66.72559
1242.806, 59.11230
1243.289, 59.16309
1243.771, 73.77148
1244.253, 92.27148
1244.735, 101.6104
1245.217, 105.4189
1245.699, 111.0039
1246.181, 118.2822
1246.663, 113.4551
1247.146, 87.79980
1247.628, 74.51367
1248.110, 83.18945
1248.592, 97.24707
1249.074, 96.16602
1249.556, 88.23340
1250.038, 81.74414
1250.520, 78.02734
1251.002, 80.74902
1251.484, 92.95508
1251.967, 97.55859
1252.449, 89.34668
1252.931, 78.22461
1253.413, 74.13477
1253.895, 73.30957
1254.377, 70.88672
1254.859, 67.37695
1255.341, 71.80957
1255.824, 85.50293
1256.306, 94.77832
1256.788, 95.93750
1257.270, 93.82910
1257.752, 89.35449
1258.234, 86.38379
1258.716, 89.43750
1259.198, 97.25293
1259.681, 106.0420
1260.163, 115.9131
1260.645, 113.5449
1261.127, 93.96289
1261.609, 75.48242
1262.091, 75.76660
1262.573, 78.75098
1263.055, 72.32617
1263.537, 60.18750
1264.020, 55.82227
1264.502, 58.32617
1264.984, 61.90625
1265.466, 65.38086
1265.948, 67.19727
1266.430, 65.70996
1266.912, 62.75684
1267.394, 57.27344
1267.876, 49.62109
1268.359, 41.25195
1268.841, 33.30371
1269.323, 34.20996
1269.805, 46.90527
1270.287, 54.17676
1270.769, 41.48438
1271.251, 31.39062
1271.733, 32.90430
1272.216, 39.76562
1272.698, 36.51172
1273.180, 28.30957
1273.662, 28.54883
1274.144, 41.38086
1274.626, 46.39355
1275.108, 35.64746
1275.590, 27.05273
1276.073, 27.70117
1276.555, 30.79102
1277.037, 20.12109
1277.519, 6.542969
1278.001, 8.694336
1278.483, 30.65820
1278.965, 48.44238
1279.447, 60.52734
1279.929, 67.42285
1280.411, 68.59961
1280.894, 65.63379
1281.376, 55.58691
1281.858, 45.68262
1282.340, 47.03613
1282.822, 59.55859
1283.304, 59.60449
1283.786, 45.76855
1284.268, 37.30566
1284.751, 40.95703
1285.233, 45.35352
1285.715, 42.63086
1286.197, 33.99805
1286.679, 14.19727
1287.161, 10.53320
1287.643, 8.041016
1288.125, 18.96484
1288.608, 31.83496
1289.090, 19.19043
1289.572, 5.564453
1290.054, 7.446289
1290.536, 11.30176
1291.018, 8.452148
1291.500, 3.122070
1291.982, 9.646484
1292.464, 24.08398
1292.947, 31.79980
1293.429, 29.28613
1293.911, 18.28418
1294.393, 8.294922
1294.875, 7.315430
1295.357, 6.657227
1295.839, 8.941406
1296.321, 18.06348
1296.803, 33.87695
1297.286, 40.87305
1297.768, 37.11719
1298.250, 28.75586
1298.732, 16.29297
1299.214, 5.976563
1299.696, 1.493164
1300.178, 0.0000000E+00
##END=



