##NAMES=Dondoellite
##RRUFFID=R210003
##IDEAL CHEMISTRY=Ca_2_Fe^2+^(PO_4_)_2_&#183;2H_2_O
##LOCALITY=Grizzly Bear Creek, Stoneman Camp (Area B; Area 2), Rapid Creek, Dawson mining district, Yukon, Canada
##OWNER=RRUFF
##SOURCE=Donald Doell
##DESCRIPTION=Spherical aggregates of radiating bladed straw-yellow or colorless crystals, on top of orange-brown siderite and white apatite. Type sample
##STATUS=The identification of this mineral is confirmed by single-crystal X-ray diffraction and chemical analysis.
##URL=rruff.info/R210003
##MEASURED CHEMISTRY=Ca_1.99_(Fe_0.89_Mg_0.13_Mn_0.01_)(P_1.00_O_4_)_2_Â·2H_2_O
88.13672, 0.0000000E+00
88.61884, 2.0660000E-02
89.10095, 0.9043580
89.58307, 2.645386
90.06519, 4.598206
90.54730, 5.810150
91.02942, 6.585876
91.51154, 7.240173
91.99365, 8.711121
92.47577, 10.55057
92.95789, 11.47995
93.44000, 10.18851
93.92212, 6.852295
94.40424, 4.624023
94.88635, 4.022797
95.36847, 4.254089
95.85059, 4.329437
96.33270, 4.225586
96.81482, 3.751801
97.29694, 2.218323
97.77905, 0.2604370
98.26117, 1.142029
98.74329, 0.1151430
99.22540, 2.999268
99.70752, 7.568176
100.1896, 12.92462
100.6718, 17.32874
101.1539, 18.60046
101.6360, 15.84705
102.1181, 14.45016
102.6002, 15.75919
103.0823, 19.17386
103.5645, 20.17651
104.0466, 18.18832
104.5287, 14.74612
105.0108, 10.88971
105.4929, 5.716309
105.9750, 1.836243
106.4572, 4.8705999E-02
106.9393, 0.2739870
107.4214, 0.6289980
107.9035, 1.501740
108.3856, 2.235748
108.8677, 2.083252
109.3499, 0.1269840
109.8320, 2.015594
110.3141, 3.260712
110.7962, 4.095673
111.2783, 3.563477
111.7604, 1.049255
112.2426, 2.771912
112.7247, 6.817719
113.2068, 10.75293
113.6889, 15.01944
114.1710, 19.87656
114.6531, 25.93066
115.1353, 31.45477
115.6174, 36.26425
116.0995, 40.28641
116.5816, 43.42404
117.0637, 43.58041
117.5458, 43.96970
118.0280, 46.94452
118.5101, 54.58273
118.9922, 62.98874
119.4743, 69.60406
119.9564, 74.96719
120.4385, 81.35110
120.9207, 90.75583
121.4028, 101.6749
121.8849, 112.3970
122.3670, 123.0544
122.8491, 132.9273
123.3312, 142.3816
123.8134, 151.2610
124.2955, 156.4447
124.7776, 154.6031
125.2597, 147.1403
125.7418, 136.9597
126.2239, 122.4839
126.7061, 106.6105
127.1882, 94.76370
127.6703, 87.07773
128.1524, 81.05377
128.6345, 73.90912
129.1166, 66.05234
129.5988, 59.27188
130.0809, 55.25131
130.5630, 53.12753
131.0451, 49.59143
131.5272, 44.12714
132.0093, 38.57422
132.4915, 36.07669
132.9736, 36.63095
133.4557, 37.14005
133.9378, 35.29800
134.4199, 31.31006
134.9020, 29.08145
135.3842, 29.17902
135.8663, 30.77182
136.3484, 32.26904
136.8305, 33.66513
137.3126, 34.86484
137.7947, 35.42773
138.2769, 35.06546
138.7590, 36.27441
139.2411, 40.13925
139.7232, 45.54828
140.2053, 47.83548
140.6874, 46.34125
141.1696, 43.16595
141.6517, 39.63171
142.1338, 35.55170
142.6159, 31.60294
143.0980, 27.68521
143.5801, 23.90591
144.0623, 21.11682
144.5444, 19.76273
145.0265, 18.95978
145.5086, 18.02881
145.9907, 16.56793
146.4728, 15.22461
146.9550, 14.12308
147.4371, 13.29575
147.9192, 12.18396
148.4013, 10.06808
148.8834, 8.083588
149.3655, 7.290009
149.8477, 9.296936
150.3298, 10.76837
150.8119, 10.79510
151.2940, 8.962128
151.7761, 7.992188
152.2583, 8.826019
152.7404, 10.23599
153.2225, 10.94550
153.7046, 9.179932
154.1867, 8.242157
154.6688, 9.401825
155.1510, 13.46893
155.6331, 16.69049
156.1152, 17.78635
156.5973, 17.89420
157.0794, 18.41953
157.5615, 19.67969
158.0437, 21.40930
158.5258, 23.40155
159.0079, 25.41995
159.4900, 28.37366
159.9721, 32.57343
160.4542, 37.87564
160.9364, 44.02768
161.4185, 50.96661
161.9006, 58.70285
162.3827, 67.33524
162.8648, 77.12506
163.3469, 87.19711
163.8291, 97.62411
164.3112, 108.0214
164.7933, 117.7743
165.2754, 129.6238
165.7575, 139.0212
166.2396, 142.1430
166.7218, 136.5540
167.2039, 127.8215
167.6860, 118.4751
168.1681, 108.6141
168.6502, 98.20959
169.1323, 86.91034
169.6145, 75.42993
170.0966, 64.27359
170.5787, 53.00494
171.0608, 42.91278
171.5429, 35.43222
172.0250, 30.18442
172.5072, 25.73364
172.9893, 21.06885
173.4714, 16.54486
173.9535, 12.65302
174.4356, 9.552795
174.9177, 7.081696
175.3999, 4.980133
175.8820, 3.263947
176.3641, 2.180389
176.8462, 2.143829
177.3283, 2.821991
177.8104, 3.560089
178.2926, 3.961945
178.7747, 4.519440
179.2568, 6.176971
179.7389, 8.870789
180.2210, 11.61710
180.7031, 13.26761
181.1853, 14.24771
181.6674, 15.65463
182.1495, 17.99500
182.6316, 20.84915
183.1137, 23.34604
183.5958, 25.50040
184.0780, 27.60492
184.5601, 30.45602
185.0422, 33.65039
185.5243, 35.65274
186.0064, 35.28467
186.4885, 33.58801
186.9707, 33.43976
187.4528, 34.96017
187.9349, 36.81744
188.4170, 37.59610
188.8991, 37.42007
189.3812, 37.19452
189.8634, 36.74472
190.3455, 36.49792
190.8276, 38.30930
191.3097, 42.42523
191.7918, 47.41040
192.2739, 51.44086
192.7561, 54.60385
193.2382, 58.62738
193.7203, 64.71786
194.2024, 72.28650
194.6845, 78.12463
195.1666, 82.01288
195.6488, 84.71924
196.1309, 87.29999
196.6130, 89.83972
197.0951, 91.11624
197.5772, 90.75903
198.0593, 88.79843
198.5415, 85.23029
199.0236, 79.70685
199.5057, 73.58099
199.9878, 68.47662
200.4699, 64.41260
200.9520, 61.35324
201.4342, 59.42499
201.9163, 58.61353
202.3984, 58.38361
202.8805, 58.74921
203.3626, 59.71069
203.8447, 61.26221
204.3269, 63.42474
204.8090, 66.47192
205.2911, 70.60583
205.7732, 75.76410
206.2553, 79.91501
206.7374, 82.37653
207.2196, 85.10672
207.7017, 91.02539
208.1838, 100.8823
208.6659, 110.7744
209.1480, 119.6627
209.6301, 127.7097
210.1123, 134.5880
210.5944, 140.2159
211.0765, 144.7211
211.5586, 148.2749
212.0407, 150.8083
212.5228, 152.4076
213.0050, 152.9799
213.4871, 152.4484
213.9692, 151.6618
214.4513, 150.5968
214.9334, 149.3892
215.4155, 148.0038
215.8977, 145.9977
216.3798, 144.9426
216.8619, 145.6484
217.3440, 148.4351
217.8261, 150.1970
218.3082, 150.1995
218.7904, 149.9067
219.2725, 151.5693
219.7546, 156.1350
220.2367, 160.5694
220.7188, 163.9111
221.2009, 166.0278
221.6831, 168.1203
222.1652, 169.7455
222.6473, 171.7693
223.1294, 175.5316
223.6115, 182.0652
224.0936, 188.3425
224.5758, 193.6490
225.0579, 197.8927
225.5400, 201.6616
226.0221, 205.1113
226.5042, 207.9540
226.9863, 209.7375
227.4685, 210.2770
227.9506, 210.1188
228.4327, 209.4944
228.9148, 208.4846
229.3969, 206.2156
229.8790, 202.4822
230.3612, 197.6416
230.8433, 192.1400
231.3254, 185.9253
231.8075, 179.0028
232.2896, 171.3302
232.7717, 162.9194
233.2539, 153.7418
233.7360, 142.9067
234.2181, 132.3208
234.7002, 124.3576
235.1823, 121.0082
235.6644, 116.8057
236.1466, 110.1825
236.6287, 100.8817
237.1108, 92.69495
237.5929, 85.40137
238.0750, 79.61346
238.5571, 76.15582
239.0393, 75.94717
239.5214, 76.42642
240.0035, 77.38641
240.4856, 78.90305
240.9677, 79.51437
241.4498, 78.51401
241.9320, 77.27536
242.4141, 76.99078
242.8962, 77.43668
243.3783, 79.28278
243.8604, 83.11890
244.3425, 88.93143
244.8247, 93.82468
245.3068, 97.81146
245.7889, 100.8275
246.2710, 102.9348
246.7531, 104.4847
247.2352, 104.3469
247.7174, 101.8263
248.1995, 97.10114
248.6816, 93.14624
249.1637, 90.59521
249.6458, 88.08337
250.1279, 84.57074
250.6101, 79.77670
251.0922, 74.56647
251.5743, 69.00577
252.0564, 63.12927
252.5385, 57.18896
253.0206, 50.50073
253.5028, 44.62582
253.9849, 41.17728
254.4670, 41.84769
254.9491, 40.59692
255.4312, 36.02545
255.9133, 28.92072
256.3955, 23.26157
256.8776, 19.33951
257.3597, 16.35986
257.8418, 13.99530
258.3239, 12.63803
258.8061, 10.64429
259.2882, 7.414337
259.7703, 3.497192
260.2524, 1.240509
260.7345, 1.532104
261.2166, 1.837769
261.6988, 0.4776920
262.1809, 3.424622
262.6630, 5.876831
263.1451, 6.148865
263.6272, 5.086578
264.1093, 5.148346
264.5915, 6.986755
265.0736, 8.455200
265.5557, 8.246887
266.0378, 5.675720
266.5199, 4.289825
267.0020, 4.542603
267.4842, 5.688934
267.9663, 6.234253
268.4484, 6.149231
268.9305, 5.564056
269.4126, 4.443695
269.8947, 2.679504
270.3769, 0.9303890
270.8590, 0.9079280
271.3411, 2.594513
271.8232, 3.307434
272.3053, 2.477661
272.7874, 2.859924
273.2696, 6.113770
273.7517, 12.49142
274.2338, 16.68875
274.7159, 18.14062
275.1980, 18.52927
275.6801, 20.42508
276.1623, 24.24503
276.6444, 26.98044
277.1265, 26.86456
277.6086, 24.24594
278.0907, 25.15240
278.5728, 30.35654
279.0550, 36.88440
279.5371, 41.17090
280.0192, 42.99741
280.5013, 45.64978
280.9834, 50.20670
281.4655, 56.30588
281.9477, 62.28674
282.4298, 68.18912
282.9119, 73.54752
283.3940, 77.55014
283.8761, 80.22195
284.3582, 83.36459
284.8404, 87.44461
285.3225, 92.20032
285.8046, 96.89655
286.2867, 101.4824
286.7688, 106.0782
287.2509, 111.6483
287.7331, 117.8210
288.2152, 120.9965
288.6973, 119.8753
289.1794, 116.3744
289.6615, 114.3288
290.1436, 113.7075
290.6258, 113.7952
291.1079, 115.0617
291.5900, 116.9253
292.0721, 116.6133
292.5542, 113.5394
293.0363, 108.7576
293.5185, 103.5305
294.0006, 97.85638
294.4827, 92.37256
294.9648, 87.32483
295.4469, 82.61697
295.9290, 78.15994
296.4112, 73.96677
296.8933, 69.83258
297.3754, 65.43805
297.8575, 60.87399
298.3396, 56.35425
298.8217, 52.01843
299.3039, 47.82733
299.7860, 43.59625
300.2681, 39.25958
300.7502, 35.69781
301.2323, 34.66196
301.7144, 35.11853
302.1966, 34.63806
302.6787, 31.29431
303.1608, 27.08600
303.6429, 24.47864
304.1250, 23.45004
304.6071, 22.88428
305.0893, 21.73145
305.5714, 20.44543
306.0535, 19.78336
306.5356, 20.07562
307.0177, 21.05804
307.4998, 22.91568
307.9820, 25.46808
308.4641, 27.63425
308.9462, 27.85489
309.4283, 27.67441
309.9104, 28.77112
310.3925, 32.15714
310.8747, 36.06537
311.3568, 39.50620
311.8389, 42.52698
312.3210, 45.24872
312.8031, 46.70453
313.2852, 48.53604
313.7674, 52.38184
314.2495, 59.19104
314.7316, 65.72742
315.2137, 69.65179
315.6958, 72.25049
316.1779, 75.72595
316.6601, 81.89221
317.1422, 88.36237
317.6243, 93.94540
318.1064, 98.42877
318.5885, 102.4263
319.0706, 106.2290
319.5528, 109.5927
320.0349, 112.1132
320.5170, 112.7471
320.9991, 113.6943
321.4812, 116.2313
321.9633, 120.3533
322.4455, 123.0973
322.9276, 122.9136
323.4097, 121.8034
323.8918, 121.3246
324.3739, 121.8055
324.8560, 122.5592
325.3382, 123.9259
325.8203, 125.7089
326.3024, 126.4108
326.7845, 126.3802
327.2666, 124.9911
327.7487, 121.8714
328.2309, 114.5210
328.7130, 108.9248
329.1951, 106.2894
329.6772, 105.2914
330.1593, 102.6203
330.6414, 96.80127
331.1236, 91.08105
331.6057, 86.69339
332.0878, 84.43375
332.5699, 81.03659
333.0520, 75.91373
333.5341, 70.07840
334.0163, 65.06390
334.4984, 61.43478
334.9805, 57.59869
335.4626, 52.88477
335.9447, 47.19785
336.4268, 42.79483
336.9090, 40.14224
337.3911, 37.99200
337.8732, 35.09888
338.3553, 31.24222
338.8374, 27.45447
339.3195, 23.54062
339.8017, 19.86539
340.2838, 18.37628
340.7659, 19.66125
341.2480, 21.00848
341.7301, 20.17392
342.2122, 17.04419
342.6944, 14.78824
343.1765, 13.99512
343.6586, 13.83698
344.1407, 12.54721
344.6228, 10.11276
345.1049, 7.590942
345.5871, 5.415894
346.0692, 3.602570
346.5513, 2.522980
347.0334, 2.300110
347.5155, 2.314697
347.9977, 1.838745
348.4798, 0.9252010
348.9619, 0.1628720
349.4440, 1.774597
349.9261, 3.338684
350.4082, 3.386993
350.8904, 1.926819
351.3725, 0.4125370
351.8546, 0.3029170
352.3367, 1.050354
352.8188, 1.448639
353.3009, 0.8479610
353.7831, 0.1540530
354.2652, 0.6936650
354.7473, 2.168304
355.2294, 3.198029
355.7115, 2.470642
356.1936, 1.036377
356.6758, 2.2430001E-02
357.1579, 0.5556340
357.6400, 0.6388240
358.1221, 7.5684004E-02
358.6042, 1.172607
359.0863, 1.850098
359.5685, 1.291809
360.0506, 0.5318600
360.5327, 0.2083440
361.0148, 0.4046630
361.4969, 0.7312010
361.9790, 1.448303
362.4612, 2.053558
362.9433, 2.022675
363.4254, 0.6864620
363.9075, 0.7702940
364.3896, 2.346893
364.8717, 3.932495
365.3539, 4.487366
365.8360, 2.047852
366.3181, 0.3479610
366.8002, 0.9014890
367.2823, 2.668823
367.7644, 5.408447
368.2466, 6.688171
368.7287, 6.898010
369.2108, 7.151428
369.6929, 8.027802
370.1750, 8.343414
370.6571, 7.533020
371.1393, 5.039246
371.6214, 3.273865
372.1035, 2.358307
372.5856, 2.076813
373.0677, 2.140808
373.5498, 2.456970
374.0320, 3.404724
374.5141, 5.490753
374.9962, 8.552979
375.4783, 9.863953
375.9604, 8.790833
376.4425, 7.356415
376.9247, 7.273407
377.4068, 8.728882
377.8889, 10.13913
378.3710, 11.32739
378.8531, 12.32233
379.3352, 13.08057
379.8174, 13.55313
380.2995, 14.26086
380.7816, 15.68567
381.2637, 17.68738
381.7458, 19.22781
382.2279, 20.21942
382.7101, 20.95847
383.1922, 21.72275
383.6743, 22.53897
384.1564, 23.50800
384.6385, 24.53604
385.1206, 25.81262
385.6028, 28.02551
386.0849, 31.11044
386.5670, 33.82330
387.0491, 34.77097
387.5312, 34.81180
388.0133, 35.40692
388.4955, 37.16318
388.9776, 39.12854
389.4597, 40.26135
389.9418, 40.87805
390.4239, 41.87372
390.9060, 44.05984
391.3882, 46.59485
391.8703, 48.69958
392.3524, 50.15637
392.8345, 52.01028
393.3166, 55.25159
393.7987, 59.05161
394.2809, 62.31976
394.7630, 63.94748
395.2451, 65.77664
395.7272, 68.80496
396.2093, 72.92651
396.6914, 76.29178
397.1736, 77.55170
397.6557, 78.57248
398.1378, 80.50150
398.6199, 84.07898
399.1020, 87.74039
399.5841, 91.32776
400.0663, 94.97021
400.5484, 98.99030
401.0305, 103.5349
401.5126, 108.2797
401.9947, 113.2823
402.4768, 118.6842
402.9590, 123.2409
403.4411, 126.4178
403.9232, 129.3319
404.4053, 133.3667
404.8874, 138.9588
405.3695, 144.2783
405.8517, 148.9071
406.3338, 152.9981
406.8159, 157.2472
407.2980, 161.4872
407.7801, 166.4678
408.2622, 172.7338
408.7444, 180.3781
409.2265, 189.1037
409.7086, 198.8975
410.1907, 209.4722
410.6728, 221.0502
411.1549, 233.4982
411.6371, 245.2964
412.1192, 254.3476
412.6013, 262.3470
413.0834, 272.9491
413.5655, 286.2150
414.0476, 300.5903
414.5298, 316.3300
415.0119, 331.9550
415.4940, 345.1991
415.9761, 354.0763
416.4582, 362.1196
416.9403, 372.7505
417.4225, 385.0905
417.9046, 396.3515
418.3867, 404.3324
418.8688, 410.9538
419.3509, 417.8746
419.8330, 425.8842
420.3152, 431.3076
420.7973, 431.3705
421.2794, 428.7728
421.7615, 426.5320
422.2436, 426.1136
422.7257, 425.2877
423.2079, 423.7969
423.6900, 421.5241
424.1721, 417.7429
424.6542, 410.0461
425.1363, 402.8247
425.6184, 398.1074
426.1006, 398.0492
426.5827, 396.6557
427.0648, 392.9236
427.5469, 388.2220
428.0290, 385.3075
428.5111, 385.5494
428.9933, 384.4307
429.4754, 380.1214
429.9575, 372.8021
430.4396, 367.6189
430.9217, 365.2716
431.4038, 362.7944
431.8860, 357.1888
432.3681, 348.4479
432.8502, 340.4579
433.3323, 334.0768
433.8144, 328.4124
434.2965, 322.1098
434.7787, 315.2216
435.2608, 307.4668
435.7429, 298.2450
436.2250, 288.1621
436.7071, 278.7235
437.1892, 269.9634
437.6714, 261.4686
438.1535, 253.0255
438.6356, 244.7612
439.1177, 236.9009
439.5998, 230.0224
440.0819, 223.0431
440.5641, 214.0992
441.0462, 204.0355
441.5283, 195.9117
442.0104, 193.4743
442.4925, 192.0760
442.9746, 188.0963
443.4568, 180.1121
443.9389, 173.7838
444.4210, 172.3348
444.9031, 173.0976
445.3852, 172.7565
445.8673, 169.9615
446.3495, 166.7589
446.8316, 163.3072
447.3137, 159.6436
447.7958, 156.3857
448.2779, 153.3576
448.7600, 150.8187
449.2422, 149.2511
449.7243, 150.0813
450.2064, 148.6938
450.6885, 144.5659
451.1706, 138.7441
451.6527, 132.9161
452.1349, 126.8739
452.6170, 120.9043
453.0991, 115.0354
453.5812, 109.4140
454.0633, 104.9481
454.5454, 101.7174
455.0276, 98.64655
455.5097, 94.77896
455.9918, 90.27786
456.4739, 86.22772
456.9560, 82.95151
457.4381, 79.75870
457.9203, 75.50143
458.4024, 70.44238
458.8845, 65.46472
459.3666, 60.89853
459.8488, 56.89072
460.3309, 53.81406
460.8130, 51.55917
461.2951, 49.42432
461.7772, 47.50150
462.2593, 45.58954
462.7415, 43.39105
463.2236, 40.46649
463.7057, 37.92715
464.1878, 36.08496
464.6699, 34.97736
465.1520, 34.65286
465.6342, 36.69565
466.1163, 38.06049
466.5984, 37.85498
467.0805, 35.97574
467.5626, 32.83527
468.0447, 26.69873
468.5269, 20.75778
469.0090, 17.21167
469.4911, 17.19550
469.9732, 17.35425
470.4553, 17.66614
470.9374, 17.92401
471.4196, 17.66373
471.9017, 16.84790
472.3838, 15.59976
472.8659, 13.53989
473.3480, 10.87073
473.8301, 10.17722
474.3123, 11.70798
474.7944, 13.54572
475.2765, 14.04813
475.7586, 13.35776
476.2407, 11.84259
476.7228, 9.163666
477.2050, 6.610291
477.6871, 6.469604
478.1692, 8.037079
478.6513, 9.093018
479.1334, 7.887268
479.6155, 5.975372
480.0977, 4.759430
480.5798, 4.294525
481.0619, 4.257050
481.5440, 5.402618
482.0261, 6.406372
482.5082, 5.956757
482.9904, 2.214111
483.4725, 0.6849670
483.9546, 1.234619
484.4367, 0.1570740
484.9188, 1.010956
485.4009, 3.256348
485.8831, 4.335510
486.3652, 3.058197
486.8473, 0.8330990
487.3294, 2.932343
487.8115, 2.437469
488.2936, 1.089386
488.7758, 1.3397000E-02
489.2579, 0.9824520
489.7400, 1.184967
490.2221, 0.2480470
490.7042, 1.085876
491.1863, 0.9930730
491.6685, 0.6565550
492.1506, 1.439056
492.6327, 0.2998660
493.1148, 3.569794
493.5969, 4.818726
494.0790, 4.074860
494.5612, 2.629272
495.0433, 0.9153140
495.5254, 0.6476440
496.0075, 1.095642
496.4896, 8.1634998E-02
496.9717, 1.346741
497.4539, 1.456421
497.9360, 0.6651610
498.4181, 0.5718990
498.9002, 3.574188
499.3823, 5.656342
499.8644, 4.461731
500.3466, 0.3789980
500.8287, 2.363068
501.3108, 1.603058
501.7929, 0.2360230
502.2750, 1.851044
502.7571, 3.400085
503.2393, 4.206787
503.7214, 4.165070
504.2035, 3.444855
504.6856, 2.040619
505.1677, 1.104279
505.6498, 2.656036
506.1320, 1.348297
506.6141, 2.097198
507.0962, 3.645294
507.5783, 3.037506
508.0604, 1.610168
508.5425, 0.4180600
509.0247, 2.856964
509.5068, 3.516479
509.9889, 2.102722
510.4710, 7.0343003E-02
510.9531, 0.9359440
511.4352, 1.208496
511.9174, 1.697968
512.3995, 3.175629
512.8816, 4.346130
513.3637, 3.338348
513.8458, 0.7624210
514.3279, 1.412659
514.8101, 2.144501
515.2922, 2.097015
515.7743, 1.346954
516.2564, 0.2231750
516.7385, 0.9314270
517.2206, 1.084320
517.7028, 3.501923
518.1849, 4.446533
518.6670, 1.910614
519.1491, 6.0943998E-02
519.6312, 0.5047910
520.1133, 0.2856140
520.5955, 0.3100890
521.0776, 0.4250490
521.5597, 1.093689
522.0418, 2.780914
522.5239, 5.393433
523.0060, 6.582947
523.4882, 6.076599
523.9703, 5.127380
524.4524, 4.678955
524.9345, 4.687866
525.4166, 4.512177
525.8987, 3.887909
526.3809, 3.771729
526.8630, 6.381104
527.3451, 10.69525
527.8272, 13.40701
528.3093, 11.88290
528.7914, 9.336334
529.2736, 9.082611
529.7557, 10.76215
530.2378, 12.75543
530.7199, 15.27182
531.2020, 17.08835
531.6841, 16.73810
532.1663, 13.25488
532.6484, 11.49768
533.1305, 14.81329
533.6126, 19.37231
534.0947, 21.56281
534.5768, 17.98715
535.0590, 16.14865
535.5411, 17.12393
536.0232, 20.07071
536.5053, 22.82437
536.9874, 25.51242
537.4695, 27.53641
537.9517, 28.28555
538.4338, 27.92908
538.9159, 28.92252
539.3980, 31.40506
539.8801, 34.33316
540.3622, 36.57245
540.8444, 38.42316
541.3265, 41.32571
541.8086, 45.77783
542.2907, 50.49155
542.7728, 53.71060
543.2549, 55.95950
543.7371, 58.34723
544.2192, 61.64392
544.7013, 64.92868
545.1834, 67.09659
545.6655, 68.74295
546.1476, 71.56650
546.6298, 77.07236
547.1119, 83.17801
547.5940, 88.83148
548.0761, 93.84628
548.5582, 98.74329
549.0403, 104.2270
549.5225, 109.4317
550.0046, 113.3265
550.4867, 114.9251
550.9688, 117.1878
551.4509, 121.0646
551.9330, 125.5734
552.4152, 128.0679
552.8973, 128.3137
553.3794, 128.5959
553.8615, 129.9725
554.3436, 131.8864
554.8257, 132.3235
555.3079, 131.3737
555.7900, 129.9866
556.2721, 128.9956
556.7542, 127.9257
557.2363, 125.9298
557.7184, 122.7873
558.2006, 119.5688
558.6827, 117.2914
559.1648, 115.3458
559.6469, 112.7153
560.1290, 108.2230
560.6111, 103.7096
561.0933, 99.65884
561.5754, 96.03754
562.0575, 92.80869
562.5396, 89.81870
563.0217, 87.31519
563.5038, 85.36404
563.9860, 84.14880
564.4681, 83.47272
564.9502, 83.30780
565.4323, 83.48920
565.9144, 83.71442
566.3965, 83.88077
566.8787, 85.22476
567.3608, 88.12445
567.8429, 91.86823
568.3250, 95.24246
568.8071, 98.30417
569.2892, 101.6161
569.7714, 105.2828
570.2535, 109.3439
570.7356, 113.6283
571.2177, 118.3045
571.6998, 123.6697
572.1819, 129.9262
572.6641, 136.9120
573.1462, 144.5605
573.6283, 152.9700
574.1104, 162.0067
574.5925, 172.8696
575.0746, 183.3940
575.5568, 192.1563
576.0389, 197.6160
576.5210, 204.1749
577.0031, 212.7480
577.4852, 221.6308
577.9673, 228.9016
578.4495, 234.8143
578.9316, 238.2484
579.4137, 238.2271
579.8958, 236.1987
580.3779, 236.1721
580.8600, 238.1381
581.3422, 240.2303
581.8243, 240.8469
582.3064, 241.0263
582.7885, 242.9836
583.2706, 246.7279
583.7527, 251.4156
584.2349, 256.8350
584.7170, 262.6927
585.1991, 268.5579
585.6812, 274.1900
586.1633, 280.5149
586.6454, 288.2333
587.1276, 296.7840
587.6097, 305.3828
588.0918, 314.4828
588.5739, 322.9790
589.0560, 330.4152
589.5381, 337.1990
590.0203, 344.4764
590.5024, 352.2628
590.9845, 360.6498
591.4666, 370.0363
591.9487, 380.1270
592.4308, 388.7997
592.9130, 396.0622
593.3951, 402.0101
593.8772, 406.3724
594.3593, 409.4416
594.8414, 411.1444
595.3235, 410.9653
595.8057, 412.8575
596.2878, 420.9224
596.7699, 433.4850
597.2520, 447.9141
597.7341, 463.4897
598.2162, 480.4222
598.6984, 498.9862
599.1805, 518.8286
599.6626, 540.0217
600.1447, 569.2841
600.6268, 592.8828
601.1089, 607.5111
601.5911, 613.5378
602.0732, 613.0647
602.5553, 607.3969
603.0374, 592.5032
603.5195, 564.3593
604.0016, 522.6176
604.4838, 481.4575
604.9659, 441.0511
605.4480, 402.1826
605.9301, 365.4016
606.4122, 330.8351
606.8943, 298.7776
607.3765, 269.4065
607.8586, 242.4185
608.3407, 218.0981
608.8228, 196.1183
609.3049, 176.4361
609.7870, 158.9434
610.2692, 143.5580
610.7513, 130.5501
611.2334, 119.4370
611.7155, 109.4773
612.1976, 100.5912
612.6797, 92.66498
613.1619, 85.60056
613.6440, 79.32779
614.1261, 74.40530
614.6082, 71.48834
615.0903, 68.59702
615.5724, 63.99918
616.0546, 57.66577
616.5367, 52.58536
617.0188, 49.07663
617.5009, 46.16245
617.9830, 42.50317
618.4651, 38.50711
618.9473, 35.45459
619.4294, 34.02017
619.9115, 33.03976
620.3936, 31.01938
620.8757, 28.44107
621.3578, 26.49414
621.8400, 26.72510
622.3221, 26.75754
622.8042, 25.07248
623.2863, 21.74686
623.7684, 19.04309
624.2505, 17.88058
624.7327, 16.84464
625.2148, 15.00381
625.6969, 12.11325
626.1790, 11.52139
626.6611, 14.10336
627.1432, 16.73773
627.6254, 16.48520
628.1075, 13.65274
628.5896, 11.84607
629.0717, 11.47400
629.5538, 11.65680
630.0359, 11.81052
630.5181, 11.76144
631.0002, 11.08176
631.4823, 9.338226
631.9644, 7.479370
632.4465, 5.845886
632.9286, 4.590271
633.4108, 4.045227
633.8929, 5.191284
634.3750, 6.145721
634.8571, 6.095215
635.3392, 5.197998
635.8214, 4.746063
636.3035, 4.904236
636.7856, 5.209900
637.2677, 5.573090
637.7498, 5.993683
638.2319, 5.851715
638.7141, 4.939758
639.1962, 4.232086
639.6783, 5.081543
640.1604, 6.788940
640.6425, 6.909393
641.1246, 5.069244
641.6068, 2.877472
642.0889, 1.611450
642.5710, 0.9742430
643.0531, 0.5925290
643.5352, 0.4981380
644.0173, 0.4374080
644.4995, 0.2136840
644.9816, 1.5930001E-02
645.4637, 1.2054000E-02
645.9458, 0.5489810
646.4279, 1.118378
646.9100, 1.786407
647.3922, 2.395264
647.8743, 1.953552
648.3564, 6.7505002E-02
648.8385, 1.296722
649.3206, 0.1880190
649.8027, 2.593811
650.2849, 3.587982
650.7670, 2.824341
651.2491, 1.549683
651.7312, 0.2806700
652.2133, 0.7271730
652.6954, 0.7920840
653.1776, 0.2778320
653.6597, 0.7091060
654.1418, 1.476563
654.6239, 4.255371
655.1060, 5.791412
655.5881, 5.243408
656.0703, 4.351318
656.5524, 2.971832
657.0345, 1.548553
657.5166, 0.5947880
657.9987, 0.1351320
658.4808, 0.1830140
658.9630, 1.035126
659.4451, 2.105957
659.9272, 1.885437
660.4093, 0.4241640
660.8914, 0.8863530
661.3735, 1.602875
661.8557, 1.761749
662.3378, 0.9927980
662.8199, 0.4064030
663.3020, 1.169617
663.7841, 0.1104130
664.2662, 1.497925
664.7484, 2.974457
665.2305, 4.256287
665.7126, 5.035095
666.1947, 5.494354
666.6768, 5.166992
667.1589, 3.416687
667.6411, 0.7487180
668.1232, 2.182129
668.6053, 7.7087000E-02
669.0874, 3.371216
669.5695, 5.305786
670.0516, 5.909058
670.5338, 6.260742
671.0159, 6.469635
671.4980, 6.442535
671.9801, 5.784027
672.4622, 4.818207
672.9443, 4.353027
673.4265, 4.981293
673.9086, 5.606445
674.3907, 5.619720
674.8728, 5.119934
675.3549, 4.287354
675.8370, 2.870239
676.3192, 1.486786
676.8013, 0.1214600
677.2834, 1.594360
677.7655, 1.153381
678.2476, 2.615234
678.7297, 4.889343
679.2119, 2.989044
679.6940, 2.038391
680.1761, 3.466949
680.6582, 1.192719
681.1403, 1.286835
681.6224, 0.8091130
682.1046, 0.8199460
682.5867, 0.2985840
683.0688, 2.544434
683.5509, 5.627258
684.0330, 8.946289
684.5151, 11.09857
684.9973, 10.49103
685.4794, 5.507843
685.9615, 1.989014
686.4436, 1.869202
686.9257, 2.936646
687.4078, 3.538940
687.8900, 3.663391
688.3721, 3.298645
688.8542, 2.214600
689.3363, 1.086212
689.8184, 1.218994
690.3005, 2.431213
690.7827, 2.998047
691.2648, 2.025574
691.7469, 1.064178
692.2290, 2.927643
692.7111, 6.330475
693.1932, 8.331146
693.6754, 6.670563
694.1575, 4.250244
694.6396, 2.069214
695.1217, 0.2189640
695.6038, 1.077881
696.0859, 1.669739
696.5681, 1.789459
697.0502, 1.293488
697.5323, 0.2746580
698.0144, 0.1783750
698.4965, 7.6447003E-02
698.9786, 0.2377320
699.4608, 0.2910160
699.9429, 1.321228
700.4250, 2.183746
700.9071, 2.878906
701.3892, 3.170410
701.8713, 2.606384
702.3535, 1.698364
702.8356, 0.8164670
703.3177, 7.7728003E-02
703.7998, 0.2143550
704.2819, 1.293732
704.7640, 3.282837
705.2462, 4.918304
705.7283, 6.447540
706.2104, 6.793701
706.6925, 5.121521
707.1746, 3.283173
707.6567, 3.572449
708.1389, 6.095276
708.6210, 7.343170
709.1031, 6.486389
709.5852, 5.259705
710.0673, 6.411285
710.5494, 9.045441
711.0316, 10.96918
711.5137, 11.28119
711.9958, 10.72662
712.4779, 9.194397
712.9600, 7.241119
713.4421, 5.904297
713.9243, 5.874115
714.4064, 6.036255
714.8885, 6.141144
715.3706, 6.237793
715.8527, 6.655121
716.3348, 7.621918
716.8170, 7.937286
717.2991, 6.893646
717.7812, 5.100281
718.2633, 4.170654
718.7454, 4.038483
719.2275, 4.783600
719.7097, 7.435486
720.1918, 10.37543
720.6739, 11.61203
721.1560, 11.25211
721.6381, 11.02896
722.1202, 12.11612
722.6024, 13.06894
723.0845, 12.93158
723.5666, 11.47467
724.0487, 10.56778
724.5308, 10.51538
725.0129, 10.54538
725.4951, 9.994263
725.9772, 8.786652
726.4593, 8.537567
726.9414, 9.218018
727.4235, 10.06784
727.9056, 10.55353
728.3878, 10.67630
728.8699, 10.32187
729.3520, 9.397614
729.8341, 8.534729
730.3162, 8.059509
730.7983, 7.890259
731.2805, 7.957611
731.7626, 8.391449
732.2447, 8.805481
732.7268, 9.178436
733.2089, 9.507416
733.6910, 9.908234
734.1732, 10.54449
734.6553, 10.21811
735.1374, 8.443054
735.6195, 6.343170
736.1016, 5.220734
736.5837, 4.986908
737.0659, 5.922577
737.5480, 8.953064
738.0301, 11.19986
738.5122, 9.091400
738.9943, 4.842865
739.4764, 2.247955
739.9586, 4.552917
740.4407, 6.277313
740.9228, 5.145416
741.4049, 2.646667
741.8870, 2.414307
742.3691, 5.530487
742.8513, 7.624176
743.3334, 7.228546
743.8155, 5.359802
744.2976, 4.790924
744.7797, 5.390564
745.2618, 5.954468
745.7440, 5.740234
746.2261, 5.294495
746.7082, 5.101959
747.1903, 5.162842
747.6724, 5.494080
748.1545, 6.173859
748.6367, 7.050201
749.1188, 8.345245
749.6009, 9.958740
750.0830, 10.68323
750.5651, 10.44867
751.0472, 9.425964
751.5294, 7.281006
752.0115, 4.323853
752.4936, 2.804596
752.9757, 2.687439
753.4578, 3.300476
753.9399, 4.830017
754.4221, 6.616638
754.9042, 7.895630
755.3863, 8.651215
755.8684, 8.637268
756.3505, 6.654480
756.8326, 4.679596
757.3148, 4.025665
757.7969, 4.999390
758.2790, 5.963654
758.7611, 6.893951
759.2432, 7.841553
759.7253, 8.943848
760.2075, 10.20685
760.6896, 10.88577
761.1717, 10.92267
761.6538, 10.70035
762.1359, 10.76581
762.6180, 10.74841
763.1002, 9.856659
763.5823, 7.879791
764.0644, 6.327271
764.5465, 6.183716
765.0286, 6.665344
765.5107, 7.163727
765.9929, 7.593842
766.4750, 8.149811
766.9571, 8.983124
767.4392, 9.741608
767.9213, 10.00647
768.4034, 9.763214
768.8856, 9.897949
769.3677, 10.54095
769.8498, 11.15973
770.3319, 10.90463
770.8140, 10.30167
771.2961, 10.48639
771.7783, 12.09164
772.2604, 13.06894
772.7425, 11.28412
773.2246, 8.872131
773.7067, 8.083923
774.1888, 11.52554
774.6710, 12.57172
775.1531, 9.942261
775.6352, 6.425262
776.1173, 5.624329
776.5994, 7.553253
777.0815, 9.292267
777.5637, 10.51755
778.0458, 11.14111
778.5279, 10.56723
779.0100, 9.398590
779.4921, 8.705902
779.9742, 8.759186
780.4564, 9.443420
780.9385, 11.74768
781.4206, 14.27097
781.9027, 14.92120
782.3848, 11.74490
782.8669, 10.24777
783.3491, 11.56293
783.8312, 13.88998
784.3133, 14.03647
784.7954, 12.14893
785.2775, 10.78976
785.7596, 10.54440
786.2418, 11.15704
786.7239, 13.22830
787.2060, 15.72849
787.6881, 16.78680
788.1702, 14.44855
788.6523, 12.35086
789.1345, 12.04529
789.6166, 12.71548
790.0987, 12.91003
790.5808, 12.44409
791.0629, 11.81531
791.5450, 10.83304
792.0272, 10.14392
792.5093, 11.50931
792.9914, 14.58502
793.4735, 16.59741
793.9556, 16.55740
794.4377, 15.51526
794.9199, 13.97125
795.4020, 12.36658
795.8841, 11.55701
796.3662, 11.87048
796.8483, 12.88434
797.3304, 15.35623
797.8126, 18.21722
798.2947, 19.54446
798.7768, 19.00342
799.2589, 17.79092
799.7410, 15.55975
800.2231, 13.58704
800.7053, 15.03653
801.1874, 18.97675
801.6695, 21.50238
802.1516, 20.91873
802.6337, 19.23059
803.1158, 17.33469
803.5980, 15.75702
804.0801, 15.22006
804.5622, 17.49869
805.0443, 18.89291
805.5264, 18.50616
806.0085, 17.13800
806.4907, 16.12354
806.9728, 15.44144
807.4549, 15.30112
807.9370, 15.93008
808.4191, 16.59579
808.9012, 15.70248
809.3834, 13.97076
809.8655, 13.36548
810.3476, 15.19489
810.8297, 17.41473
811.3118, 18.79788
811.7939, 19.71439
812.2761, 20.77859
812.7582, 22.65134
813.2403, 23.98236
813.7224, 24.77512
814.2045, 24.85797
814.6866, 23.40399
815.1688, 20.53754
815.6509, 19.14365
816.1330, 20.38809
816.6151, 22.30774
817.0972, 21.95959
817.5793, 20.47833
818.0615, 20.00916
818.5436, 22.44330
819.0257, 24.49234
819.5078, 24.25983
819.9899, 23.16357
820.4720, 23.60446
820.9542, 27.00873
821.4363, 28.75861
821.9184, 27.85208
822.4005, 25.70044
822.8826, 24.26010
823.3647, 23.47675
823.8469, 23.61926
824.3290, 25.27591
824.8111, 26.72156
825.2932, 26.21030
825.7753, 24.68765
826.2574, 23.44312
826.7396, 22.72519
827.2217, 22.30783
827.7038, 22.03735
828.1859, 22.13187
828.6681, 23.21631
829.1502, 25.51978
829.6323, 25.95377
830.1144, 23.81528
830.5966, 21.13062
831.0787, 20.09595
831.5608, 19.99774
832.0429, 19.64185
832.5250, 18.60495
833.0071, 18.31201
833.4893, 20.57620
833.9714, 23.22183
834.4535, 23.91232
834.9356, 21.07956
835.4177, 19.66840
835.8998, 19.95251
836.3820, 21.24399
836.8641, 23.59787
837.3462, 26.55634
837.8283, 26.89212
838.3104, 23.97952
838.7925, 20.97629
839.2747, 21.33929
839.7568, 22.71750
840.2389, 22.13031
840.7210, 18.03809
841.2031, 15.77341
841.6852, 18.69061
842.1674, 21.66010
842.6495, 20.85709
843.1316, 15.23346
843.6137, 13.36322
844.0958, 15.77118
844.5779, 18.73807
845.0601, 18.94482
845.5422, 17.39322
846.0243, 15.56943
846.5064, 13.61130
846.9885, 12.45508
847.4706, 13.86057
847.9528, 15.24017
848.4349, 14.66406
848.9170, 11.77817
849.3991, 9.518951
849.8812, 7.790466
850.3633, 6.913330
850.8455, 7.372009
851.3276, 8.898010
851.8097, 10.17044
852.2918, 11.18042
852.7739, 11.70993
853.2560, 10.92221
853.7382, 10.11813
854.2203, 11.05157
854.7024, 13.49203
855.1845, 13.97592
855.6666, 9.618439
856.1487, 5.883423
856.6309, 4.742126
857.1130, 5.667419
857.5951, 5.444794
858.0772, 4.034363
858.5593, 3.310852
859.0414, 5.220825
859.5236, 7.612152
860.0057, 6.830933
860.4878, 3.814331
860.9699, 1.510040
861.4520, 1.578400
861.9341, 2.057404
862.4163, 2.521149
862.8984, 2.857880
863.3805, 2.705109
863.8626, 1.913177
864.3447, 1.160645
864.8268, 0.5057680
865.3090, 0.1468200
865.7911, 0.9868770
866.2732, 2.472168
866.7553, 2.879883
867.2374, 0.7880550
867.7195, 1.353119
868.2017, 2.257294
868.6838, 2.273773
869.1659, 1.870880
869.6480, 0.6227720
870.1301, 4.4188999E-02
870.6122, 0.1504210
871.0944, 0.7093510
871.5765, 0.7933960
872.0586, 0.5556950
872.5407, 0.9528200
873.0228, 2.227814
873.5049, 3.797638
873.9871, 5.605347
874.4692, 7.200775
874.9513, 8.038422
875.4334, 7.721588
875.9155, 7.366211
876.3976, 7.293762
876.8798, 6.960541
877.3619, 5.456055
877.8440, 2.694580
878.3261, 2.445160
878.8082, 5.022095
879.2903, 7.735046
879.7725, 8.521576
880.2546, 7.976166
880.7367, 6.420013
881.2188, 3.881378
881.7009, 2.005859
882.1830, 1.478119
882.6652, 1.678833
883.1473, 2.488312
883.6294, 3.872955
884.1115, 4.737640
884.5936, 5.037689
885.0757, 5.120270
885.5579, 5.309204
886.0400, 5.355011
886.5221, 4.285400
887.0042, 2.519104
887.4863, 1.751221
887.9684, 4.728333
888.4506, 6.913055
888.9327, 5.154449
889.4148, 0.9791870
889.8969, 0.2199710
890.3790, 2.692932
890.8611, 4.580444
891.3433, 3.781189
891.8254, 1.646179
892.3075, 0.3927610
892.7896, 8.3922997E-02
893.2717, 2.1423001E-02
893.7538, 1.654053
894.2360, 2.139404
894.7181, 1.266663
895.2002, 6.231689
895.6823, 9.292847
896.1644, 9.640137
896.6465, 9.336487
897.1287, 7.964905
897.6108, 7.116455
898.0929, 9.801270
898.5750, 14.78723
899.0571, 17.02161
899.5392, 15.49377
900.0214, 14.11987
900.5035, 15.88953
900.9856, 19.00452
901.4677, 22.35919
901.9498, 26.36151
902.4319, 27.88690
902.9141, 25.17865
903.3962, 23.04901
903.8783, 24.89423
904.3604, 30.20038
904.8425, 35.44690
905.3246, 40.70917
905.8068, 45.38373
906.2889, 48.70453
906.7710, 51.59125
907.2531, 54.44287
907.7352, 57.42474
908.2173, 61.66980
908.6995, 68.09625
909.1816, 74.68854
909.6637, 80.70135
910.1458, 86.45563
910.6279, 92.31213
911.1100, 98.45044
911.5922, 106.8560
912.0743, 119.9454
912.5564, 133.3830
913.0385, 141.9865
913.5206, 148.2229
914.0027, 156.5502
914.4849, 166.9597
914.9670, 181.7431
915.4491, 202.6616
915.9312, 225.9129
916.4133, 246.4412
916.8954, 264.6434
917.3776, 283.6851
917.8597, 303.6359
918.3418, 326.9717
918.8239, 356.9354
919.3060, 391.2027
919.7881, 426.9465
920.2703, 463.4218
920.7524, 503.7700
921.2345, 548.0922
921.7166, 596.2631
922.1987, 648.1661
922.6808, 703.8177
923.1630, 762.9020
923.6451, 825.7885
924.1272, 894.7549
924.6093, 971.7695
925.0914, 1054.984
925.5735, 1143.290
926.0557, 1235.870
926.5378, 1332.466
927.0199, 1432.235
927.5020, 1538.045
927.9841, 1655.022
928.4662, 1776.645
928.9484, 1889.340
929.4305, 1993.370
929.9126, 2085.216
930.3947, 2163.869
930.8768, 2227.373
931.3589, 2277.721
931.8411, 2309.175
932.3232, 2312.252
932.8053, 2276.087
933.2874, 2223.986
933.7695, 2156.252
934.2516, 2077.545
934.7338, 1989.571
935.2159, 1892.350
935.6980, 1803.034
936.1801, 1722.258
936.6622, 1652.925
937.1443, 1597.314
937.6265, 1554.613
938.1086, 1523.000
938.5907, 1502.014
939.0728, 1502.268
939.5549, 1527.052
940.0370, 1569.070
940.5192, 1625.018
941.0013, 1696.052
941.4834, 1786.092
941.9655, 1896.144
942.4476, 2029.027
942.9297, 2193.100
943.4119, 2373.257
943.8940, 2568.144
944.3761, 2767.768
944.8582, 2951.606
945.3403, 3132.496
945.8224, 3272.821
946.3046, 3376.923
946.7867, 3427.901
947.2688, 3395.592
947.7509, 3285.927
948.2330, 3126.596
948.7151, 2917.903
949.1973, 2690.673
949.6794, 2451.377
950.1615, 2217.258
950.6436, 2001.816
951.1257, 1809.608
951.6078, 1638.529
952.0900, 1489.313
952.5721, 1359.529
953.0542, 1249.486
953.5363, 1157.618
954.0184, 1079.063
954.5005, 1013.657
954.9827, 956.1466
955.4648, 905.0312
955.9469, 859.7152
956.4290, 821.2695
956.9111, 788.3861
957.3932, 757.3162
957.8754, 727.3064
958.3575, 699.6740
958.8396, 674.4957
959.3217, 652.5203
959.8038, 637.1105
960.2859, 626.0609
960.7681, 613.7206
961.2502, 598.5030
961.7323, 582.8347
962.2144, 566.6581
962.6965, 551.6431
963.1786, 540.0178
963.6608, 533.2271
964.1429, 521.4009
964.6250, 503.9774
965.1071, 484.6602
965.5892, 465.3676
966.0714, 446.3765
966.5535, 427.2546
967.0356, 408.2616
967.5177, 389.8566
967.9998, 374.8093
968.4819, 357.5276
968.9641, 334.1256
969.4462, 307.3770
969.9283, 283.6466
970.4104, 263.1708
970.8925, 242.9765
971.3746, 221.8743
971.8568, 201.7871
972.3389, 184.7762
972.8210, 170.1595
973.3031, 156.8401
973.7852, 144.6456
974.2673, 133.6016
974.7495, 123.3707
975.2316, 114.4521
975.7137, 107.0951
976.1958, 101.2424
976.6779, 97.76221
977.1600, 96.62732
977.6422, 95.86829
978.1243, 94.83105
978.6064, 92.94739
979.0885, 88.64233
979.5706, 82.76434
980.0527, 79.27832
980.5349, 80.38263
981.0170, 81.15186
981.4991, 80.48499
981.9812, 79.18512
982.4633, 79.29590
982.9454, 80.26740
983.4276, 79.66968
983.9097, 76.57227
984.3918, 72.90399
984.8739, 69.41638
985.3560, 66.31366
985.8381, 63.85486
986.3203, 62.10272
986.8024, 60.91791
987.2845, 60.80988
987.7666, 59.53308
988.2487, 54.29077
988.7308, 47.14050
989.2130, 42.15778
989.6951, 39.41522
990.1772, 38.69788
990.6593, 42.57574
991.1414, 45.50665
991.6235, 44.92462
992.1057, 42.22876
992.5878, 39.83429
993.0699, 37.65973
993.5520, 36.22101
994.0341, 35.44574
994.5162, 35.96570
994.9984, 39.11365
995.4805, 43.59473
995.9626, 47.99921
996.4447, 52.19415
996.9268, 56.41724
997.4089, 60.63141
997.8911, 64.16510
998.3732, 66.51208
998.8553, 67.99628
999.3374, 70.32349
999.8195, 73.49487
1000.302, 77.74792
1000.784, 83.98889
1001.266, 90.56567
1001.748, 96.26813
1002.230, 101.6237
1002.712, 107.8246
1003.194, 114.8376
1003.676, 122.6805
1004.159, 131.5687
1004.641, 141.2833
1005.123, 151.1205
1005.605, 161.6741
1006.087, 174.7126
1006.569, 190.8345
1007.051, 207.6138
1007.533, 223.4318
1008.016, 240.1213
1008.498, 258.8336
1008.980, 279.4717
1009.462, 300.4392
1009.944, 322.0145
1010.426, 345.0126
1010.908, 369.8749
1011.390, 395.7170
1011.872, 421.1720
1012.355, 447.1163
1012.837, 475.3234
1013.319, 509.0446
1013.801, 541.6035
1014.283, 572.3140
1014.765, 602.0933
1015.247, 632.1041
1015.729, 662.5378
1016.211, 694.3618
1016.694, 727.6154
1017.176, 756.4782
1017.658, 778.1051
1018.140, 792.8769
1018.622, 801.7645
1019.104, 804.2828
1019.586, 796.3823
1020.068, 776.2144
1020.551, 753.4960
1021.033, 732.0638
1021.515, 708.0845
1021.997, 674.1456
1022.479, 633.6065
1022.961, 592.9238
1023.443, 553.5118
1023.925, 515.0153
1024.407, 476.2690
1024.890, 439.4164
1025.372, 406.2980
1025.854, 377.1643
1026.336, 347.9157
1026.818, 318.4907
1027.300, 291.4353
1027.782, 268.7516
1028.264, 248.4778
1028.746, 227.9355
1029.229, 208.4253
1029.711, 194.9795
1030.193, 190.3875
1030.675, 184.3772
1031.157, 174.3316
1031.639, 164.2299
1032.121, 161.5908
1032.603, 162.8132
1033.086, 159.0482
1033.568, 147.9779
1034.050, 137.9589
1034.532, 133.9217
1035.014, 130.8793
1035.496, 126.0751
1035.978, 119.7444
1036.460, 114.0736
1036.943, 109.1425
1037.425, 103.9017
1037.907, 98.15894
1038.389, 91.61639
1038.871, 83.10400
1039.353, 73.88849
1039.835, 66.39441
1040.317, 62.17706
1040.799, 57.56854
1041.281, 52.39001
1041.764, 46.89941
1042.246, 41.25574
1042.728, 35.47418
1043.210, 29.45367
1043.692, 23.21759
1044.174, 18.06561
1044.656, 15.41968
1045.138, 13.06104
1045.621, 9.882385
1046.103, 6.375610
1046.585, 3.899902
1047.067, 2.485840
1047.549, 1.542480
1048.031, 1.129822
1048.513, 0.5073240
1048.995, 1.313293
1049.478, 3.600830
1049.960, 5.575439
1050.442, 7.093689
1050.924, 8.347168
1051.406, 9.594482
1051.888, 9.955627
1052.370, 8.082520
1052.852, 5.441162
1053.334, 6.898071
1053.817, 11.08740
1054.299, 13.44501
1054.781, 9.638550
1055.263, 6.567261
1055.745, 6.856384
1056.227, 8.494934
1056.709, 9.534790
1057.191, 9.983398
1057.673, 9.194092
1058.156, 7.051208
1058.638, 5.008423
1059.120, 4.828857
1059.602, 4.762207
1060.084, 2.690918
1060.566, 1.069092
1061.048, 2.544067
1061.530, 0.9364620
1062.013, 0.8273320
1062.495, 1.944153
1062.977, 2.961060
1063.459, 5.447632
1063.941, 8.349060
1064.423, 9.676880
1064.905, 8.865112
1065.387, 6.880310
1065.870, 1.999451
1066.352, 1.770020
1066.834, 1.671753
1067.316, 1.548645
1067.798, 1.982483
1068.280, 0.1267090
1068.762, 2.665405
1069.244, 5.158936
1069.726, 7.050415
1070.208, 6.844849
1070.691, 6.234558
1071.173, 8.293762
1071.655, 14.62384
1072.137, 17.29956
1072.619, 15.31256
1073.101, 13.21527
1073.583, 16.20032
1074.065, 20.98688
1074.548, 23.13910
1075.030, 22.75098
1075.512, 22.70892
1075.994, 24.03027
1076.476, 25.22278
1076.958, 25.76385
1077.440, 26.31305
1077.922, 28.29443
1078.405, 31.33710
1078.887, 34.17194
1079.369, 36.45697
1079.851, 38.81659
1080.333, 41.45715
1080.815, 44.44904
1081.297, 47.42896
1081.779, 50.58038
1082.261, 56.40765
1082.744, 64.91858
1083.226, 72.86285
1083.708, 78.54779
1084.190, 83.34552
1084.672, 87.20679
1085.154, 91.57532
1085.636, 98.75342
1086.118, 109.9434
1086.601, 121.2081
1087.083, 132.3142
1087.565, 144.3571
1088.047, 159.0887
1088.529, 174.9662
1089.011, 188.3156
1089.493, 200.0045
1089.975, 214.9531
1090.458, 236.0145
1090.940, 259.3423
1091.422, 283.8252
1091.904, 310.3958
1092.386, 340.0702
1092.868, 372.5465
1093.350, 405.9886
1093.832, 440.1607
1094.314, 476.7401
1094.797, 518.7007
1095.279, 561.6561
1095.761, 604.6814
1096.243, 646.0958
1096.725, 682.5652
1097.207, 714.1466
1097.689, 738.9409
1098.171, 757.3746
1098.653, 766.1671
1099.136, 761.6855
1099.618, 746.0758
1100.100, 720.4849
1100.582, 683.6567
1101.064, 644.5735
1101.546, 603.1611
1102.028, 559.1413
1102.510, 508.9510
1102.993, 458.2727
1103.475, 417.5696
1103.957, 384.0525
1104.439, 351.6830
1104.921, 317.3907
1105.403, 286.4243
1105.885, 259.5765
1106.367, 235.7505
1106.849, 214.0103
1107.332, 194.5594
1107.814, 179.1721
1108.296, 167.4976
1108.778, 156.9206
1109.260, 146.1185
1109.742, 135.7328
1110.224, 125.4459
1110.706, 116.2350
1111.188, 110.1594
1111.671, 106.8619
1112.153, 100.4518
1112.635, 90.06830
1113.117, 80.76569
1113.599, 77.08466
1114.081, 75.42255
1114.563, 73.66412
1115.045, 71.56390
1115.528, 68.02765
1116.010, 62.57977
1116.492, 59.30945
1116.974, 60.02100
1117.456, 61.28717
1117.938, 58.53381
1118.420, 54.09839
1118.902, 50.80872
1119.385, 49.44299
1119.867, 47.42212
1120.349, 44.64948
1120.831, 41.27557
1121.313, 36.80219
1121.795, 32.12677
1122.277, 29.58398
1122.759, 28.57159
1123.241, 27.44318
1123.724, 26.03815
1124.206, 24.08295
1124.688, 20.77808
1125.170, 17.47797
1125.652, 15.86169
1126.134, 15.70135
1126.616, 15.08386
1127.098, 14.02734
1127.580, 12.96326
1128.063, 11.90051
1128.545, 11.09436
1129.027, 10.96173
1129.509, 11.00116
1129.991, 10.32330
1130.473, 8.962708
1130.955, 8.869629
1131.437, 10.22577
1131.920, 11.70081
1132.402, 12.49377
1132.884, 12.86646
1133.366, 13.05841
1133.848, 12.96301
1134.330, 12.16718
1134.812, 10.60980
1135.294, 8.568054
1135.776, 5.826721
1136.259, 3.961975
1136.741, 5.374268
1137.223, 7.970825
1137.705, 9.621094
1138.187, 10.01379
1138.669, 10.83612
1139.151, 12.65656
1139.633, 12.67279
1140.115, 9.076416
1140.598, 4.906372
1141.080, 5.355713
1141.562, 8.015808
1142.044, 8.873535
1142.526, 6.108826
1143.008, 5.183228
1143.490, 7.467529
1143.972, 9.417175
1144.455, 9.112976
1144.937, 7.185730
1145.419, 4.209534
1145.901, 0.8906250
1146.383, 0.9985350
1146.865, 0.3826900
1147.347, 1.321777
1147.829, 1.168213
1148.312, 0.5677490
1148.794, 0.4639280
1149.276, 1.556030
1149.758, 0.1698610
1150.240, 3.165649
1150.722, 5.569214
1151.204, 5.245605
1151.686, 4.103821
1152.168, 1.642761
1152.651, 0.3269040
1153.133, 0.9987790
1153.615, 5.171448
1154.097, 7.751526
1154.579, 8.415405
1155.061, 7.581360
1155.543, 3.828979
1156.025, 0.3828740
1156.507, 1.081116
1156.990, 0.9485470
1157.472, 0.7141720
1157.954, 3.927551
1158.436, 5.794678
1158.918, 5.839783
1159.400, 5.589844
1159.882, 6.268066
1160.364, 7.149109
1160.847, 7.993103
1161.329, 8.590271
1161.811, 7.830139
1162.293, 5.586304
1162.775, 3.428650
1163.257, 1.621338
1163.739, 0.4791260
1164.221, 1.059570
1164.703, 1.960938
1165.186, 1.496033
1165.668, 0.5333250
1166.150, 1.395752
1166.632, 0.9544680
1167.114, 3.0212000E-02
1167.596, 1.402222
1168.078, 2.542236
1168.560, 1.762756
1169.042, 0.3428340
1169.525, 0.1924440
1170.007, 2.190979
1170.489, 2.773682
1170.971, 1.434326
1171.453, 0.6231080
1171.935, 2.008606
1172.417, 4.153381
1172.899, 4.714172
1173.382, 4.414368
1173.864, 4.569580
1174.346, 5.682312
1174.828, 7.037781
1175.310, 8.916992
1175.792, 10.13818
1176.274, 9.394409
1176.756, 7.707886
1177.239, 7.044250
1177.721, 7.109009
1178.203, 7.115051
1178.685, 6.257324
1179.167, 6.076721
1179.649, 7.059875
1180.131, 7.972351
1180.613, 6.920959
1181.095, 5.239014
1181.578, 6.792419
1182.060, 10.74988
1182.542, 13.10895
1183.024, 10.90149
1183.506, 9.001831
1183.988, 7.897949
1184.470, 7.650208
1184.952, 9.247253
1185.434, 11.54102
1185.917, 10.91724
1186.399, 7.573669
1186.881, 5.368713
1187.363, 6.220947
1187.845, 8.260559
1188.327, 11.94604
1188.809, 15.22083
1189.291, 13.65900
1189.774, 9.256287
1190.256, 8.938232
1190.738, 13.39276
1191.220, 16.08246
1191.702, 11.24536
1192.184, 8.109802
1192.666, 10.09534
1193.148, 14.32294
1193.630, 14.84540
1194.113, 12.90991
1194.595, 13.13440
1195.077, 16.52863
1195.559, 19.15051
1196.041, 18.98383
1196.523, 17.75604
1197.005, 15.64355
1197.487, 13.31842
1197.969, 12.90381
1198.452, 13.86884
1198.934, 14.29590
1199.416, 13.55505
1199.898, 13.20074
1200.380, 15.22406
1200.862, 16.22253
1201.344, 13.91138
1201.826, 9.725708
1202.309, 9.518860
1202.791, 12.27570
1203.273, 13.92609
1203.755, 12.99634
1204.237, 11.54010
1204.719, 10.24939
1205.201, 9.365295
1205.683, 9.086548
1206.166, 9.283142
1206.648, 9.519348
1207.130, 9.682129
1207.612, 9.322571
1208.094, 7.446106
1208.576, 6.734558
1209.058, 9.743286
1209.540, 12.92102
1210.022, 14.06134
1210.505, 13.36041
1210.987, 11.77917
1211.469, 9.676086
1211.951, 8.823730
1212.433, 11.57123
1212.915, 13.06659
1213.397, 9.430298
1213.879, 5.765747
1214.361, 6.518127
1214.844, 10.88928
1215.326, 11.91113
1215.808, 10.25891
1216.290, 9.508484
1216.772, 13.78021
1217.254, 15.97504
1217.736, 12.22260
1218.218, 7.455261
1218.701, 6.102478
1219.183, 7.522522
1219.665, 7.082092
1220.147, 5.119812
1220.629, 3.820801
1221.111, 5.017334
1221.593, 6.068176
1222.075, 6.327942
1222.557, 6.039063
1223.040, 4.912964
1223.522, 3.303894
1224.004, 3.784973
1224.486, 6.056091
1224.968, 7.418274
1225.450, 5.981934
1225.932, 4.037842
1226.414, 1.578125
1226.896, 0.3995970
1227.379, 0.3364870
1227.861, 1.216003
1228.343, 2.070862
1228.825, 2.227051
1229.307, 2.648987
1229.789, 5.112427
1230.271, 5.952637
1230.753, 3.798035
1231.236, 0.6849370
1231.718, 0.8930660
1232.200, 1.259827
1232.682, 1.125427
1233.164, 0.5765990
1233.646, 0.1217040
1234.128, 1.651062
1234.610, 2.033630
1235.093, 0.2711790
1235.575, 1.608398
1236.057, 9.7655997E-02
1236.539, 3.120056
1237.021, 4.006042
1237.503, 2.519531
1237.985, 1.391724
1238.467, 1.586975
1238.949, 2.278442
1239.432, 3.655945
1239.914, 4.853027
1240.396, 4.009583
1240.878, 2.405945
1241.360, 2.854370
1241.842, 5.386963
1242.324, 6.577637
1242.806, 4.822693
1243.288, 3.784851
1243.771, 4.440308
1244.253, 5.388489
1244.735, 4.577515
1245.217, 3.115479
1245.699, 2.778809
1246.181, 3.670471
1246.663, 4.442322
1247.145, 5.138550
1247.628, 5.237122
1248.110, 4.636414
1248.592, 3.403015
1249.074, 0.4087520
1249.556, 2.358032
1250.038, 2.127686
1250.520, 1.197388
1251.002, 3.935547
1251.484, 6.110718
1251.967, 6.907104
1252.449, 5.953186
1252.931, 4.310730
1253.413, 2.062073
1253.895, 0.4932860
1254.377, 1.594421
1254.859, 5.119263
1255.341, 6.860962
1255.823, 6.617310
1256.306, 6.157776
1256.788, 5.761414
1257.270, 5.892639
1257.752, 7.887207
1258.234, 9.870911
1258.716, 10.08527
1259.198, 8.778381
1259.680, 6.902100
1260.163, 4.434998
1260.645, 2.927551
1261.127, 2.813538
1261.609, 3.002258
1262.091, 2.058838
1262.573, 1.690369
1263.055, 3.483398
1263.537, 6.684021
1264.020, 9.037415
1264.502, 10.52954
1264.984, 10.10321
1265.466, 7.208374
1265.948, 4.409241
1266.430, 2.940247
1266.912, 2.103271
1267.394, 1.708984
1267.876, 1.737549
1268.359, 2.178894
1268.841, 3.113342
1269.323, 3.883728
1269.805, 4.317383
1270.287, 4.345398
1270.769, 3.324036
1271.251, 2.600952
1271.733, 2.864502
1272.215, 3.506531
1272.698, 3.234497
1273.180, 2.359619
1273.662, 1.298401
1274.144, 3.5034001E-02
1274.626, 0.4942630
1275.108, 4.363220
1275.590, 7.129089
1276.072, 8.490051
1276.555, 8.647461
1277.037, 8.747375
1277.519, 8.262512
1278.001, 5.922668
1278.483, 1.308289
1278.965, 0.5631100
1279.447, 1.356262
1279.929, 2.727722
1280.411, 1.847473
1280.894, 0.9674680
1281.376, 3.928833
1281.858, 7.725342
1282.340, 8.749451
1282.822, 6.781006
1283.304, 5.419678
1283.786, 4.576355
1284.268, 5.654602
1284.750, 9.744446
1285.233, 13.10919
1285.715, 10.97900
1286.197, 7.641113
1286.679, 6.938293
1287.161, 8.155762
1287.643, 7.638184
1288.125, 5.696289
1288.607, 4.405151
1289.090, 4.285889
1289.572, 4.089478
1290.054, 1.833557
1290.536, 0.6385500
1291.018, 2.110901
1291.500, 5.172791
1291.982, 6.713623
1292.464, 6.890503
1292.947, 6.166626
1293.429, 4.545898
1293.911, 2.861145
1294.393, 0.6671140
1294.875, 0.4630740
1295.357, 2.8870000E-02
1295.839, 1.474670
1296.321, 5.151367
1296.803, 9.178589
1297.286, 9.371460
1297.768, 4.626709
1298.250, 0.5806270
1298.732, 2.484131
1299.214, 3.642883
1299.696, 2.105408
1300.178, 0.3533940
1300.660, 0.0000000E+00
##END=



