##NAMES=Dondoellite
##RRUFFID=R210003
##IDEAL CHEMISTRY=Ca_2_Fe^2+^(PO_4_)_2_&#183;2H_2_O
##LOCALITY=Grizzly Bear Creek, Stoneman Camp (Area B; Area 2), Rapid Creek, Dawson mining district, Yukon, Canada
##OWNER=RRUFF
##SOURCE=Donald Doell
##DESCRIPTION=Spherical aggregates of radiating bladed straw-yellow or colorless crystals, on top of orange-brown siderite and white apatite. Type sample
##STATUS=The identification of this mineral is confirmed by single-crystal X-ray diffraction and chemical analysis.
##URL=rruff.info/R210003
##MEASURED CHEMISTRY=Ca_1.99_(Fe_0.89_Mg_0.13_Mn_0.01_)_Ʃ=1.03_(P_1.00_O_4_)_2_·2H_2_O
8.758203e+001, 5.190108e+003
8.806415e+001, 5.225987e+003
8.854626e+001, 5.232710e+003
8.902838e+001, 5.188747e+003
8.951050e+001, 5.143306e+003
8.999261e+001, 5.118149e+003
9.047473e+001, 5.112300e+003
9.095685e+001, 5.111038e+003
9.143896e+001, 5.102521e+003
9.192108e+001, 5.086097e+003
9.240320e+001, 5.065212e+003
9.288531e+001, 4.979149e+003
9.336743e+001, 4.803937e+003
9.384955e+001, 4.571264e+003
9.433167e+001, 4.353156e+003
9.481378e+001, 4.144454e+003
9.529590e+001, 3.969452e+003
9.577802e+001, 3.822879e+003
9.626013e+001, 3.696809e+003
9.674225e+001, 3.585306e+003
9.722437e+001, 3.486272e+003
9.770648e+001, 3.402718e+003
9.818860e+001, 3.344880e+003
9.867072e+001, 3.291204e+003
9.915283e+001, 3.230762e+003
9.963495e+001, 3.162225e+003
1.001171e+002, 3.090677e+003
1.005992e+002, 3.022095e+003
1.010813e+002, 2.952467e+003
1.015634e+002, 2.892537e+003
1.020455e+002, 2.845006e+003
1.025277e+002, 2.801528e+003
1.030098e+002, 2.754840e+003
1.034919e+002, 2.701863e+003
1.039740e+002, 2.645458e+003
1.044561e+002, 2.595734e+003
1.049382e+002, 2.557623e+003
1.054204e+002, 2.520027e+003
1.059025e+002, 2.482058e+003
1.063846e+002, 2.443576e+003
1.068667e+002, 2.404531e+003
1.073488e+002, 2.364383e+003
1.078309e+002, 2.323706e+003
1.083131e+002, 2.286939e+003
1.087952e+002, 2.253095e+003
1.092773e+002, 2.222899e+003
1.097594e+002, 2.197955e+003
1.102415e+002, 2.177996e+003
1.107236e+002, 2.159959e+003
1.112058e+002, 2.141480e+003
1.116879e+002, 2.123094e+003
1.121700e+002, 2.106654e+003
1.126521e+002, 2.093611e+003
1.131342e+002, 2.082505e+003
1.136163e+002, 2.070953e+003
1.140985e+002, 2.058649e+003
1.145806e+002, 2.046491e+003
1.150627e+002, 2.033368e+003
1.155448e+002, 2.020505e+003
1.160269e+002, 2.011012e+003
1.165090e+002, 2.008297e+003
1.169912e+002, 2.012205e+003
1.174733e+002, 2.015047e+003
1.179554e+002, 2.011708e+003
1.184375e+002, 2.011672e+003
1.189196e+002, 2.020492e+003
1.194017e+002, 2.037203e+003
1.198839e+002, 2.056246e+003
1.203660e+002, 2.072293e+003
1.208481e+002, 2.087011e+003
1.213302e+002, 2.093177e+003
1.218123e+002, 2.092000e+003
1.222944e+002, 2.083668e+003
1.227766e+002, 2.067005e+003
1.232587e+002, 2.042095e+003
1.237408e+002, 2.011250e+003
1.242229e+002, 1.978973e+003
1.247050e+002, 1.942150e+003
1.251871e+002, 1.907831e+003
1.256693e+002, 1.875454e+003
1.261514e+002, 1.845750e+003
1.266335e+002, 1.820866e+003
1.271156e+002, 1.802264e+003
1.275977e+002, 1.787144e+003
1.280798e+002, 1.766547e+003
1.285620e+002, 1.736727e+003
1.290441e+002, 1.708453e+003
1.295262e+002, 1.687008e+003
1.300083e+002, 1.671055e+003
1.304904e+002, 1.655241e+003
1.309725e+002, 1.636383e+003
1.314547e+002, 1.616261e+003
1.319368e+002, 1.598694e+003
1.324189e+002, 1.584626e+003
1.329010e+002, 1.572260e+003
1.333831e+002, 1.559805e+003
1.338652e+002, 1.547119e+003
1.343474e+002, 1.535270e+003
1.348295e+002, 1.525157e+003
1.353116e+002, 1.516132e+003
1.357937e+002, 1.507559e+003
1.362758e+002, 1.499144e+003
1.367579e+002, 1.491065e+003
1.372401e+002, 1.484068e+003
1.377222e+002, 1.479695e+003
1.382043e+002, 1.473878e+003
1.386864e+002, 1.465348e+003
1.391685e+002, 1.454724e+003
1.396507e+002, 1.442886e+003
1.401328e+002, 1.430436e+003
1.406149e+002, 1.417314e+003
1.410970e+002, 1.403354e+003
1.415791e+002, 1.386159e+003
1.420612e+002, 1.370368e+003
1.425434e+002, 1.357423e+003
1.430255e+002, 1.347043e+003
1.435076e+002, 1.338195e+003
1.439897e+002, 1.330104e+003
1.444718e+002, 1.323054e+003
1.449539e+002, 1.315104e+003
1.454361e+002, 1.306468e+003
1.459182e+002, 1.296980e+003
1.464003e+002, 1.285882e+003
1.468824e+002, 1.273387e+003
1.473645e+002, 1.261062e+003
1.478466e+002, 1.250769e+003
1.483288e+002, 1.243131e+003
1.488109e+002, 1.235555e+003
1.492930e+002, 1.226123e+003
1.497751e+002, 1.217525e+003
1.502572e+002, 1.213472e+003
1.507393e+002, 1.215193e+003
1.512215e+002, 1.218712e+003
1.517036e+002, 1.218114e+003
1.521857e+002, 1.213640e+003
1.526678e+002, 1.209419e+003
1.531499e+002, 1.206641e+003
1.536320e+002, 1.205081e+003
1.541142e+002, 1.204375e+003
1.545963e+002, 1.204961e+003
1.550784e+002, 1.205671e+003
1.555605e+002, 1.205147e+003
1.560426e+002, 1.203405e+003
1.565247e+002, 1.201649e+003
1.570069e+002, 1.199605e+003
1.574890e+002, 1.197347e+003
1.579711e+002, 1.198901e+003
1.584532e+002, 1.208766e+003
1.589353e+002, 1.220279e+003
1.594174e+002, 1.228827e+003
1.598996e+002, 1.233876e+003
1.603817e+002, 1.238285e+003
1.608638e+002, 1.245828e+003
1.613459e+002, 1.257725e+003
1.618280e+002, 1.268615e+003
1.623102e+002, 1.279949e+003
1.627923e+002, 1.288750e+003
1.632744e+002, 1.292553e+003
1.637565e+002, 1.290733e+003
1.642386e+002, 1.284804e+003
1.647207e+002, 1.277617e+003
1.652029e+002, 1.270519e+003
1.656850e+002, 1.259447e+003
1.661671e+002, 1.242206e+003
1.666492e+002, 1.222430e+003
1.671313e+002, 1.202743e+003
1.676134e+002, 1.184438e+003
1.680956e+002, 1.167500e+003
1.685777e+002, 1.151925e+003
1.690598e+002, 1.137449e+003
1.695419e+002, 1.124838e+003
1.700240e+002, 1.114573e+003
1.705061e+002, 1.106103e+003
1.709883e+002, 1.098783e+003
1.714704e+002, 1.092367e+003
1.719525e+002, 1.086694e+003
1.724346e+002, 1.081130e+003
1.729167e+002, 1.075002e+003
1.733988e+002, 1.069619e+003
1.738810e+002, 1.065368e+003
1.743631e+002, 1.062171e+003
1.748452e+002, 1.059820e+003
1.753273e+002, 1.058165e+003
1.758094e+002, 1.057431e+003
1.762915e+002, 1.058019e+003
1.767737e+002, 1.060792e+003
1.772558e+002, 1.063814e+003
1.777379e+002, 1.065865e+003
1.782200e+002, 1.067017e+003
1.787021e+002, 1.068190e+003
1.791842e+002, 1.070138e+003
1.796664e+002, 1.072326e+003
1.801485e+002, 1.073657e+003
1.806306e+002, 1.073312e+003
1.811127e+002, 1.072820e+003
1.815948e+002, 1.074097e+003
1.820769e+002, 1.077471e+003
1.825591e+002, 1.080700e+003
1.830412e+002, 1.082686e+003
1.835233e+002, 1.083827e+003
1.840054e+002, 1.084258e+003
1.844875e+002, 1.083587e+003
1.849696e+002, 1.082713e+003
1.854518e+002, 1.083556e+003
1.859339e+002, 1.087099e+003
1.864160e+002, 1.090132e+003
1.868981e+002, 1.089953e+003
1.873802e+002, 1.089111e+003
1.878623e+002, 1.090462e+003
1.883445e+002, 1.095322e+003
1.888266e+002, 1.103389e+003
1.893087e+002, 1.113779e+003
1.897908e+002, 1.128671e+003
1.902729e+002, 1.143123e+003
1.907550e+002, 1.155938e+003
1.912372e+002, 1.167655e+003
1.917193e+002, 1.179316e+003
1.922014e+002, 1.191833e+003
1.926835e+002, 1.204557e+003
1.931656e+002, 1.212830e+003
1.936477e+002, 1.213824e+003
1.941299e+002, 1.212568e+003
1.946120e+002, 1.209859e+003
1.950941e+002, 1.205435e+003
1.955762e+002, 1.198551e+003
1.960583e+002, 1.188555e+003
1.965404e+002, 1.175621e+003
1.970226e+002, 1.162795e+003
1.975047e+002, 1.149821e+003
1.979868e+002, 1.137246e+003
1.984689e+002, 1.125109e+003
1.989510e+002, 1.113495e+003
1.994331e+002, 1.102478e+003
1.999153e+002, 1.091887e+003
2.003974e+002, 1.081813e+003
2.008795e+002, 1.074727e+003
2.013616e+002, 1.071895e+003
2.018437e+002, 1.070073e+003
2.023258e+002, 1.068657e+003
2.028080e+002, 1.067247e+003
2.032901e+002, 1.064547e+003
2.037722e+002, 1.058860e+003
2.042543e+002, 1.050808e+003
2.047364e+002, 1.047102e+003
2.052185e+002, 1.050660e+003
2.057007e+002, 1.055720e+003
2.061828e+002, 1.058717e+003
2.066649e+002, 1.059735e+003
2.071470e+002, 1.060911e+003
2.076291e+002, 1.063914e+003
2.081112e+002, 1.068380e+003
2.085934e+002, 1.072204e+003
2.090755e+002, 1.075793e+003
2.095576e+002, 1.078385e+003
2.100397e+002, 1.078793e+003
2.105218e+002, 1.076932e+003
2.110039e+002, 1.075054e+003
2.114861e+002, 1.074927e+003
2.119682e+002, 1.075791e+003
2.124503e+002, 1.076015e+003
2.129324e+002, 1.074152e+003
2.134145e+002, 1.072311e+003
2.138967e+002, 1.073689e+003
2.143788e+002, 1.079050e+003
2.148609e+002, 1.084015e+003
2.153430e+002, 1.083844e+003
2.158251e+002, 1.082228e+003
2.163072e+002, 1.084237e+003
2.167894e+002, 1.093255e+003
2.172715e+002, 1.105067e+003
2.177536e+002, 1.111685e+003
2.182357e+002, 1.110691e+003
2.187178e+002, 1.111207e+003
2.191999e+002, 1.118580e+003
2.196821e+002, 1.129114e+003
2.201642e+002, 1.138829e+003
2.206463e+002, 1.146136e+003
2.211284e+002, 1.151686e+003
2.216105e+002, 1.157005e+003
2.220926e+002, 1.162289e+003
2.225748e+002, 1.166892e+003
2.230569e+002, 1.170881e+003
2.235390e+002, 1.174133e+003
2.240211e+002, 1.176494e+003
2.245032e+002, 1.177873e+003
2.249853e+002, 1.178381e+003
2.254675e+002, 1.178360e+003
2.259496e+002, 1.178065e+003
2.264317e+002, 1.176690e+003
2.269138e+002, 1.174052e+003
2.273959e+002, 1.170445e+003
2.278780e+002, 1.166698e+003
2.283602e+002, 1.163358e+003
2.288423e+002, 1.159163e+003
2.293244e+002, 1.149743e+003
2.298065e+002, 1.129822e+003
2.302886e+002, 1.111630e+003
2.307707e+002, 1.097818e+003
2.312529e+002, 1.085969e+003
2.317350e+002, 1.073032e+003
2.322171e+002, 1.057515e+003
2.326992e+002, 1.040522e+003
2.331813e+002, 1.025646e+003
2.336634e+002, 1.014189e+003
2.341456e+002, 1.003488e+003
2.346277e+002, 9.937297e+002
2.351098e+002, 9.844391e+002
2.355919e+002, 9.749835e+002
2.360740e+002, 9.650697e+002
2.365561e+002, 9.550890e+002
2.370383e+002, 9.461899e+002
2.375204e+002, 9.376878e+002
2.380025e+002, 9.313470e+002
2.384846e+002, 9.282072e+002
2.389667e+002, 9.270010e+002
2.394488e+002, 9.263623e+002
2.399310e+002, 9.257269e+002
2.404131e+002, 9.251727e+002
2.408952e+002, 9.248898e+002
2.413773e+002, 9.248034e+002
2.418594e+002, 9.251089e+002
2.423415e+002, 9.258275e+002
2.428237e+002, 9.269510e+002
2.433058e+002, 9.288302e+002
2.437879e+002, 9.316951e+002
2.442700e+002, 9.345553e+002
2.447521e+002, 9.352495e+002
2.452342e+002, 9.336366e+002
2.457164e+002, 9.303516e+002
2.461985e+002, 9.249796e+002
2.466806e+002, 9.181084e+002
2.471627e+002, 9.100939e+002
2.476448e+002, 9.008048e+002
2.481269e+002, 8.915112e+002
2.486091e+002, 8.849090e+002
2.490912e+002, 8.822239e+002
2.495733e+002, 8.775338e+002
2.500554e+002, 8.676046e+002
2.505375e+002, 8.554836e+002
2.510196e+002, 8.460394e+002
2.515018e+002, 8.408621e+002
2.519839e+002, 8.372216e+002
2.524660e+002, 8.310164e+002
2.529481e+002, 8.221351e+002
2.534302e+002, 8.136843e+002
2.539123e+002, 8.060691e+002
2.543945e+002, 7.994662e+002
2.548766e+002, 7.941404e+002
2.553587e+002, 7.901795e+002
2.558408e+002, 7.873787e+002
2.563229e+002, 7.862779e+002
2.568051e+002, 7.866187e+002
2.572872e+002, 7.861021e+002
2.577693e+002, 7.835919e+002
2.582514e+002, 7.799508e+002
2.587335e+002, 7.762768e+002
2.592156e+002, 7.725060e+002
2.596978e+002, 7.694865e+002
2.601799e+002, 7.688053e+002
2.606620e+002, 7.697596e+002
2.611441e+002, 7.701446e+002
2.616262e+002, 7.687924e+002
2.621083e+002, 7.665990e+002
2.625905e+002, 7.651920e+002
2.630726e+002, 7.649789e+002
2.635547e+002, 7.644346e+002
2.640368e+002, 7.620045e+002
2.645189e+002, 7.583701e+002
2.650010e+002, 7.547757e+002
2.654832e+002, 7.510873e+002
2.659653e+002, 7.478762e+002
2.664474e+002, 7.464594e+002
2.669295e+002, 7.473962e+002
2.674116e+002, 7.481023e+002
2.678937e+002, 7.463120e+002
2.683759e+002, 7.434077e+002
2.688580e+002, 7.412628e+002
2.693401e+002, 7.406418e+002
2.698222e+002, 7.408883e+002
2.703043e+002, 7.412681e+002
2.707864e+002, 7.419391e+002
2.712686e+002, 7.420657e+002
2.717507e+002, 7.398641e+002
2.722328e+002, 7.373629e+002
2.727149e+002, 7.370846e+002
2.731970e+002, 7.403719e+002
2.736791e+002, 7.446768e+002
2.741613e+002, 7.461937e+002
2.746434e+002, 7.442428e+002
2.751255e+002, 7.430629e+002
2.756076e+002, 7.450211e+002
2.760897e+002, 7.480905e+002
2.765718e+002, 7.507623e+002
2.770540e+002, 7.526605e+002
2.775361e+002, 7.544160e+002
2.780182e+002, 7.566139e+002
2.785003e+002, 7.591952e+002
2.789824e+002, 7.626403e+002
2.794645e+002, 7.678988e+002
2.799467e+002, 7.735916e+002
2.804288e+002, 7.787238e+002
2.809109e+002, 7.831589e+002
2.813930e+002, 7.875963e+002
2.818751e+002, 7.927433e+002
2.823572e+002, 7.986276e+002
2.828394e+002, 8.047833e+002
2.833215e+002, 8.113793e+002
2.838036e+002, 8.180310e+002
2.842857e+002, 8.246852e+002
2.847678e+002, 8.312296e+002
2.852499e+002, 8.374147e+002
2.857321e+002, 8.429369e+002
2.862142e+002, 8.477612e+002
2.866963e+002, 8.524359e+002
2.871784e+002, 8.585897e+002
2.876605e+002, 8.627223e+002
2.881426e+002, 8.628105e+002
2.886248e+002, 8.594076e+002
2.891069e+002, 8.544434e+002
2.895890e+002, 8.488133e+002
2.900711e+002, 8.426116e+002
2.905532e+002, 8.375272e+002
2.910353e+002, 8.349689e+002
2.915175e+002, 8.317361e+002
2.919996e+002, 8.271110e+002
2.924817e+002, 8.209434e+002
2.929638e+002, 8.128835e+002
2.934459e+002, 8.021500e+002
2.939280e+002, 7.895329e+002
2.944102e+002, 7.789985e+002
2.948923e+002, 7.717959e+002
2.953744e+002, 7.648119e+002
2.958565e+002, 7.571664e+002
2.963386e+002, 7.491202e+002
2.968207e+002, 7.410247e+002
2.973029e+002, 7.330628e+002
2.977850e+002, 7.252249e+002
2.982671e+002, 7.171874e+002
2.987492e+002, 7.075743e+002
2.992313e+002, 7.007643e+002
2.997134e+002, 6.996019e+002
3.001956e+002, 7.003088e+002
3.006777e+002, 6.993089e+002
3.011598e+002, 6.953610e+002
3.016419e+002, 6.902138e+002
3.021240e+002, 6.868844e+002
3.026061e+002, 6.859862e+002
3.030883e+002, 6.852077e+002
3.035704e+002, 6.842328e+002
3.040525e+002, 6.832147e+002
3.045346e+002, 6.820429e+002
3.050167e+002, 6.807720e+002
3.054988e+002, 6.799078e+002
3.059810e+002, 6.800683e+002
3.064631e+002, 6.813353e+002
3.069452e+002, 6.832299e+002
3.074273e+002, 6.858495e+002
3.079094e+002, 6.890088e+002
3.083915e+002, 6.924309e+002
3.088737e+002, 6.962511e+002
3.093558e+002, 7.010550e+002
3.098379e+002, 7.075065e+002
3.103200e+002, 7.157020e+002
3.108021e+002, 7.240456e+002
3.112842e+002, 7.327299e+002
3.117664e+002, 7.414025e+002
3.122485e+002, 7.503845e+002
3.127306e+002, 7.592442e+002
3.132127e+002, 7.672446e+002
3.136948e+002, 7.738377e+002
3.141769e+002, 7.791041e+002
3.146591e+002, 7.834088e+002
3.151412e+002, 7.850004e+002
3.156233e+002, 7.881810e+002
3.161054e+002, 7.957050e+002
3.165875e+002, 8.049528e+002
3.170696e+002, 8.127113e+002
3.175518e+002, 8.175604e+002
3.180339e+002, 8.196711e+002
3.185160e+002, 8.190485e+002
3.189981e+002, 8.142584e+002
3.194802e+002, 8.096096e+002
3.199623e+002, 8.060267e+002
3.204445e+002, 8.029676e+002
3.209266e+002, 8.001534e+002
3.214087e+002, 7.974786e+002
3.218908e+002, 7.946765e+002
3.223729e+002, 7.912108e+002
3.228550e+002, 7.867303e+002
3.233372e+002, 7.828087e+002
3.238193e+002, 7.804750e+002
3.243014e+002, 7.781378e+002
3.247835e+002, 7.747399e+002
3.252656e+002, 7.702446e+002
3.257477e+002, 7.654343e+002
3.262299e+002, 7.616002e+002
3.267120e+002, 7.590507e+002
3.271941e+002, 7.541102e+002
3.276762e+002, 7.438378e+002
3.281583e+002, 7.337270e+002
3.286404e+002, 7.264097e+002
3.291226e+002, 7.212737e+002
3.296047e+002, 7.161348e+002
3.300868e+002, 7.090665e+002
3.305689e+002, 7.005683e+002
3.310510e+002, 6.942085e+002
3.315331e+002, 6.917182e+002
3.320153e+002, 6.888566e+002
3.324974e+002, 6.837640e+002
3.329795e+002, 6.774550e+002
3.334616e+002, 6.714808e+002
3.339437e+002, 6.667221e+002
3.344258e+002, 6.624435e+002
3.349080e+002, 6.566979e+002
3.353901e+002, 6.484258e+002
3.358722e+002, 6.414647e+002
3.363543e+002, 6.381864e+002
3.368365e+002, 6.359629e+002
3.373186e+002, 6.323132e+002
3.378007e+002, 6.265023e+002
3.382828e+002, 6.203669e+002
3.387649e+002, 6.161816e+002
3.392470e+002, 6.141600e+002
3.397292e+002, 6.126460e+002
3.402113e+002, 6.130867e+002
3.406934e+002, 6.125021e+002
3.411755e+002, 6.078536e+002
3.416576e+002, 5.994976e+002
3.421397e+002, 5.918168e+002
3.426219e+002, 5.891187e+002
3.431040e+002, 5.908662e+002
3.435861e+002, 5.913330e+002
3.440682e+002, 5.894670e+002
3.445503e+002, 5.871464e+002
3.450324e+002, 5.853731e+002
3.455146e+002, 5.840502e+002
3.459967e+002, 5.829421e+002
3.464788e+002, 5.820095e+002
3.469609e+002, 5.811856e+002
3.474430e+002, 5.803204e+002
3.479251e+002, 5.794094e+002
3.484073e+002, 5.784731e+002
3.488894e+002, 5.770671e+002
3.493715e+002, 5.757906e+002
3.498536e+002, 5.756078e+002
3.503357e+002, 5.772506e+002
3.508178e+002, 5.791171e+002
3.513000e+002, 5.789098e+002
3.517821e+002, 5.764946e+002
3.522642e+002, 5.748836e+002
3.527463e+002, 5.758304e+002
3.532284e+002, 5.774986e+002
3.537105e+002, 5.779813e+002
3.541927e+002, 5.770995e+002
3.546748e+002, 5.757667e+002
3.551569e+002, 5.742990e+002
3.556390e+002, 5.728202e+002
3.561211e+002, 5.719103e+002
3.566032e+002, 5.718210e+002
3.570854e+002, 5.720857e+002
3.575675e+002, 5.722762e+002
3.580496e+002, 5.724211e+002
3.585317e+002, 5.726859e+002
3.590138e+002, 5.737103e+002
3.594959e+002, 5.746920e+002
3.599781e+002, 5.740085e+002
3.604602e+002, 5.713207e+002
3.609423e+002, 5.686443e+002
3.614244e+002, 5.670060e+002
3.619065e+002, 5.665213e+002
3.623886e+002, 5.675624e+002
3.628708e+002, 5.719007e+002
3.633529e+002, 5.760247e+002
3.638350e+002, 5.765117e+002
3.643171e+002, 5.738656e+002
3.647992e+002, 5.714000e+002
3.652813e+002, 5.702364e+002
3.657635e+002, 5.704538e+002
3.662456e+002, 5.726445e+002
3.667277e+002, 5.782001e+002
3.672098e+002, 5.814109e+002
3.676919e+002, 5.776281e+002
3.681740e+002, 5.703082e+002
3.686562e+002, 5.663271e+002
3.691383e+002, 5.677145e+002
3.696204e+002, 5.709545e+002
3.701025e+002, 5.718485e+002
3.705846e+002, 5.702695e+002
3.710667e+002, 5.686166e+002
3.715489e+002, 5.666647e+002
3.720310e+002, 5.650856e+002
3.725131e+002, 5.644948e+002
3.729952e+002, 5.649164e+002
3.734773e+002, 5.661929e+002
3.739594e+002, 5.686127e+002
3.744416e+002, 5.718821e+002
3.749237e+002, 5.730292e+002
3.754058e+002, 5.695145e+002
3.758879e+002, 5.668279e+002
3.763700e+002, 5.682198e+002
3.768521e+002, 5.719844e+002
3.773343e+002, 5.741434e+002
3.778164e+002, 5.726984e+002
3.782985e+002, 5.696962e+002
3.787806e+002, 5.700336e+002
3.792627e+002, 5.764547e+002
3.797448e+002, 5.816163e+002
3.802270e+002, 5.842932e+002
3.807091e+002, 5.859003e+002
3.811912e+002, 5.877696e+002
3.816733e+002, 5.901597e+002
3.821554e+002, 5.925042e+002
3.826375e+002, 5.941483e+002
3.831197e+002, 5.948826e+002
3.836018e+002, 5.959537e+002
3.840839e+002, 5.975938e+002
3.845660e+002, 5.992758e+002
3.850481e+002, 6.007992e+002
3.855302e+002, 6.021691e+002
3.860124e+002, 6.032880e+002
3.864945e+002, 6.039858e+002
3.869766e+002, 6.045808e+002
3.874587e+002, 6.068206e+002
3.879408e+002, 6.128199e+002
3.884229e+002, 6.180015e+002
3.889051e+002, 6.212564e+002
3.893872e+002, 6.237838e+002
3.898693e+002, 6.269442e+002
3.903514e+002, 6.311460e+002
3.908335e+002, 6.356832e+002
3.913156e+002, 6.392957e+002
3.917978e+002, 6.413984e+002
3.922799e+002, 6.442050e+002
3.927620e+002, 6.485692e+002
3.932441e+002, 6.529012e+002
3.937262e+002, 6.560041e+002
3.942083e+002, 6.582373e+002
3.946905e+002, 6.609963e+002
3.951726e+002, 6.654202e+002
3.956547e+002, 6.714058e+002
3.961368e+002, 6.780656e+002
3.966189e+002, 6.867083e+002
3.971010e+002, 6.940010e+002
3.975832e+002, 6.978761e+002
3.980653e+002, 7.003441e+002
3.985474e+002, 7.040187e+002
3.990295e+002, 7.100361e+002
3.995116e+002, 7.172576e+002
3.999937e+002, 7.238624e+002
4.004759e+002, 7.296772e+002
4.009580e+002, 7.357476e+002
4.014401e+002, 7.431078e+002
4.019222e+002, 7.501799e+002
4.024043e+002, 7.550541e+002
4.028864e+002, 7.578791e+002
4.033686e+002, 7.618926e+002
4.038507e+002, 7.703287e+002
4.043328e+002, 7.821422e+002
4.048149e+002, 7.924909e+002
4.052970e+002, 8.000812e+002
4.057791e+002, 8.081246e+002
4.062613e+002, 8.183911e+002
4.067434e+002, 8.306701e+002
4.072255e+002, 8.452160e+002
4.077076e+002, 8.636711e+002
4.081897e+002, 8.828906e+002
4.086718e+002, 8.981824e+002
4.091540e+002, 9.097864e+002
4.096361e+002, 9.237029e+002
4.101182e+002, 9.429313e+002
4.106003e+002, 9.655936e+002
4.110824e+002, 9.881409e+002
4.115645e+002, 1.010555e+003
4.120467e+002, 1.033230e+003
4.125288e+002, 1.055691e+003
4.130109e+002, 1.078689e+003
4.134930e+002, 1.104221e+003
4.139751e+002, 1.132896e+003
4.144572e+002, 1.161695e+003
4.149394e+002, 1.187365e+003
4.154215e+002, 1.209715e+003
4.159036e+002, 1.231570e+003
4.163857e+002, 1.253064e+003
4.168678e+002, 1.273950e+003
4.173499e+002, 1.295235e+003
4.178321e+002, 1.315890e+003
4.183142e+002, 1.332900e+003
4.187963e+002, 1.344402e+003
4.192784e+002, 1.351204e+003
4.197605e+002, 1.355716e+003
4.202426e+002, 1.355646e+003
4.207248e+002, 1.356555e+003
4.212069e+002, 1.359297e+003
4.216890e+002, 1.363173e+003
4.221711e+002, 1.367897e+003
4.226532e+002, 1.373229e+003
4.231353e+002, 1.378306e+003
4.236175e+002, 1.382019e+003
4.240996e+002, 1.384013e+003
4.245817e+002, 1.386438e+003
4.250638e+002, 1.388478e+003
4.255459e+002, 1.391687e+003
4.260280e+002, 1.398351e+003
4.265102e+002, 1.406531e+003
4.269923e+002, 1.412242e+003
4.274744e+002, 1.412973e+003
4.279565e+002, 1.410340e+003
4.284386e+002, 1.410047e+003
4.289207e+002, 1.415363e+003
4.294029e+002, 1.416932e+003
4.298850e+002, 1.414517e+003
4.303671e+002, 1.407915e+003
4.308492e+002, 1.395821e+003
4.313313e+002, 1.378506e+003
4.318134e+002, 1.359342e+003
4.322956e+002, 1.342625e+003
4.327777e+002, 1.328483e+003
4.332598e+002, 1.309953e+003
4.337419e+002, 1.285034e+003
4.342241e+002, 1.257965e+003
4.347062e+002, 1.229437e+003
4.351883e+002, 1.200506e+003
4.356704e+002, 1.173183e+003
4.361525e+002, 1.148173e+003
4.366346e+002, 1.125396e+003
4.371168e+002, 1.104995e+003
4.375989e+002, 1.087121e+003
4.380810e+002, 1.070436e+003
4.385631e+002, 1.055134e+003
4.390452e+002, 1.040482e+003
4.395273e+002, 1.025313e+003
4.400095e+002, 1.009489e+003
4.404916e+002, 9.944594e+002
4.409737e+002, 9.809066e+002
4.414558e+002, 9.686844e+002
4.419379e+002, 9.576287e+002
4.424200e+002, 9.476922e+002
4.429022e+002, 9.388043e+002
4.433843e+002, 9.309097e+002
4.438664e+002, 9.240449e+002
4.443485e+002, 9.178986e+002
4.448306e+002, 9.131708e+002
4.453127e+002, 9.084478e+002
4.457949e+002, 9.024596e+002
4.462770e+002, 8.957948e+002
4.467591e+002, 8.902136e+002
4.472412e+002, 8.865706e+002
4.477233e+002, 8.836996e+002
4.482054e+002, 8.795228e+002
4.486876e+002, 8.742953e+002
4.491697e+002, 8.668638e+002
4.496518e+002, 8.556271e+002
4.501339e+002, 8.433392e+002
4.506160e+002, 8.322983e+002
4.510981e+002, 8.224442e+002
4.515803e+002, 8.120277e+002
4.520624e+002, 7.996486e+002
4.525445e+002, 7.854700e+002
4.530266e+002, 7.719445e+002
4.535087e+002, 7.588787e+002
4.539908e+002, 7.468257e+002
4.544730e+002, 7.365615e+002
4.549551e+002, 7.271156e+002
4.554372e+002, 7.176786e+002
4.559193e+002, 7.079523e+002
4.564014e+002, 6.977806e+002
4.568835e+002, 6.866416e+002
4.573657e+002, 6.740694e+002
4.578478e+002, 6.627543e+002
4.583299e+002, 6.533597e+002
4.588120e+002, 6.447785e+002
4.592941e+002, 6.370113e+002
4.597762e+002, 6.297196e+002
4.602584e+002, 6.221473e+002
4.607405e+002, 6.136840e+002
4.612226e+002, 6.049133e+002
4.617047e+002, 5.965887e+002
4.621868e+002, 5.883119e+002
4.626689e+002, 5.823406e+002
4.631511e+002, 5.813787e+002
4.636332e+002, 5.818952e+002
4.641153e+002, 5.804271e+002
4.645974e+002, 5.766335e+002
4.650795e+002, 5.722989e+002
4.655616e+002, 5.684362e+002
4.660438e+002, 5.648087e+002
4.665259e+002, 5.605673e+002
4.670080e+002, 5.554417e+002
4.674901e+002, 5.509070e+002
4.679722e+002, 5.483493e+002
4.684543e+002, 5.474588e+002
4.689365e+002, 5.463534e+002
4.694186e+002, 5.451115e+002
4.699007e+002, 5.434855e+002
4.703828e+002, 5.412287e+002
4.708649e+002, 5.385086e+002
4.713470e+002, 5.354712e+002
4.718292e+002, 5.320960e+002
4.723113e+002, 5.290852e+002
4.727934e+002, 5.276818e+002
4.732755e+002, 5.289775e+002
4.737576e+002, 5.286520e+002
4.742397e+002, 5.246127e+002
4.747219e+002, 5.208456e+002
4.752040e+002, 5.203889e+002
4.756861e+002, 5.223573e+002
4.761682e+002, 5.237649e+002
4.766503e+002, 5.226482e+002
4.771324e+002, 5.196915e+002
4.776146e+002, 5.176489e+002
4.780967e+002, 5.177593e+002
4.785788e+002, 5.167277e+002
4.790609e+002, 5.134778e+002
4.795430e+002, 5.096293e+002
4.800251e+002, 5.060600e+002
4.805073e+002, 5.030998e+002
4.809894e+002, 5.010896e+002
4.814715e+002, 5.007404e+002
4.819536e+002, 5.018926e+002
4.824357e+002, 5.022739e+002
4.829178e+002, 5.014311e+002
4.834000e+002, 5.005971e+002
4.838821e+002, 5.010226e+002
4.843642e+002, 5.015372e+002
4.848463e+002, 5.002121e+002
4.853284e+002, 4.959713e+002
4.858105e+002, 4.917209e+002
4.862927e+002, 4.907951e+002
4.867748e+002, 4.926015e+002
4.872569e+002, 4.933745e+002
4.877390e+002, 4.919838e+002
4.882211e+002, 4.900518e+002
4.887032e+002, 4.893590e+002
4.891854e+002, 4.896848e+002
4.896675e+002, 4.899566e+002
4.901496e+002, 4.899128e+002
4.906317e+002, 4.897889e+002
4.911138e+002, 4.899553e+002
4.915959e+002, 4.902530e+002
4.920781e+002, 4.899951e+002
4.925602e+002, 4.887769e+002
4.930423e+002, 4.870518e+002
4.935244e+002, 4.857992e+002
4.940065e+002, 4.852486e+002
4.944886e+002, 4.847671e+002
4.949708e+002, 4.845749e+002
4.954529e+002, 4.842596e+002
4.959350e+002, 4.831018e+002
4.964171e+002, 4.813984e+002
4.968992e+002, 4.804340e+002
4.973813e+002, 4.813226e+002
4.978635e+002, 4.836520e+002
4.983456e+002, 4.848329e+002
4.988277e+002, 4.837977e+002
4.993098e+002, 4.831712e+002
4.997919e+002, 4.839428e+002
5.002740e+002, 4.848751e+002
5.007562e+002, 4.848415e+002
5.012383e+002, 4.836694e+002
5.017204e+002, 4.820429e+002
5.022025e+002, 4.805148e+002
5.026846e+002, 4.790978e+002
5.031667e+002, 4.778316e+002
5.036489e+002, 4.766119e+002
5.041310e+002, 4.757878e+002
5.046131e+002, 4.759122e+002
5.050952e+002, 4.764437e+002
5.055773e+002, 4.766261e+002
5.060594e+002, 4.763152e+002
5.065416e+002, 4.755756e+002
5.070237e+002, 4.738238e+002
5.075058e+002, 4.715955e+002
5.079879e+002, 4.712130e+002
5.084700e+002, 4.737240e+002
5.089521e+002, 4.762271e+002
5.094343e+002, 4.750448e+002
5.099164e+002, 4.701883e+002
5.103985e+002, 4.674005e+002
5.108806e+002, 4.684537e+002
5.113627e+002, 4.702529e+002
5.118448e+002, 4.712449e+002
5.123270e+002, 4.716273e+002
5.128091e+002, 4.721611e+002
5.132912e+002, 4.731935e+002
5.137733e+002, 4.741424e+002
5.142554e+002, 4.738402e+002
5.147375e+002, 4.713414e+002
5.152197e+002, 4.698275e+002
5.157018e+002, 4.691299e+002
5.161839e+002, 4.694185e+002
5.166660e+002, 4.718206e+002
5.171481e+002, 4.752683e+002
5.176302e+002, 4.772730e+002
5.181124e+002, 4.761794e+002
5.185945e+002, 4.732165e+002
5.190766e+002, 4.714599e+002
5.195587e+002, 4.710098e+002
5.200408e+002, 4.713951e+002
5.205229e+002, 4.738765e+002
5.210051e+002, 4.761309e+002
5.214872e+002, 4.762253e+002
5.219693e+002, 4.743914e+002
5.224514e+002, 4.727503e+002
5.229335e+002, 4.728899e+002
5.234156e+002, 4.739207e+002
5.238978e+002, 4.742459e+002
5.243799e+002, 4.738386e+002
5.248620e+002, 4.730405e+002
5.253441e+002, 4.719702e+002
5.258262e+002, 4.706483e+002
5.263083e+002, 4.689003e+002
5.267905e+002, 4.661793e+002
5.272726e+002, 4.648276e+002
5.277547e+002, 4.663481e+002
5.282368e+002, 4.691260e+002
5.287189e+002, 4.718617e+002
5.292010e+002, 4.742153e+002
5.296832e+002, 4.754452e+002
5.301653e+002, 4.747310e+002
5.306474e+002, 4.725466e+002
5.311295e+002, 4.721173e+002
5.316116e+002, 4.753751e+002
5.320938e+002, 4.780254e+002
5.325759e+002, 4.794866e+002
5.330580e+002, 4.803385e+002
5.335401e+002, 4.807535e+002
5.340222e+002, 4.809787e+002
5.345043e+002, 4.817774e+002
5.349865e+002, 4.840203e+002
5.354686e+002, 4.875756e+002
5.359507e+002, 4.910303e+002
5.364328e+002, 4.949800e+002
5.369149e+002, 4.976897e+002
5.373970e+002, 4.971920e+002
5.378792e+002, 4.958877e+002
5.383613e+002, 4.961336e+002
5.388434e+002, 4.983895e+002
5.393255e+002, 5.021773e+002
5.398076e+002, 5.080131e+002
5.402897e+002, 5.150487e+002
5.407719e+002, 5.208984e+002
5.412540e+002, 5.251219e+002
5.417361e+002, 5.291835e+002
5.422182e+002, 5.340316e+002
5.427003e+002, 5.396122e+002
5.431824e+002, 5.454664e+002
5.436646e+002, 5.507037e+002
5.441467e+002, 5.573390e+002
5.446288e+002, 5.674272e+002
5.451109e+002, 5.787572e+002
5.455930e+002, 5.879272e+002
5.460751e+002, 5.944239e+002
5.465573e+002, 6.010054e+002
5.470394e+002, 6.108878e+002
5.475215e+002, 6.242035e+002
5.480036e+002, 6.346205e+002
5.484857e+002, 6.396631e+002
5.489678e+002, 6.445853e+002
5.494500e+002, 6.508430e+002
5.499321e+002, 6.571654e+002
5.504142e+002, 6.622112e+002
5.508963e+002, 6.656163e+002
5.513784e+002, 6.678091e+002
5.518605e+002, 6.690104e+002
5.523427e+002, 6.692767e+002
5.528248e+002, 6.697560e+002
5.533069e+002, 6.714301e+002
5.537890e+002, 6.713581e+002
5.542711e+002, 6.667836e+002
5.547532e+002, 6.597209e+002
5.552354e+002, 6.527958e+002
5.557175e+002, 6.463382e+002
5.561996e+002, 6.403316e+002
5.566817e+002, 6.354607e+002
5.571638e+002, 6.309040e+002
5.576459e+002, 6.249443e+002
5.581281e+002, 6.172925e+002
5.586102e+002, 6.083846e+002
5.590923e+002, 5.982759e+002
5.595744e+002, 5.870612e+002
5.600565e+002, 5.770685e+002
5.605386e+002, 5.683181e+002
5.610208e+002, 5.605765e+002
5.615029e+002, 5.538988e+002
5.619850e+002, 5.480803e+002
5.624671e+002, 5.426556e+002
5.629492e+002, 5.376387e+002
5.634313e+002, 5.337607e+002
5.639135e+002, 5.319114e+002
5.643956e+002, 5.320541e+002
5.648777e+002, 5.327151e+002
5.653598e+002, 5.349937e+002
5.658419e+002, 5.359867e+002
5.663240e+002, 5.332445e+002
5.668062e+002, 5.297408e+002
5.672883e+002, 5.287303e+002
5.677704e+002, 5.309245e+002
5.682525e+002, 5.343073e+002
5.687346e+002, 5.374753e+002
5.692167e+002, 5.406207e+002
5.696989e+002, 5.437599e+002
5.701810e+002, 5.466518e+002
5.706631e+002, 5.517712e+002
5.711452e+002, 5.615720e+002
5.716273e+002, 5.746050e+002
5.721094e+002, 5.854776e+002
5.725916e+002, 5.929916e+002
5.730737e+002, 6.006737e+002
5.735558e+002, 6.095038e+002
5.740379e+002, 6.189662e+002
5.745200e+002, 6.290541e+002
5.750021e+002, 6.393704e+002
5.754843e+002, 6.483214e+002
5.759664e+002, 6.544759e+002
5.764485e+002, 6.582303e+002
5.769306e+002, 6.621092e+002
5.774127e+002, 6.673632e+002
5.778948e+002, 6.705757e+002
5.783770e+002, 6.705362e+002
5.788591e+002, 6.690780e+002
5.793412e+002, 6.666795e+002
5.798233e+002, 6.639352e+002
5.803054e+002, 6.626481e+002
5.807875e+002, 6.644617e+002
5.812697e+002, 6.685417e+002
5.817518e+002, 6.730114e+002
5.822339e+002, 6.779359e+002
5.827161e+002, 6.826611e+002
5.831982e+002, 6.865065e+002
5.836803e+002, 6.904030e+002
5.841624e+002, 6.956398e+002
5.846445e+002, 7.022399e+002
5.851266e+002, 7.098184e+002
5.856088e+002, 7.192118e+002
5.860909e+002, 7.288385e+002
5.865730e+002, 7.364660e+002
5.870551e+002, 7.429183e+002
5.875372e+002, 7.514835e+002
5.880193e+002, 7.638998e+002
5.885015e+002, 7.786891e+002
5.889836e+002, 7.925476e+002
5.894657e+002, 8.048483e+002
5.899478e+002, 8.175962e+002
5.904299e+002, 8.309701e+002
5.909120e+002, 8.446094e+002
5.913942e+002, 8.584727e+002
5.918763e+002, 8.724093e+002
5.923584e+002, 8.857394e+002
5.928405e+002, 8.977780e+002
5.933226e+002, 9.105817e+002
5.938047e+002, 9.266748e+002
5.942869e+002, 9.461315e+002
5.947690e+002, 9.700922e+002
5.952511e+002, 9.996696e+002
5.957332e+002, 1.032392e+003
5.962153e+002, 1.066049e+003
5.966974e+002, 1.101055e+003
5.971796e+002, 1.139385e+003
5.976617e+002, 1.185341e+003
5.981438e+002, 1.230571e+003
5.986259e+002, 1.276103e+003
5.991080e+002, 1.316379e+003
5.995901e+002, 1.342680e+003
6.000723e+002, 1.352632e+003
6.005544e+002, 1.346415e+003
6.010365e+002, 1.323175e+003
6.015186e+002, 1.282590e+003
6.020007e+002, 1.236863e+003
6.024828e+002, 1.183386e+003
6.029650e+002, 1.127419e+003
6.034471e+002, 1.066774e+003
6.039292e+002, 1.005935e+003
6.044113e+002, 9.477411e+002
6.048934e+002, 8.934305e+002
6.053755e+002, 8.442493e+002
6.058577e+002, 8.023486e+002
6.063398e+002, 7.666024e+002
6.068219e+002, 7.322596e+002
6.073040e+002, 6.988799e+002
6.077861e+002, 6.694688e+002
6.082682e+002, 6.460258e+002
6.087504e+002, 6.268868e+002
6.092325e+002, 6.086740e+002
6.097146e+002, 5.910673e+002
6.101967e+002, 5.758718e+002
6.106788e+002, 5.649301e+002
6.111609e+002, 5.554535e+002
6.116431e+002, 5.448413e+002
6.121252e+002, 5.334135e+002
6.126073e+002, 5.230164e+002
6.130894e+002, 5.146473e+002
6.135715e+002, 5.076120e+002
6.140536e+002, 5.003197e+002
6.145358e+002, 4.922263e+002
6.150179e+002, 4.853285e+002
6.155000e+002, 4.803384e+002
6.159821e+002, 4.758436e+002
6.164642e+002, 4.710897e+002
6.169464e+002, 4.664244e+002
6.174285e+002, 4.626720e+002
6.179106e+002, 4.602979e+002
6.183927e+002, 4.582878e+002
6.188748e+002, 4.555714e+002
6.193569e+002, 4.522108e+002
6.198391e+002, 4.482791e+002
6.203212e+002, 4.435350e+002
6.208033e+002, 4.392947e+002
6.212854e+002, 4.368009e+002
6.217675e+002, 4.358056e+002
6.222496e+002, 4.346008e+002
6.227318e+002, 4.332296e+002
6.232139e+002, 4.315939e+002
6.236960e+002, 4.292690e+002
6.241781e+002, 4.269024e+002
6.246602e+002, 4.254749e+002
6.251423e+002, 4.248849e+002
6.256245e+002, 4.238936e+002
6.261066e+002, 4.213152e+002
6.265887e+002, 4.177680e+002
6.270708e+002, 4.163071e+002
6.275529e+002, 4.183279e+002
6.280350e+002, 4.190523e+002
6.285172e+002, 4.163115e+002
6.289993e+002, 4.128558e+002
6.294814e+002, 4.096588e+002
6.299635e+002, 4.071315e+002
6.304456e+002, 4.066154e+002
6.309277e+002, 4.103102e+002
6.314099e+002, 4.149311e+002
6.318920e+002, 4.172296e+002
6.323741e+002, 4.173622e+002
6.328562e+002, 4.155091e+002
6.333383e+002, 4.114653e+002
6.338204e+002, 4.070677e+002
6.343026e+002, 4.044193e+002
6.347847e+002, 4.036191e+002
6.352668e+002, 4.037698e+002
6.357489e+002, 4.059918e+002
6.362310e+002, 4.076826e+002
6.367131e+002, 4.078097e+002
6.371953e+002, 4.071321e+002
6.376774e+002, 4.064056e+002
6.381595e+002, 4.058658e+002
6.386416e+002, 4.055485e+002
6.391237e+002, 4.054612e+002
6.396058e+002, 4.056230e+002
6.400880e+002, 4.064102e+002
6.405701e+002, 4.082292e+002
6.410522e+002, 4.089784e+002
6.415343e+002, 4.072787e+002
6.420164e+002, 4.044987e+002
6.424985e+002, 4.026689e+002
6.429807e+002, 4.019014e+002
6.434628e+002, 4.004695e+002
6.439449e+002, 3.967177e+002
6.444270e+002, 3.931074e+002
6.449091e+002, 3.919635e+002
6.453912e+002, 3.926186e+002
6.458734e+002, 3.930511e+002
6.463555e+002, 3.924379e+002
6.468376e+002, 3.915782e+002
6.473197e+002, 3.918615e+002
6.478018e+002, 3.937046e+002
6.482839e+002, 3.943057e+002
6.487661e+002, 3.927710e+002
6.492482e+002, 3.910363e+002
6.497303e+002, 3.891891e+002
6.502124e+002, 3.877047e+002
6.506945e+002, 3.873082e+002
6.511766e+002, 3.881743e+002
6.516588e+002, 3.892353e+002
6.521409e+002, 3.896944e+002
6.526230e+002, 3.897753e+002
6.531051e+002, 3.899961e+002
6.535872e+002, 3.903748e+002
6.540693e+002, 3.904759e+002
6.545515e+002, 3.900313e+002
6.550336e+002, 3.892376e+002
6.555157e+002, 3.884715e+002
6.559978e+002, 3.876271e+002
6.564799e+002, 3.870962e+002
6.569620e+002, 3.868195e+002
6.574442e+002, 3.869214e+002
6.579263e+002, 3.879947e+002
6.584084e+002, 3.893627e+002
6.588905e+002, 3.897208e+002
6.593726e+002, 3.885436e+002
6.598547e+002, 3.869497e+002
6.603369e+002, 3.866413e+002
6.608190e+002, 3.874811e+002
6.613011e+002, 3.871718e+002
6.617832e+002, 3.849540e+002
6.622653e+002, 3.834568e+002
6.627474e+002, 3.851822e+002
6.632296e+002, 3.881230e+002
6.637117e+002, 3.881800e+002
6.641938e+002, 3.843988e+002
6.646759e+002, 3.807113e+002
6.651580e+002, 3.769502e+002
6.656401e+002, 3.748438e+002
6.661223e+002, 3.776115e+002
6.666044e+002, 3.836303e+002
6.670865e+002, 3.874222e+002
6.675686e+002, 3.860872e+002
6.680507e+002, 3.823929e+002
6.685328e+002, 3.819509e+002
6.690150e+002, 3.860099e+002
6.694971e+002, 3.879159e+002
6.699792e+002, 3.865924e+002
6.704613e+002, 3.842536e+002
6.709434e+002, 3.810441e+002
6.714255e+002, 3.778177e+002
6.719077e+002, 3.759967e+002
6.723898e+002, 3.761046e+002
6.728719e+002, 3.764271e+002
6.733540e+002, 3.752985e+002
6.738361e+002, 3.739636e+002
6.743182e+002, 3.749670e+002
6.748004e+002, 3.781195e+002
6.752825e+002, 3.803515e+002
6.757646e+002, 3.798129e+002
6.762467e+002, 3.776048e+002
6.767288e+002, 3.762365e+002
6.772109e+002, 3.760285e+002
6.776931e+002, 3.759206e+002
6.781752e+002, 3.757616e+002
6.786573e+002, 3.758479e+002
6.791394e+002, 3.764570e+002
6.796215e+002, 3.773481e+002
6.801036e+002, 3.781839e+002
6.805858e+002, 3.788590e+002
6.810679e+002, 3.792900e+002
6.815500e+002, 3.794237e+002
6.820321e+002, 3.792408e+002
6.825142e+002, 3.784868e+002
6.829963e+002, 3.771000e+002
6.834785e+002, 3.760433e+002
6.839606e+002, 3.758138e+002
6.844427e+002, 3.762932e+002
6.849248e+002, 3.773454e+002
6.854069e+002, 3.797704e+002
6.858890e+002, 3.808270e+002
6.863712e+002, 3.796541e+002
6.868533e+002, 3.779070e+002
6.873354e+002, 3.756941e+002
6.878175e+002, 3.737603e+002
6.882996e+002, 3.736798e+002
6.887817e+002, 3.760102e+002
6.892639e+002, 3.783594e+002
6.897460e+002, 3.772856e+002
6.902281e+002, 3.734102e+002
6.907102e+002, 3.709960e+002
6.911923e+002, 3.703391e+002
6.916744e+002, 3.707712e+002
6.921566e+002, 3.729052e+002
6.926387e+002, 3.752636e+002
6.931208e+002, 3.743303e+002
6.936029e+002, 3.689117e+002
6.940850e+002, 3.658845e+002
6.945671e+002, 3.680359e+002
6.950493e+002, 3.713015e+002
6.955314e+002, 3.740628e+002
6.960135e+002, 3.757405e+002
6.964956e+002, 3.753127e+002
6.969777e+002, 3.725186e+002
6.974598e+002, 3.690236e+002
6.979420e+002, 3.668186e+002
6.984241e+002, 3.658792e+002
6.989062e+002, 3.655877e+002
6.993883e+002, 3.658828e+002
6.998704e+002, 3.670538e+002
7.003525e+002, 3.701132e+002
7.008347e+002, 3.735046e+002
7.013168e+002, 3.750725e+002
7.017989e+002, 3.746686e+002
7.022810e+002, 3.740473e+002
7.027631e+002, 3.732997e+002
7.032452e+002, 3.728383e+002
7.037274e+002, 3.732533e+002
7.042095e+002, 3.741155e+002
7.046916e+002, 3.745598e+002
7.051737e+002, 3.743166e+002
7.056558e+002, 3.737840e+002
7.061379e+002, 3.734627e+002
7.066201e+002, 3.733176e+002
7.071022e+002, 3.726089e+002
7.075843e+002, 3.708797e+002
7.080664e+002, 3.696632e+002
7.085485e+002, 3.699694e+002
7.090306e+002, 3.706099e+002
7.095128e+002, 3.703485e+002
7.099949e+002, 3.692415e+002
7.104770e+002, 3.685264e+002
7.109591e+002, 3.685712e+002
7.114412e+002, 3.691712e+002
7.119233e+002, 3.707498e+002
7.124055e+002, 3.726334e+002
7.128876e+002, 3.734406e+002
7.133697e+002, 3.728806e+002
7.138518e+002, 3.717915e+002
7.143339e+002, 3.709151e+002
7.148160e+002, 3.702667e+002
7.152982e+002, 3.700166e+002
7.157803e+002, 3.704294e+002
7.162624e+002, 3.706119e+002
7.167445e+002, 3.694917e+002
7.172266e+002, 3.688776e+002
7.177087e+002, 3.706663e+002
7.181909e+002, 3.741965e+002
7.186730e+002, 3.766624e+002
7.191551e+002, 3.770122e+002
7.196372e+002, 3.762952e+002
7.201193e+002, 3.743061e+002
7.206014e+002, 3.720508e+002
7.210836e+002, 3.713791e+002
7.215657e+002, 3.724819e+002
7.220478e+002, 3.742809e+002
7.225299e+002, 3.761039e+002
7.230120e+002, 3.776874e+002
7.234941e+002, 3.779115e+002
7.239763e+002, 3.761362e+002
7.244584e+002, 3.747723e+002
7.249405e+002, 3.738916e+002
7.254226e+002, 3.736702e+002
7.259047e+002, 3.747595e+002
7.263868e+002, 3.764647e+002
7.268690e+002, 3.772957e+002
7.273511e+002, 3.767029e+002
7.278332e+002, 3.757851e+002
7.283153e+002, 3.750106e+002
7.287974e+002, 3.744021e+002
7.292795e+002, 3.743475e+002
7.297617e+002, 3.746058e+002
7.302438e+002, 3.738391e+002
7.307259e+002, 3.712198e+002
7.312080e+002, 3.678608e+002
7.316901e+002, 3.660977e+002
7.321722e+002, 3.663924e+002
7.326544e+002, 3.663656e+002
7.331365e+002, 3.658495e+002
7.336186e+002, 3.652308e+002
7.341007e+002, 3.644637e+002
7.345828e+002, 3.637907e+002
7.350649e+002, 3.636353e+002
7.355471e+002, 3.641050e+002
7.360292e+002, 3.644036e+002
7.365113e+002, 3.637140e+002
7.369934e+002, 3.630345e+002
7.374755e+002, 3.633619e+002
7.379576e+002, 3.645515e+002
7.384398e+002, 3.664637e+002
7.389219e+002, 3.689978e+002
7.394040e+002, 3.707230e+002
7.398861e+002, 3.695231e+002
7.403682e+002, 3.654682e+002
7.408503e+002, 3.633143e+002
7.413325e+002, 3.637485e+002
7.418146e+002, 3.646563e+002
7.422967e+002, 3.668163e+002
7.427788e+002, 3.681409e+002
7.432609e+002, 3.659633e+002
7.437430e+002, 3.607960e+002
7.442252e+002, 3.571357e+002
7.447073e+002, 3.567564e+002
7.451894e+002, 3.578326e+002
7.456715e+002, 3.600286e+002
7.461536e+002, 3.625926e+002
7.466357e+002, 3.643667e+002
7.471179e+002, 3.651652e+002
7.476000e+002, 3.653721e+002
7.480821e+002, 3.652438e+002
7.485642e+002, 3.648656e+002
7.490463e+002, 3.646276e+002
7.495284e+002, 3.647480e+002
7.500106e+002, 3.639317e+002
7.504927e+002, 3.611587e+002
7.509748e+002, 3.585870e+002
7.514569e+002, 3.577882e+002
7.519390e+002, 3.582372e+002
7.524211e+002, 3.588564e+002
7.529033e+002, 3.593527e+002
7.533854e+002, 3.604343e+002
7.538675e+002, 3.635366e+002
7.543496e+002, 3.664255e+002
7.548317e+002, 3.669162e+002
7.553138e+002, 3.653194e+002
7.557960e+002, 3.625884e+002
7.562781e+002, 3.591554e+002
7.567602e+002, 3.563235e+002
7.572423e+002, 3.562855e+002
7.577244e+002, 3.589504e+002
7.582065e+002, 3.615269e+002
7.586887e+002, 3.641979e+002
7.591708e+002, 3.659599e+002
7.596529e+002, 3.661268e+002
7.601350e+002, 3.653650e+002
7.606171e+002, 3.644504e+002
7.610992e+002, 3.633233e+002
7.615814e+002, 3.627819e+002
7.620635e+002, 3.634656e+002
7.625456e+002, 3.641484e+002
7.630277e+002, 3.643755e+002
7.635098e+002, 3.642201e+002
7.639919e+002, 3.636142e+002
7.644741e+002, 3.626823e+002
7.649562e+002, 3.619627e+002
7.654383e+002, 3.618253e+002
7.659204e+002, 3.622465e+002
7.664025e+002, 3.635275e+002
7.668846e+002, 3.656078e+002
7.673668e+002, 3.666979e+002
7.678489e+002, 3.662228e+002
7.683310e+002, 3.654402e+002
7.688131e+002, 3.656061e+002
7.692952e+002, 3.663576e+002
7.697773e+002, 3.656080e+002
7.702595e+002, 3.612738e+002
7.707416e+002, 3.585420e+002
7.712237e+002, 3.589050e+002
7.717058e+002, 3.598455e+002
7.721879e+002, 3.595816e+002
7.726700e+002, 3.586979e+002
7.731522e+002, 3.588712e+002
7.736343e+002, 3.608235e+002
7.741164e+002, 3.626172e+002
7.745985e+002, 3.622603e+002
7.750806e+002, 3.604302e+002
7.755627e+002, 3.582488e+002
7.760449e+002, 3.558994e+002
7.765270e+002, 3.544845e+002
7.770091e+002, 3.545086e+002
7.774912e+002, 3.556517e+002
7.779733e+002, 3.577160e+002
7.784554e+002, 3.610853e+002
7.789376e+002, 3.623028e+002
7.794197e+002, 3.597823e+002
7.799019e+002, 3.572348e+002
7.803840e+002, 3.548471e+002
7.808661e+002, 3.531749e+002
7.813482e+002, 3.531158e+002
7.818303e+002, 3.544011e+002
7.823124e+002, 3.553198e+002
7.827946e+002, 3.545232e+002
7.832767e+002, 3.538829e+002
7.837588e+002, 3.551519e+002
7.842409e+002, 3.575500e+002
7.847230e+002, 3.600465e+002
7.852051e+002, 3.622906e+002
7.856873e+002, 3.635250e+002
7.861694e+002, 3.630977e+002
7.866515e+002, 3.617672e+002
7.871336e+002, 3.618802e+002
7.876157e+002, 3.641409e+002
7.880978e+002, 3.637082e+002
7.885800e+002, 3.584523e+002
7.890621e+002, 3.535833e+002
7.895442e+002, 3.518118e+002
7.900263e+002, 3.522452e+002
7.905084e+002, 3.539174e+002
7.909905e+002, 3.573094e+002
7.914727e+002, 3.592326e+002
7.919548e+002, 3.571401e+002
7.924369e+002, 3.551074e+002
7.929190e+002, 3.563654e+002
7.934011e+002, 3.592154e+002
7.938832e+002, 3.606262e+002
7.943654e+002, 3.599267e+002
7.948475e+002, 3.587778e+002
7.953296e+002, 3.588196e+002
7.958117e+002, 3.593497e+002
7.962938e+002, 3.579440e+002
7.967759e+002, 3.546640e+002
7.972581e+002, 3.533196e+002
7.977402e+002, 3.551940e+002
7.982223e+002, 3.576455e+002
7.987044e+002, 3.584113e+002
7.991865e+002, 3.577797e+002
7.996686e+002, 3.574768e+002
8.001508e+002, 3.578629e+002
8.006329e+002, 3.580621e+002
8.011150e+002, 3.578500e+002
8.015971e+002, 3.576629e+002
8.020792e+002, 3.577556e+002
8.025613e+002, 3.580567e+002
8.030435e+002, 3.584631e+002
8.035256e+002, 3.589650e+002
8.040077e+002, 3.593253e+002
8.044898e+002, 3.593932e+002
8.049719e+002, 3.592068e+002
8.054540e+002, 3.585452e+002
8.059362e+002, 3.576368e+002
8.064183e+002, 3.575608e+002
8.069004e+002, 3.586956e+002
8.073825e+002, 3.597509e+002
8.078646e+002, 3.590439e+002
8.083467e+002, 3.567989e+002
8.088289e+002, 3.560359e+002
8.093110e+002, 3.574776e+002
8.097931e+002, 3.584526e+002
8.102752e+002, 3.584115e+002
8.107573e+002, 3.577048e+002
8.112394e+002, 3.559811e+002
8.117216e+002, 3.537891e+002
8.122037e+002, 3.531042e+002
8.126858e+002, 3.553836e+002
8.131679e+002, 3.569723e+002
8.136500e+002, 3.554822e+002
8.141321e+002, 3.537538e+002
8.146143e+002, 3.548028e+002
8.150964e+002, 3.576353e+002
8.155785e+002, 3.594251e+002
8.160606e+002, 3.590281e+002
8.165427e+002, 3.577866e+002
8.170248e+002, 3.573678e+002
8.175070e+002, 3.573566e+002
8.179891e+002, 3.558585e+002
8.184712e+002, 3.528512e+002
8.189533e+002, 3.510858e+002
8.194354e+002, 3.517190e+002
8.199175e+002, 3.532577e+002
8.203997e+002, 3.541315e+002
8.208818e+002, 3.543387e+002
8.213639e+002, 3.537388e+002
8.218460e+002, 3.511136e+002
8.223281e+002, 3.495126e+002
8.228102e+002, 3.499814e+002
8.232924e+002, 3.508605e+002
8.237745e+002, 3.511879e+002
8.242566e+002, 3.510392e+002
8.247387e+002, 3.508456e+002
8.252208e+002, 3.508640e+002
8.257029e+002, 3.504116e+002
8.261851e+002, 3.483364e+002
8.266672e+002, 3.460847e+002
8.271493e+002, 3.457053e+002
8.276314e+002, 3.466967e+002
8.281135e+002, 3.471602e+002
8.285956e+002, 3.463606e+002
8.290778e+002, 3.449417e+002
8.295599e+002, 3.434200e+002
8.300420e+002, 3.419597e+002
8.305241e+002, 3.417261e+002
8.310062e+002, 3.428126e+002
8.314883e+002, 3.447573e+002
8.319705e+002, 3.481526e+002
8.324526e+002, 3.508833e+002
8.329347e+002, 3.504363e+002
8.334168e+002, 3.472537e+002
8.338989e+002, 3.456448e+002
8.343810e+002, 3.466978e+002
8.348632e+002, 3.475814e+002
8.353453e+002, 3.484532e+002
8.358274e+002, 3.486923e+002
8.363095e+002, 3.473885e+002
8.367916e+002, 3.453115e+002
8.372737e+002, 3.438540e+002
8.377559e+002, 3.434253e+002
8.382380e+002, 3.435958e+002
8.387201e+002, 3.443150e+002
8.392022e+002, 3.452747e+002
8.396843e+002, 3.464116e+002
8.401664e+002, 3.474197e+002
8.406486e+002, 3.471480e+002
8.411307e+002, 3.453268e+002
8.416128e+002, 3.435252e+002
8.420949e+002, 3.434822e+002
8.425770e+002, 3.445894e+002
8.430591e+002, 3.436946e+002
8.435413e+002, 3.401239e+002
8.440234e+002, 3.380976e+002
8.445055e+002, 3.388768e+002
8.449876e+002, 3.401737e+002
8.454697e+002, 3.405203e+002
8.459518e+002, 3.401993e+002
8.464340e+002, 3.400167e+002
8.469161e+002, 3.399574e+002
8.473982e+002, 3.400730e+002
8.478803e+002, 3.400099e+002
8.483624e+002, 3.405184e+002
8.488445e+002, 3.430362e+002
8.493267e+002, 3.458202e+002
8.498088e+002, 3.463840e+002
8.502909e+002, 3.444316e+002
8.507730e+002, 3.418399e+002
8.512551e+002, 3.389950e+002
8.517372e+002, 3.369774e+002
8.522194e+002, 3.376746e+002
8.527015e+002, 3.401120e+002
8.531836e+002, 3.420057e+002
8.536657e+002, 3.429417e+002
8.541478e+002, 3.433563e+002
8.546299e+002, 3.435127e+002
8.551121e+002, 3.434943e+002
8.555942e+002, 3.436056e+002
8.560763e+002, 3.439511e+002
8.565584e+002, 3.434441e+002
8.570405e+002, 3.417978e+002
8.575226e+002, 3.399102e+002
8.580048e+002, 3.377154e+002
8.584869e+002, 3.358497e+002
8.589690e+002, 3.351734e+002
8.594511e+002, 3.356843e+002
8.599332e+002, 3.372272e+002
8.604153e+002, 3.416790e+002
8.608975e+002, 3.447309e+002
8.613796e+002, 3.445995e+002
8.618617e+002, 3.430779e+002
8.623438e+002, 3.409683e+002
8.628259e+002, 3.389149e+002
8.633080e+002, 3.381991e+002
8.637902e+002, 3.395703e+002
8.642723e+002, 3.414705e+002
8.647544e+002, 3.430539e+002
8.652365e+002, 3.440952e+002
8.657186e+002, 3.439296e+002
8.662007e+002, 3.428463e+002
8.666829e+002, 3.419613e+002
8.671650e+002, 3.417014e+002
8.676471e+002, 3.417849e+002
8.681292e+002, 3.419001e+002
8.686113e+002, 3.420670e+002
8.690934e+002, 3.423324e+002
8.695756e+002, 3.426335e+002
8.700577e+002, 3.436457e+002
8.705398e+002, 3.459904e+002
8.710219e+002, 3.478800e+002
8.715040e+002, 3.474457e+002
8.719861e+002, 3.455540e+002
8.724683e+002, 3.455032e+002
8.729504e+002, 3.491074e+002
8.734325e+002, 3.511588e+002
8.739146e+002, 3.506868e+002
8.743967e+002, 3.497227e+002
8.748788e+002, 3.490421e+002
8.753610e+002, 3.484091e+002
8.758431e+002, 3.471244e+002
8.763252e+002, 3.452303e+002
8.768073e+002, 3.443862e+002
8.772894e+002, 3.463147e+002
8.777715e+002, 3.486073e+002
8.782537e+002, 3.492511e+002
8.787358e+002, 3.491270e+002
8.792179e+002, 3.497617e+002
8.797000e+002, 3.510928e+002
8.801821e+002, 3.516589e+002
8.806642e+002, 3.505372e+002
8.811464e+002, 3.492144e+002
8.816285e+002, 3.504299e+002
8.821106e+002, 3.535843e+002
8.825927e+002, 3.549183e+002
8.830748e+002, 3.541909e+002
8.835569e+002, 3.546058e+002
8.840391e+002, 3.577102e+002
8.845212e+002, 3.610912e+002
8.850033e+002, 3.618113e+002
8.854854e+002, 3.600207e+002
8.859675e+002, 3.587327e+002
8.864496e+002, 3.575016e+002
8.869318e+002, 3.576876e+002
8.874139e+002, 3.608057e+002
8.878960e+002, 3.639833e+002
8.883781e+002, 3.652060e+002
8.888602e+002, 3.654760e+002
8.893423e+002, 3.669824e+002
8.898245e+002, 3.704120e+002
8.903066e+002, 3.730701e+002
8.907887e+002, 3.736219e+002
8.912708e+002, 3.738436e+002
8.917529e+002, 3.751872e+002
8.922350e+002, 3.766359e+002
8.927172e+002, 3.760777e+002
8.931993e+002, 3.737940e+002
8.936814e+002, 3.729755e+002
8.941635e+002, 3.761964e+002
8.946456e+002, 3.803824e+002
8.951277e+002, 3.810409e+002
8.956099e+002, 3.800542e+002
8.960920e+002, 3.824673e+002
8.965741e+002, 3.880818e+002
8.970562e+002, 3.918779e+002
8.975383e+002, 3.913940e+002
8.980204e+002, 3.896537e+002
8.985026e+002, 3.912928e+002
8.989847e+002, 3.959359e+002
8.994668e+002, 3.984608e+002
8.999489e+002, 3.983767e+002
9.004310e+002, 3.989467e+002
9.009131e+002, 4.008628e+002
9.013953e+002, 4.040139e+002
9.018774e+002, 4.087289e+002
9.023595e+002, 4.145615e+002
9.028416e+002, 4.192944e+002
9.033237e+002, 4.215946e+002
9.038058e+002, 4.252679e+002
9.042880e+002, 4.319749e+002
9.047701e+002, 4.380964e+002
9.052522e+002, 4.421798e+002
9.057343e+002, 4.448998e+002
9.062164e+002, 4.463514e+002
9.066985e+002, 4.468056e+002
9.071807e+002, 4.492222e+002
9.076628e+002, 4.560869e+002
9.081449e+002, 4.635019e+002
9.086270e+002, 4.686046e+002
9.091091e+002, 4.736011e+002
9.095912e+002, 4.808665e+002
9.100734e+002, 4.903948e+002
9.105555e+002, 5.013803e+002
9.110376e+002, 5.134902e+002
9.115197e+002, 5.259178e+002
9.120018e+002, 5.371212e+002
9.124839e+002, 5.482394e+002
9.129661e+002, 5.621265e+002
9.134482e+002, 5.783046e+002
9.139303e+002, 5.935350e+002
9.144124e+002, 6.071011e+002
9.148945e+002, 6.219084e+002
9.153766e+002, 6.406208e+002
9.158588e+002, 6.624142e+002
9.163409e+002, 6.845031e+002
9.168230e+002, 7.064845e+002
9.173051e+002, 7.332582e+002
9.177872e+002, 7.664626e+002
9.182693e+002, 7.995958e+002
9.187515e+002, 8.270970e+002
9.192336e+002, 8.556914e+002
9.197157e+002, 8.961335e+002
9.201978e+002, 9.497772e+002
9.206799e+002, 1.003319e+003
9.211620e+002, 1.050740e+003
9.216442e+002, 1.106505e+003
9.221263e+002, 1.175067e+003
9.226084e+002, 1.249911e+003
9.230905e+002, 1.325986e+003
9.235726e+002, 1.404917e+003
9.240547e+002, 1.492227e+003
9.245369e+002, 1.589672e+003
9.250190e+002, 1.689896e+003
9.255011e+002, 1.789153e+003
9.259832e+002, 1.891303e+003
9.264653e+002, 2.003932e+003
9.269474e+002, 2.119714e+003
9.274296e+002, 2.231703e+003
9.279117e+002, 2.336224e+003
9.283938e+002, 2.427981e+003
9.288759e+002, 2.506055e+003
9.293580e+002, 2.564650e+003
9.298401e+002, 2.598065e+003
9.303223e+002, 2.606795e+003
9.308044e+002, 2.588606e+003
9.312865e+002, 2.546153e+003
9.317686e+002, 2.487186e+003
9.322507e+002, 2.415259e+003
9.327328e+002, 2.335578e+003
9.332150e+002, 2.252298e+003
9.336971e+002, 2.167395e+003
9.341792e+002, 2.085865e+003
9.346613e+002, 2.007890e+003
9.351434e+002, 1.940721e+003
9.356255e+002, 1.885489e+003
9.361077e+002, 1.844081e+003
9.365898e+002, 1.817322e+003
9.370719e+002, 1.805782e+003
9.375540e+002, 1.810196e+003
9.380361e+002, 1.830264e+003
9.385182e+002, 1.867325e+003
9.390004e+002, 1.918628e+003
9.394825e+002, 1.992591e+003
9.399646e+002, 2.094975e+003
9.404467e+002, 2.218077e+003
9.409288e+002, 2.357583e+003
9.414109e+002, 2.512667e+003
9.418931e+002, 2.678434e+003
9.423752e+002, 2.863789e+003
9.428573e+002, 3.043045e+003
9.433394e+002, 3.233321e+003
9.438215e+002, 3.394661e+003
9.443036e+002, 3.520130e+003
9.447858e+002, 3.596228e+003
9.452679e+002, 3.605297e+003
9.457500e+002, 3.546754e+003
9.462321e+002, 3.438544e+003
9.467142e+002, 3.272114e+003
9.471964e+002, 3.079017e+003
9.476785e+002, 2.861082e+003
9.481606e+002, 2.638297e+003
9.486427e+002, 2.425836e+003
9.491248e+002, 2.229854e+003
9.496069e+002, 2.055685e+003
9.500891e+002, 1.906035e+003
9.505712e+002, 1.776220e+003
9.510533e+002, 1.664989e+003
9.515354e+002, 1.569225e+003
9.520175e+002, 1.484884e+003
9.524996e+002, 1.411215e+003
9.529818e+002, 1.346871e+003
9.534639e+002, 1.291049e+003
9.539460e+002, 1.242505e+003
9.544281e+002, 1.200470e+003
9.549102e+002, 1.164464e+003
9.553923e+002, 1.134780e+003
9.558745e+002, 1.110838e+003
9.563566e+002, 1.089402e+003
9.568387e+002, 1.070522e+003
9.573208e+002, 1.050551e+003
9.578029e+002, 1.027850e+003
9.582850e+002, 1.006356e+003
9.587672e+002, 9.898047e+002
9.592493e+002, 9.772839e+002
9.597314e+002, 9.654281e+002
9.602135e+002, 9.551727e+002
9.606956e+002, 9.415814e+002
9.611777e+002, 9.218038e+002
9.616599e+002, 9.043920e+002
9.621420e+002, 8.942955e+002
9.626241e+002, 8.870281e+002
9.631062e+002, 8.774430e+002
9.635883e+002, 8.655563e+002
9.640704e+002, 8.520221e+002
9.645526e+002, 8.358659e+002
9.650347e+002, 8.195881e+002
9.655168e+002, 8.036708e+002
9.659989e+002, 7.873998e+002
9.664810e+002, 7.704287e+002
9.669631e+002, 7.528607e+002
9.674453e+002, 7.346770e+002
9.679274e+002, 7.157714e+002
9.684095e+002, 6.968834e+002
9.688916e+002, 6.779276e+002
9.693737e+002, 6.592968e+002
9.698558e+002, 6.397521e+002
9.703380e+002, 6.216301e+002
9.708201e+002, 6.083077e+002
9.713022e+002, 5.982150e+002
9.717843e+002, 5.863897e+002
9.722664e+002, 5.710084e+002
9.727485e+002, 5.581556e+002
9.732307e+002, 5.539747e+002
9.737128e+002, 5.524237e+002
9.741949e+002, 5.476175e+002
9.746770e+002, 5.411750e+002
9.751591e+002, 5.358353e+002
9.756412e+002, 5.320731e+002
9.761234e+002, 5.291874e+002
9.766055e+002, 5.267386e+002
9.770876e+002, 5.253054e+002
9.775698e+002, 5.260945e+002
9.780519e+002, 5.281989e+002
9.785340e+002, 5.304580e+002
9.790161e+002, 5.322685e+002
9.794982e+002, 5.307633e+002
9.799803e+002, 5.255325e+002
9.804625e+002, 5.210930e+002
9.809446e+002, 5.213282e+002
9.814267e+002, 5.236968e+002
9.819088e+002, 5.221515e+002
9.823909e+002, 5.172399e+002
9.828730e+002, 5.145245e+002
9.833552e+002, 5.143943e+002
9.838373e+002, 5.143531e+002
9.843194e+002, 5.135910e+002
9.848015e+002, 5.119040e+002
9.852836e+002, 5.089244e+002
9.857657e+002, 5.049521e+002
9.862479e+002, 5.013653e+002
9.867300e+002, 4.981196e+002
9.872121e+002, 4.956260e+002
9.876942e+002, 4.942463e+002
9.881763e+002, 4.925720e+002
9.886584e+002, 4.897632e+002
9.891406e+002, 4.865972e+002
9.896227e+002, 4.838488e+002
9.901048e+002, 4.815187e+002
9.905869e+002, 4.816157e+002
9.910690e+002, 4.870682e+002
9.915511e+002, 4.891490e+002
9.920333e+002, 4.842222e+002
9.925154e+002, 4.791961e+002
9.929975e+002, 4.779084e+002
9.934796e+002, 4.786776e+002
9.939617e+002, 4.790252e+002
9.944438e+002, 4.789088e+002
9.949260e+002, 4.786440e+002
9.954081e+002, 4.766196e+002
9.958902e+002, 4.767166e+002
9.963723e+002, 4.814255e+002
9.968544e+002, 4.868724e+002
9.973365e+002, 4.908716e+002
9.978187e+002, 4.935530e+002
9.983008e+002, 4.951515e+002
9.987829e+002, 4.955546e+002
9.992650e+002, 4.966808e+002
9.997471e+002, 4.986635e+002
1.000229e+003, 5.020419e+002
1.000711e+003, 5.079442e+002
1.001193e+003, 5.146591e+002
1.001676e+003, 5.204489e+002
1.002158e+003, 5.256806e+002
1.002640e+003, 5.319255e+002
1.003122e+003, 5.398108e+002
1.003604e+003, 5.469991e+002
1.004086e+003, 5.502188e+002
1.004568e+003, 5.542855e+002
1.005050e+003, 5.640071e+002
1.005533e+003, 5.764550e+002
1.006015e+003, 5.868310e+002
1.006497e+003, 5.957105e+002
1.006979e+003, 6.076486e+002
1.007461e+003, 6.248707e+002
1.007943e+003, 6.433541e+002
1.008425e+003, 6.592601e+002
1.008907e+003, 6.745753e+002
1.009389e+003, 6.900598e+002
1.009872e+003, 7.073527e+002
1.010354e+003, 7.308080e+002
1.010836e+003, 7.599059e+002
1.011318e+003, 7.883387e+002
1.011800e+003, 8.122319e+002
1.012282e+003, 8.352497e+002
1.012764e+003, 8.628051e+002
1.013246e+003, 8.926013e+002
1.013729e+003, 9.204545e+002
1.014211e+003, 9.461110e+002
1.014693e+003, 9.686779e+002
1.015175e+003, 9.881107e+002
1.015657e+003, 1.006217e+003
1.016139e+003, 1.024628e+003
1.016621e+003, 1.040153e+003
1.017103e+003, 1.047738e+003
1.017585e+003, 1.047674e+003
1.018068e+003, 1.040696e+003
1.018550e+003, 1.027111e+003
1.019032e+003, 1.008186e+003
1.019514e+003, 9.844069e+002
1.019996e+003, 9.585150e+002
1.020478e+003, 9.329718e+002
1.020960e+003, 9.065418e+002
1.021442e+003, 8.755796e+002
1.021924e+003, 8.404271e+002
1.022407e+003, 8.069588e+002
1.022889e+003, 7.753969e+002
1.023371e+003, 7.461060e+002
1.023853e+003, 7.190514e+002
1.024335e+003, 6.945317e+002
1.024817e+003, 6.729056e+002
1.025299e+003, 6.537362e+002
1.025781e+003, 6.357230e+002
1.026264e+003, 6.187698e+002
1.026746e+003, 6.030758e+002
1.027228e+003, 5.884940e+002
1.027710e+003, 5.761871e+002
1.028192e+003, 5.667141e+002
1.028674e+003, 5.592664e+002
1.029156e+003, 5.532802e+002
1.029638e+003, 5.485413e+002
1.030120e+003, 5.442705e+002
1.030603e+003, 5.410126e+002
1.031085e+003, 5.360025e+002
1.031567e+003, 5.279039e+002
1.032049e+003, 5.214979e+002
1.032531e+003, 5.193549e+002
1.033013e+003, 5.179794e+002
1.033495e+003, 5.138428e+002
1.033977e+003, 5.074953e+002
1.034459e+003, 5.017132e+002
1.034942e+003, 4.967772e+002
1.035424e+003, 4.917134e+002
1.035906e+003, 4.860723e+002
1.036388e+003, 4.811791e+002
1.036870e+003, 4.790380e+002
1.037352e+003, 4.761888e+002
1.037834e+003, 4.681842e+002
1.038316e+003, 4.561583e+002
1.038799e+003, 4.469380e+002
1.039281e+003, 4.417023e+002
1.039763e+003, 4.369291e+002
1.040245e+003, 4.327468e+002
1.040727e+003, 4.288167e+002
1.041209e+003, 4.258688e+002
1.041691e+003, 4.224387e+002
1.042173e+003, 4.163306e+002
1.042656e+003, 4.082802e+002
1.043138e+003, 4.023553e+002
1.043620e+003, 3.993389e+002
1.044102e+003, 3.971689e+002
1.044584e+003, 3.967998e+002
1.045066e+003, 3.959268e+002
1.045548e+003, 3.930028e+002
1.046030e+003, 3.897445e+002
1.046512e+003, 3.884335e+002
1.046995e+003, 3.884096e+002
1.047477e+003, 3.861867e+002
1.047959e+003, 3.791068e+002
1.048441e+003, 3.751165e+002
1.048923e+003, 3.783039e+002
1.049405e+003, 3.812589e+002
1.049887e+003, 3.807655e+002
1.050369e+003, 3.787365e+002
1.050851e+003, 3.767106e+002
1.051334e+003, 3.749527e+002
1.051816e+003, 3.739114e+002
1.052298e+003, 3.739240e+002
1.052780e+003, 3.739038e+002
1.053262e+003, 3.734690e+002
1.053744e+003, 3.731057e+002
1.054226e+003, 3.728435e+002
1.054708e+003, 3.729056e+002
1.055191e+003, 3.737693e+002
1.055673e+003, 3.751497e+002
1.056155e+003, 3.759628e+002
1.056637e+003, 3.756342e+002
1.057119e+003, 3.759215e+002
1.057601e+003, 3.784108e+002
1.058083e+003, 3.803657e+002
1.058565e+003, 3.804660e+002
1.059047e+003, 3.793304e+002
1.059530e+003, 3.767738e+002
1.060012e+003, 3.736628e+002
1.060494e+003, 3.723334e+002
1.060976e+003, 3.737263e+002
1.061458e+003, 3.751048e+002
1.061940e+003, 3.755966e+002
1.062422e+003, 3.757281e+002
1.062904e+003, 3.758817e+002
1.063386e+003, 3.757311e+002
1.063869e+003, 3.751016e+002
1.064351e+003, 3.738532e+002
1.064833e+003, 3.712159e+002
1.065315e+003, 3.665443e+002
1.065797e+003, 3.640471e+002
1.066279e+003, 3.678386e+002
1.066761e+003, 3.713209e+002
1.067243e+003, 3.698806e+002
1.067726e+003, 3.673450e+002
1.068208e+003, 3.678393e+002
1.068690e+003, 3.704103e+002
1.069172e+003, 3.719511e+002
1.069654e+003, 3.716482e+002
1.070136e+003, 3.711270e+002
1.070618e+003, 3.705378e+002
1.071100e+003, 3.705857e+002
1.071583e+003, 3.726849e+002
1.072065e+003, 3.746977e+002
1.072547e+003, 3.734579e+002
1.073029e+003, 3.708824e+002
1.073511e+003, 3.715025e+002
1.073993e+003, 3.763067e+002
1.074475e+003, 3.811288e+002
1.074957e+003, 3.850714e+002
1.075439e+003, 3.873826e+002
1.075922e+003, 3.855464e+002
1.076404e+003, 3.838507e+002
1.076886e+003, 3.865234e+002
1.077368e+003, 3.920428e+002
1.077850e+003, 3.971357e+002
1.078332e+003, 4.012249e+002
1.078814e+003, 4.056809e+002
1.079296e+003, 4.119074e+002
1.079779e+003, 4.174690e+002
1.080261e+003, 4.200045e+002
1.080743e+003, 4.225364e+002
1.081225e+003, 4.283766e+002
1.081707e+003, 4.354560e+002
1.082189e+003, 4.395577e+002
1.082671e+003, 4.406680e+002
1.083153e+003, 4.440569e+002
1.083635e+003, 4.524937e+002
1.084118e+003, 4.621116e+002
1.084600e+003, 4.703343e+002
1.085082e+003, 4.799612e+002
1.085564e+003, 4.938589e+002
1.086046e+003, 5.099001e+002
1.086528e+003, 5.249057e+002
1.087010e+003, 5.388860e+002
1.087492e+003, 5.539801e+002
1.087974e+003, 5.701989e+002
1.088457e+003, 5.896752e+002
1.088939e+003, 6.141299e+002
1.089421e+003, 6.413044e+002
1.089903e+003, 6.699774e+002
1.090385e+003, 7.005776e+002
1.090867e+003, 7.333797e+002
1.091349e+003, 7.686053e+002
1.091831e+003, 8.076236e+002
1.092314e+003, 8.515490e+002
1.092796e+003, 8.954740e+002
1.093278e+003, 9.371932e+002
1.093760e+003, 9.787233e+002
1.094242e+003, 1.024127e+003
1.094724e+003, 1.067237e+003
1.095206e+003, 1.104567e+003
1.095688e+003, 1.134244e+003
1.096171e+003, 1.153993e+003
1.096653e+003, 1.163591e+003
1.097135e+003, 1.161236e+003
1.097617e+003, 1.143619e+003
1.098099e+003, 1.117552e+003
1.098581e+003, 1.084295e+003
1.099063e+003, 1.044865e+003
1.099545e+003, 9.978036e+002
1.100027e+003, 9.460269e+002
1.100510e+003, 8.946483e+002
1.100992e+003, 8.441574e+002
1.101474e+003, 7.961720e+002
1.101956e+003, 7.491107e+002
1.102438e+003, 7.074677e+002
1.102920e+003, 6.738629e+002
1.103402e+003, 6.444663e+002
1.103884e+003, 6.180769e+002
1.104366e+003, 5.937396e+002
1.104849e+003, 5.692432e+002
1.105331e+003, 5.449094e+002
1.105813e+003, 5.260209e+002
1.106295e+003, 5.185373e+002
1.106777e+003, 5.083368e+002
1.107259e+003, 4.897944e+002
1.107741e+003, 4.726087e+002
1.108223e+003, 4.613773e+002
1.108706e+003, 4.534990e+002
1.109188e+003, 4.469184e+002
1.109670e+003, 4.411445e+002
1.110152e+003, 4.343902e+002
1.110634e+003, 4.251856e+002
1.111116e+003, 4.180215e+002
1.111598e+003, 4.148829e+002
1.112080e+003, 4.114719e+002
1.112563e+003, 4.055189e+002
1.113045e+003, 3.998695e+002
1.113527e+003, 3.977297e+002
1.114009e+003, 3.974105e+002
1.114491e+003, 3.942015e+002
1.114973e+003, 3.871465e+002
1.115455e+003, 3.813224e+002
1.115937e+003, 3.769605e+002
1.116419e+003, 3.734529e+002
1.116901e+003, 3.709538e+002
1.117384e+003, 3.689571e+002
1.117866e+003, 3.673063e+002
1.118348e+003, 3.658283e+002
1.118830e+003, 3.641782e+002
1.119312e+003, 3.623356e+002
1.119794e+003, 3.609543e+002
1.120276e+003, 3.601695e+002
1.120758e+003, 3.595490e+002
1.121241e+003, 3.593578e+002
1.121723e+003, 3.586566e+002
1.122205e+003, 3.572143e+002
1.122687e+003, 3.545868e+002
1.123169e+003, 3.495723e+002
1.123651e+003, 3.431099e+002
1.124133e+003, 3.411265e+002
1.124615e+003, 3.448456e+002
1.125098e+003, 3.473144e+002
1.125580e+003, 3.483720e+002
1.126062e+003, 3.475512e+002
1.126544e+003, 3.441138e+002
1.127026e+003, 3.410142e+002
1.127508e+003, 3.410529e+002
1.127990e+003, 3.425405e+002
1.128472e+003, 3.406873e+002
1.128954e+003, 3.353174e+002
1.129437e+003, 3.341520e+002
1.129919e+003, 3.375860e+002
1.130401e+003, 3.386391e+002
1.130883e+003, 3.356804e+002
1.131365e+003, 3.321873e+002
1.131847e+003, 3.300485e+002
1.132329e+003, 3.297824e+002
1.132811e+003, 3.329725e+002
1.133293e+003, 3.383315e+002
1.133776e+003, 3.391475e+002
1.134258e+003, 3.359967e+002
1.134740e+003, 3.342807e+002
1.135222e+003, 3.345549e+002
1.135704e+003, 3.348472e+002
1.136186e+003, 3.343610e+002
1.136668e+003, 3.340865e+002
1.137150e+003, 3.351693e+002
1.137633e+003, 3.366447e+002
1.138115e+003, 3.361642e+002
1.138597e+003, 3.345467e+002
1.139079e+003, 3.346007e+002
1.139561e+003, 3.359780e+002
1.140043e+003, 3.366203e+002
1.140525e+003, 3.360369e+002
1.141007e+003, 3.347867e+002
1.141490e+003, 3.331273e+002
1.141972e+003, 3.317339e+002
1.142454e+003, 3.312270e+002
1.142936e+003, 3.316454e+002
1.143418e+003, 3.340709e+002
1.143900e+003, 3.370500e+002
1.144382e+003, 3.373120e+002
1.144864e+003, 3.350893e+002
1.145346e+003, 3.328622e+002
1.145828e+003, 3.316201e+002
1.146311e+003, 3.307278e+002
1.146793e+003, 3.298686e+002
1.147275e+003, 3.289500e+002
1.147757e+003, 3.272162e+002
1.148239e+003, 3.259201e+002
1.148721e+003, 3.270621e+002
1.149203e+003, 3.296332e+002
1.149685e+003, 3.319220e+002
1.150168e+003, 3.333379e+002
1.150650e+003, 3.330459e+002
1.151132e+003, 3.296089e+002
1.151614e+003, 3.269032e+002
1.152096e+003, 3.275521e+002
1.152578e+003, 3.289057e+002
1.153060e+003, 3.292908e+002
1.153542e+003, 3.292466e+002
1.154025e+003, 3.297772e+002
1.154507e+003, 3.305540e+002
1.154989e+003, 3.300298e+002
1.155471e+003, 3.274034e+002
1.155953e+003, 3.260084e+002
1.156435e+003, 3.274797e+002
1.156917e+003, 3.291136e+002
1.157399e+003, 3.306785e+002
1.157881e+003, 3.314793e+002
1.158364e+003, 3.303557e+002
1.158846e+003, 3.285079e+002
1.159328e+003, 3.281923e+002
1.159810e+003, 3.295317e+002
1.160292e+003, 3.297084e+002
1.160774e+003, 3.279833e+002
1.161256e+003, 3.263501e+002
1.161738e+003, 3.239887e+002
1.162220e+003, 3.233424e+002
1.162703e+003, 3.266328e+002
1.163185e+003, 3.300856e+002
1.163667e+003, 3.297664e+002
1.164149e+003, 3.269815e+002
1.164631e+003, 3.261732e+002
1.165113e+003, 3.277391e+002
1.165595e+003, 3.288492e+002
1.166077e+003, 3.294419e+002
1.166560e+003, 3.298212e+002
1.167042e+003, 3.299903e+002
1.167524e+003, 3.302968e+002
1.168006e+003, 3.310354e+002
1.168488e+003, 3.316120e+002
1.168970e+003, 3.309221e+002
1.169452e+003, 3.294251e+002
1.169934e+003, 3.298285e+002
1.170417e+003, 3.319393e+002
1.170899e+003, 3.329122e+002
1.171381e+003, 3.325343e+002
1.171863e+003, 3.319017e+002
1.172345e+003, 3.314052e+002
1.172827e+003, 3.310511e+002
1.173309e+003, 3.307270e+002
1.173791e+003, 3.311038e+002
1.174273e+003, 3.345297e+002
1.174755e+003, 3.389492e+002
1.175238e+003, 3.390429e+002
1.175720e+003, 3.359797e+002
1.176202e+003, 3.325541e+002
1.176684e+003, 3.298399e+002
1.177166e+003, 3.297275e+002
1.177648e+003, 3.329949e+002
1.178130e+003, 3.369614e+002
1.178612e+003, 3.405219e+002
1.179095e+003, 3.423483e+002
1.179577e+003, 3.391398e+002
1.180059e+003, 3.350159e+002
1.180541e+003, 3.359807e+002
1.181023e+003, 3.396432e+002
1.181505e+003, 3.403454e+002
1.181987e+003, 3.375676e+002
1.182469e+003, 3.353045e+002
1.182952e+003, 3.350907e+002
1.183434e+003, 3.357047e+002
1.183916e+003, 3.367491e+002
1.184398e+003, 3.382857e+002
1.184880e+003, 3.410241e+002
1.185362e+003, 3.436923e+002
1.185844e+003, 3.449157e+002
1.186326e+003, 3.451316e+002
1.186808e+003, 3.456646e+002
1.187291e+003, 3.467589e+002
1.187773e+003, 3.471580e+002
1.188255e+003, 3.460441e+002
1.188737e+003, 3.453219e+002
1.189219e+003, 3.452571e+002
1.189701e+003, 3.455135e+002
1.190183e+003, 3.457812e+002
1.190665e+003, 3.465651e+002
1.191147e+003, 3.488896e+002
1.191630e+003, 3.520367e+002
1.192112e+003, 3.527032e+002
1.192594e+003, 3.501769e+002
1.193076e+003, 3.487241e+002
1.193558e+003, 3.483922e+002
1.194040e+003, 3.492044e+002
1.194522e+003, 3.515229e+002
1.195004e+003, 3.526408e+002
1.195487e+003, 3.506955e+002
1.195969e+003, 3.480021e+002
1.196451e+003, 3.479580e+002
1.196933e+003, 3.497216e+002
1.197415e+003, 3.500799e+002
1.197897e+003, 3.492659e+002
1.198379e+003, 3.480178e+002
1.198861e+003, 3.467731e+002
1.199344e+003, 3.482409e+002
1.199826e+003, 3.528172e+002
1.200308e+003, 3.565630e+002
1.200790e+003, 3.568052e+002
1.201272e+003, 3.551352e+002
1.201754e+003, 3.519976e+002
1.202236e+003, 3.493524e+002
1.202718e+003, 3.512607e+002
1.203200e+003, 3.549487e+002
1.203682e+003, 3.550947e+002
1.204165e+003, 3.525987e+002
1.204647e+003, 3.521928e+002
1.205129e+003, 3.549925e+002
1.205611e+003, 3.565358e+002
1.206093e+003, 3.533138e+002
1.206575e+003, 3.502075e+002
1.207057e+003, 3.489395e+002
1.207539e+003, 3.495152e+002
1.208022e+003, 3.532524e+002
1.208504e+003, 3.578602e+002
1.208986e+003, 3.611086e+002
1.209468e+003, 3.628273e+002
1.209950e+003, 3.629761e+002
1.210432e+003, 3.609551e+002
1.210914e+003, 3.598911e+002
1.211396e+003, 3.608226e+002
1.211879e+003, 3.614506e+002
1.212361e+003, 3.611974e+002
1.212843e+003, 3.610422e+002
1.213325e+003, 3.618090e+002
1.213807e+003, 3.623802e+002
1.214289e+003, 3.610348e+002
1.214771e+003, 3.584929e+002
1.215253e+003, 3.586141e+002
1.215735e+003, 3.618880e+002
1.216218e+003, 3.630800e+002
1.216700e+003, 3.618959e+002
1.217182e+003, 3.610597e+002
1.217664e+003, 3.612050e+002
1.218146e+003, 3.617045e+002
1.218628e+003, 3.621642e+002
1.219110e+003, 3.631480e+002
1.219592e+003, 3.657772e+002
1.220074e+003, 3.690075e+002
1.220557e+003, 3.702255e+002
1.221039e+003, 3.700524e+002
1.221521e+003, 3.699177e+002
1.222003e+003, 3.699783e+002
1.222485e+003, 3.704802e+002
1.222967e+003, 3.712470e+002
1.223449e+003, 3.710337e+002
1.223931e+003, 3.690236e+002
1.224414e+003, 3.668447e+002
1.224896e+003, 3.655278e+002
1.225378e+003, 3.648374e+002
1.225860e+003, 3.648128e+002
1.226342e+003, 3.651235e+002
1.226824e+003, 3.656474e+002
1.227306e+003, 3.661557e+002
1.227788e+003, 3.663122e+002
1.228271e+003, 3.660748e+002
1.228753e+003, 3.655327e+002
1.229235e+003, 3.638820e+002
1.229717e+003, 3.634241e+002
1.230199e+003, 3.656881e+002
1.230681e+003, 3.675301e+002
1.231163e+003, 3.677538e+002
1.231645e+003, 3.675085e+002
1.232127e+003, 3.674545e+002
1.232609e+003, 3.676775e+002
1.233092e+003, 3.685301e+002
1.233574e+003, 3.699651e+002
1.234056e+003, 3.695003e+002
1.234538e+003, 3.665775e+002
1.235020e+003, 3.670205e+002
1.235502e+003, 3.716705e+002
1.235984e+003, 3.744557e+002
1.236466e+003, 3.732216e+002
1.236949e+003, 3.715398e+002
1.237431e+003, 3.722246e+002
1.237913e+003, 3.738084e+002
1.238395e+003, 3.738992e+002
1.238877e+003, 3.731119e+002
1.239359e+003, 3.725594e+002
1.239841e+003, 3.724753e+002
1.240323e+003, 3.738056e+002
1.240806e+003, 3.760713e+002
1.241288e+003, 3.776825e+002
1.241770e+003, 3.781674e+002
1.242252e+003, 3.778560e+002
1.242734e+003, 3.764922e+002
1.243216e+003, 3.755720e+002
1.243698e+003, 3.762748e+002
1.244180e+003, 3.775137e+002
1.244662e+003, 3.784287e+002
1.245145e+003, 3.795862e+002
1.245627e+003, 3.826658e+002
1.246109e+003, 3.861276e+002
1.246591e+003, 3.860150e+002
1.247073e+003, 3.816945e+002
1.247555e+003, 3.791239e+002
1.248037e+003, 3.796053e+002
1.248519e+003, 3.800213e+002
1.249001e+003, 3.803238e+002
1.249484e+003, 3.803356e+002
1.249966e+003, 3.798103e+002
1.250448e+003, 3.794231e+002
1.250930e+003, 3.797144e+002
1.251412e+003, 3.804678e+002
1.251894e+003, 3.812964e+002
1.252376e+003, 3.821965e+002
1.252858e+003, 3.831736e+002
1.253341e+003, 3.841926e+002
1.253823e+003, 3.848175e+002
1.254305e+003, 3.851212e+002
1.254787e+003, 3.860843e+002
1.255269e+003, 3.879011e+002
1.255751e+003, 3.893138e+002
1.256233e+003, 3.894119e+002
1.256715e+003, 3.893445e+002
1.257198e+003, 3.907263e+002
1.257680e+003, 3.922226e+002
1.258162e+003, 3.922789e+002
1.258644e+003, 3.915737e+002
1.259126e+003, 3.903500e+002
1.259608e+003, 3.893773e+002
1.260090e+003, 3.903141e+002
1.260572e+003, 3.931468e+002
1.261054e+003, 3.953101e+002
1.261536e+003, 3.960630e+002
1.262019e+003, 3.962442e+002
1.262501e+003, 3.957485e+002
1.262983e+003, 3.950462e+002
1.263465e+003, 3.936227e+002
1.263947e+003, 3.929019e+002
1.264429e+003, 3.942300e+002
1.264911e+003, 3.962329e+002
1.265393e+003, 3.968279e+002
1.265876e+003, 3.962119e+002
1.266358e+003, 3.958917e+002
1.266840e+003, 3.959382e+002
1.267322e+003, 3.942726e+002
1.267804e+003, 3.908576e+002
1.268286e+003, 3.909327e+002
1.268768e+003, 3.954762e+002
1.269250e+003, 3.987146e+002
1.269733e+003, 3.974409e+002
1.270215e+003, 3.948061e+002
1.270697e+003, 3.935980e+002
1.271179e+003, 3.938671e+002
1.271661e+003, 3.968672e+002
1.272143e+003, 4.004608e+002
1.272625e+003, 4.016253e+002
1.273107e+003, 4.010134e+002
1.273589e+003, 3.995432e+002
1.274072e+003, 3.979150e+002
1.274554e+003, 3.976618e+002
1.275036e+003, 3.993499e+002
1.275518e+003, 4.011660e+002
1.276000e+003, 4.035437e+002
1.276482e+003, 4.044540e+002
1.276964e+003, 4.017495e+002
1.277446e+003, 3.995659e+002
1.277929e+003, 4.005612e+002
1.278411e+003, 4.018620e+002
1.278893e+003, 4.003463e+002
1.279375e+003, 3.973760e+002
1.279857e+003, 3.965593e+002
1.280339e+003, 3.979161e+002
1.280821e+003, 4.014067e+002
1.281303e+003, 4.071570e+002
1.281786e+003, 4.105762e+002
1.282268e+003, 4.110391e+002
##END=



