##NAMES=Edwindavisite
##RRUFFID=R230005
##IDEAL CHEMISTRY=Cu^2+^((C_2_)^6+^O_4_)(N^3-^H_3_)
##LOCALITY=125' Level, Rowley mine, Maricopa County, Arizona, USA
##OWNER=RRUFF
##SOURCE=Joe Marty
##DESCRIPTION=Radiating clusters of bladed or prismatic grass-green crystals, associated with blue ammineite. Type sample
##STATUS=The identification of this mineral is confirmed by single-crystal X-ray diffraction and chemical analysis.
##URL=rruff.info/R230005
90.92426, 0.0000000E+00
91.40637, 52.17468
91.88849, 92.67029
92.37061, 113.3418
92.85272, 118.5731
93.33484, 117.3016
93.81696, 103.1950
94.29907, 84.34735
94.78119, 67.56006
95.26331, 44.82367
95.74542, 27.21228
96.22754, 16.43127
96.70966, 10.04083
97.19177, 4.040405
97.67389, 0.6467900
98.15601, 2.745544
98.63812, 2.729309
99.12024, 0.2144170
99.60236, 2.187988
100.0845, 2.394958
100.5666, 0.7754520
101.0487, 0.8676760
101.5308, 7.870667
102.0129, 19.14868
102.4950, 31.71082
102.9772, 45.10590
103.4593, 60.74554
103.9414, 79.84814
104.4235, 102.7925
104.9056, 127.9001
105.3877, 156.6968
105.8699, 188.4882
106.3520, 214.5553
106.8341, 236.1647
107.3162, 251.9373
107.7983, 260.7542
108.2804, 260.4796
108.7626, 256.3547
109.2447, 247.5175
109.7268, 233.4283
110.2089, 221.8065
110.6910, 215.9589
111.1731, 212.0370
111.6553, 204.1305
112.1374, 192.3270
112.6195, 178.0710
113.1016, 160.3428
113.5837, 137.8680
114.0658, 118.2654
114.5480, 104.3239
115.0301, 94.20099
115.5122, 85.48120
115.9943, 78.01862
116.4764, 70.81439
116.9585, 63.16272
117.4407, 53.70154
117.9228, 45.64294
118.4049, 41.24280
118.8870, 39.46045
119.3691, 38.03168
119.8512, 35.38141
120.3334, 32.70624
120.8155, 31.37769
121.2976, 32.77881
121.7797, 34.17902
122.2618, 33.05316
122.7439, 29.64886
123.2261, 25.75287
123.7082, 22.64093
124.1903, 19.93280
124.6724, 17.03082
125.1545, 13.36407
125.6366, 9.594666
126.1188, 6.725159
126.6009, 4.764465
127.0830, 3.160767
127.5651, 1.253540
128.0472, 0.7717290
128.5293, 2.314514
129.0115, 2.760742
129.4936, 2.528625
129.9757, 3.142212
130.4578, 4.824402
130.9399, 6.344482
131.4220, 5.692505
131.9042, 2.934082
132.3863, 0.3684690
132.8684, 0.3099370
133.3505, 0.6201170
133.8326, 0.5570070
134.3147, 4.572205
134.7969, 9.683105
135.2790, 12.52203
135.7611, 12.73163
136.2432, 12.55469
136.7253, 13.21149
137.2074, 14.83453
137.6896, 16.32031
138.1717, 17.77917
138.6538, 18.97565
139.1359, 18.86755
139.6180, 16.71503
140.1001, 14.84369
140.5823, 15.05743
141.0644, 18.55292
141.5465, 20.57434
142.0286, 19.85571
142.5107, 17.04492
142.9928, 16.81512
143.4750, 21.12653
143.9571, 25.83759
144.4392, 27.57880
144.9213, 23.25977
145.4034, 21.13635
145.8855, 22.95221
146.3677, 28.81610
146.8498, 33.97260
147.3319, 37.42889
147.8140, 40.82019
148.2961, 45.63092
148.7782, 55.88385
149.2604, 65.19733
149.7425, 72.52875
150.2246, 77.37286
150.7067, 83.15698
151.1888, 90.16132
151.6709, 98.05505
152.1531, 106.5058
152.6352, 116.4956
153.1173, 125.9550
153.5994, 134.5164
154.0815, 142.2857
154.5636, 148.8312
155.0458, 152.2495
155.5279, 154.7026
156.0100, 159.3174
156.4921, 171.4542
156.9742, 182.5024
157.4563, 188.1703
157.9385, 185.5547
158.4206, 184.0595
158.9027, 187.3866
159.3848, 193.8203
159.8669, 200.1346
160.3490, 205.2527
160.8312, 209.9529
161.3133, 214.8340
161.7954, 220.2738
162.2775, 225.2664
162.7596, 228.8586
163.2417, 231.5366
163.7238, 234.5451
164.2060, 239.1584
164.6881, 243.9176
165.1702, 247.7255
165.6523, 250.1774
166.1344, 251.8743
166.6165, 252.9481
167.0987, 253.4996
167.5808, 253.8858
168.0629, 254.5057
168.5450, 254.9981
169.0271, 255.1273
169.5092, 255.6031
169.9914, 254.7663
170.4735, 250.2785
170.9556, 242.7831
171.4377, 235.5634
171.9198, 230.5411
172.4019, 227.2170
172.8841, 225.1282
173.3662, 225.7345
173.8483, 225.9243
174.3304, 221.7948
174.8125, 213.6023
175.2946, 204.6544
175.7768, 196.9152
176.2589, 190.1772
176.7410, 184.2590
177.2231, 179.2263
177.7052, 174.7332
178.1873, 170.1625
178.6695, 165.5128
179.1516, 161.5420
179.6337, 159.3433
180.1158, 158.4437
180.5979, 157.5695
181.0800, 156.3951
181.5622, 154.9023
182.0443, 152.5156
182.5264, 149.0947
183.0085, 146.4883
183.4906, 147.5936
183.9727, 151.5596
184.4549, 154.4299
184.9370, 154.5553
185.4191, 152.4315
185.9012, 149.1450
186.3833, 144.5588
186.8654, 139.6655
187.3476, 136.3644
187.8297, 134.2979
188.3118, 130.5569
188.7939, 122.8792
189.2760, 112.4440
189.7581, 104.6223
190.2403, 99.74756
190.7224, 95.62811
191.2045, 89.04108
191.6866, 80.11078
192.1687, 71.56427
192.6508, 64.83716
193.1330, 59.71191
193.6151, 54.08258
194.0972, 47.66589
194.5793, 41.42603
195.0614, 37.06555
195.5435, 34.70337
196.0257, 32.38782
196.5078, 29.06458
196.9899, 24.71954
197.4720, 21.22803
197.9541, 18.65991
198.4362, 16.78271
198.9184, 15.65015
199.4005, 15.54578
199.8826, 14.42352
200.3647, 10.47974
200.8468, 3.343018
201.3289, 0.7188720
201.8111, 0.9703370
202.2932, 0.9017940
202.7753, 2.158142
203.2574, 2.822571
203.7395, 2.844116
204.2216, 1.944458
204.7038, 9.8266996E-02
205.1859, 1.666626
205.6680, 2.989807
206.1501, 3.578552
206.6322, 1.884583
207.1143, 3.012024
207.5965, 7.103577
208.0786, 8.005554
208.5607, 4.682190
209.0428, 3.475037
209.5249, 5.067566
210.0070, 8.270020
210.4892, 10.64600
210.9713, 12.04968
211.4534, 12.94885
211.9355, 13.38208
212.4176, 13.05066
212.8997, 13.57983
213.3819, 15.23627
213.8640, 17.61353
214.3461, 20.03644
214.8282, 22.79352
215.3103, 25.02344
215.7924, 26.20508
216.2746, 25.92206
216.7567, 26.17224
217.2388, 26.71753
217.7209, 27.66528
218.2030, 29.84265
218.6851, 34.01013
219.1673, 37.94562
219.6494, 40.44153
220.1315, 40.68927
220.6136, 41.86829
221.0957, 44.23206
221.5778, 47.41937
222.0600, 50.47101
222.5421, 53.33136
223.0242, 56.22589
223.5063, 59.23199
223.9884, 62.21851
224.4705, 65.89832
224.9527, 70.44666
225.4348, 75.45667
225.9169, 79.97064
226.3990, 83.88452
226.8811, 87.85687
227.3632, 91.95526
227.8454, 96.00519
228.3275, 100.2886
228.8096, 104.5049
229.2917, 109.3383
229.7738, 116.0675
230.2559, 125.5481
230.7381, 135.1677
231.2202, 143.7542
231.7023, 150.5948
232.1844, 158.2747
232.6665, 166.3252
233.1486, 175.3264
233.6308, 186.8657
234.1129, 202.2595
234.5950, 218.1597
235.0771, 233.4534
235.5592, 248.2927
236.0413, 262.2778
236.5235, 275.3489
237.0056, 287.6161
237.4877, 299.5979
237.9698, 311.6799
238.4519, 322.6310
238.9340, 332.0874
239.4162, 340.1781
239.8983, 346.6508
240.3804, 352.4655
240.8625, 356.2043
241.3446, 355.1674
241.8267, 347.8424
242.3089, 338.0900
242.7910, 326.7730
243.2731, 313.4748
243.7552, 299.9895
244.2373, 285.6264
244.7194, 271.4917
245.2016, 259.6161
245.6837, 251.3439
246.1658, 243.0121
246.6479, 233.3386
247.1300, 221.8159
247.6121, 211.1187
248.0943, 201.5374
248.5764, 192.6041
249.0585, 183.6348
249.5406, 174.4982
250.0227, 165.5190
250.5048, 156.8017
250.9870, 148.3033
251.4691, 140.2475
251.9512, 133.0671
252.4333, 125.9560
252.9154, 117.4204
253.3975, 105.9851
253.8797, 96.12482
254.3618, 89.71222
254.8439, 87.05798
255.3260, 82.81158
255.8081, 76.09613
256.2902, 68.71185
256.7723, 62.60699
257.2545, 58.06110
257.7366, 54.12750
258.2187, 50.68213
258.7008, 47.72980
259.1829, 44.81897
259.6650, 42.02136
260.1472, 39.24896
260.6293, 36.27118
261.1114, 32.93976
261.5935, 29.91028
262.0756, 27.38873
262.5577, 25.35083
263.0399, 23.33337
263.5220, 21.26178
264.0041, 19.31335
264.4862, 17.59900
264.9683, 16.02838
265.4504, 15.11334
265.9326, 15.44275
266.4147, 16.58887
266.8968, 15.30255
267.3789, 10.36969
267.8610, 5.622559
268.3431, 4.725037
268.8253, 8.795715
269.3074, 11.47021
269.7895, 11.49615
270.2716, 9.483765
270.7537, 7.945313
271.2358, 7.092712
271.7180, 6.194580
272.2001, 4.592346
272.6822, 2.123047
273.1643, 4.9377002E-02
273.6464, 2.033569
274.1285, 3.476990
274.6107, 2.922302
275.0928, 0.1345210
275.5749, 3.128601
276.0570, 4.407715
276.5391, 3.868713
277.0212, 3.102173
277.5034, 2.089294
277.9855, 1.065491
278.4676, 0.6768800
278.9497, 1.002014
279.4318, 1.329285
279.9139, 1.326172
280.3961, 0.9879150
280.8782, 0.1892090
281.3603, 1.309509
281.8424, 2.824524
282.3245, 2.840149
282.8066, 1.276550
283.2888, 8.7279998E-02
283.7709, 0.7265630
284.2530, 2.883301
284.7351, 3.412109
285.2172, 1.914978
285.6993, 0.1154790
286.1815, 0.1617430
286.6636, 1.646362
287.1457, 2.619385
287.6278, 0.7105100
288.1099, 3.086060
288.5920, 4.312378
289.0742, 2.693237
289.5563, 0.3023070
290.0384, 0.5387570
290.5205, 1.7639000E-02
291.0026, 0.6019900
291.4847, 1.079529
291.9669, 1.292664
292.4490, 0.6757810
292.9311, 0.8073120
293.4132, 2.235168
293.8953, 2.774414
294.3774, 2.551025
294.8596, 1.992676
295.3417, 1.137878
295.8238, 8.3801001E-02
296.3059, 1.179504
296.7880, 2.618713
297.2701, 3.680664
297.7523, 3.816528
298.2344, 3.278625
298.7165, 2.533081
299.1986, 1.440186
299.6807, 0.5806270
300.1628, 1.060364
300.6450, 2.614685
301.1271, 3.840576
301.6092, 3.546143
302.0913, 2.398315
302.5734, 1.343323
303.0555, 0.4972530
303.5377, 4.3701001E-02
304.0198, 0.4010620
304.5019, 1.340332
304.9840, 2.225830
305.4661, 2.245422
305.9482, 2.258545
306.4304, 3.418579
306.9125, 6.049927
307.3946, 8.572754
307.8767, 9.607971
308.3588, 9.695618
308.8409, 9.796082
309.3231, 9.871887
309.8052, 10.41711
310.2873, 12.21704
310.7694, 15.40674
311.2515, 17.98901
311.7336, 18.03638
312.2158, 17.07593
312.6979, 17.00684
313.1800, 19.80029
313.6621, 22.59503
314.1442, 23.55286
314.6263, 22.80017
315.1085, 22.52148
315.5906, 24.60736
316.0727, 27.10834
316.5548, 28.42529
317.0369, 26.38379
317.5190, 24.89166
318.0012, 25.52673
318.4833, 27.87799
318.9654, 30.19299
319.4475, 32.47400
319.9296, 34.23566
320.4117, 35.12268
320.8939, 34.59369
321.3760, 33.99615
321.8581, 33.11664
322.3402, 32.21368
322.8223, 32.13983
323.3044, 33.95020
323.7866, 35.96399
324.2687, 37.54877
324.7508, 38.47522
325.2329, 39.45599
325.7150, 41.36047
326.1971, 43.12720
326.6793, 43.18964
327.1614, 39.43134
327.6435, 36.27985
328.1256, 35.11005
328.6077, 36.53534
329.0898, 36.61652
329.5720, 34.45160
330.0541, 31.26385
330.5362, 28.49774
331.0183, 26.27216
331.5004, 24.37927
331.9825, 22.81158
332.4647, 21.65906
332.9468, 21.16357
333.4289, 21.62140
333.9110, 22.02063
334.3931, 21.44275
334.8752, 19.22791
335.3573, 18.07910
335.8394, 18.75452
336.3216, 20.48181
336.8037, 20.59991
337.2858, 18.50446
337.7679, 16.44757
338.2500, 15.98303
338.7321, 17.48511
339.2143, 17.23157
339.6964, 14.42468
340.1785, 10.80371
340.6606, 10.21069
341.1427, 13.04022
341.6248, 14.92871
342.1070, 13.27753
342.5891, 8.564880
343.0712, 6.205688
343.5533, 6.523499
344.0354, 8.168823
344.5175, 10.40869
344.9997, 12.98627
345.4818, 13.48254
345.9639, 9.694946
346.4460, 3.991638
346.9281, 3.208496
347.4102, 7.214355
347.8924, 11.51831
348.3745, 12.31030
348.8566, 10.54034
349.3387, 8.558960
349.8208, 6.618103
350.3029, 5.128723
350.7851, 4.933472
351.2672, 5.614929
351.7493, 6.040527
352.2314, 5.213196
352.7135, 3.879639
353.1956, 3.021729
353.6778, 2.823486
354.1599, 2.899658
354.6420, 3.019531
355.1241, 3.138123
355.6062, 3.166260
356.0883, 3.006287
356.5705, 2.775391
357.0526, 2.536499
357.5347, 2.275391
358.0168, 2.065491
358.4989, 1.433411
358.9810, 1.041870
359.4632, 1.586670
359.9453, 5.127930
360.4274, 7.883545
360.9095, 7.521606
361.3916, 4.692078
361.8737, 3.111389
362.3559, 5.078796
362.8380, 7.490356
363.3201, 8.472839
363.8022, 6.484619
364.2843, 5.124573
364.7664, 5.794556
365.2486, 7.652893
365.7307, 8.602356
366.2128, 6.419250
366.6949, 4.568909
367.1770, 4.559937
367.6591, 7.395630
368.1413, 9.292297
368.6234, 9.514221
369.1055, 9.112061
369.5876, 9.340820
370.0697, 11.35052
370.5518, 12.05292
371.0340, 10.22607
371.5161, 6.094055
371.9982, 4.185669
372.4803, 5.361572
372.9624, 7.351196
373.4445, 8.582764
373.9267, 8.807373
374.4088, 9.391846
374.8909, 10.89954
375.3730, 12.57385
375.8551, 12.01788
376.3372, 8.770081
376.8194, 5.602417
377.3015, 3.948547
377.7836, 3.722961
378.2657, 3.045227
378.7478, 1.742554
379.2299, 0.8916020
379.7121, 2.463806
380.1942, 6.166931
380.6763, 8.857605
381.1584, 9.004761
381.6405, 7.425537
382.1227, 5.964050
382.6048, 4.600220
383.0869, 3.851929
383.5690, 4.787659
384.0511, 6.664612
384.5332, 7.637695
385.0154, 7.188599
385.4975, 5.870850
385.9796, 3.369751
386.4617, 0.2809450
386.9438, 1.221313
387.4259, 1.587952
387.9081, 5.904053
388.3902, 8.641113
388.8723, 9.265259
389.3544, 9.395325
389.8365, 10.02618
390.3186, 10.91754
390.8008, 11.57898
391.2829, 12.22662
391.7650, 12.29865
392.2471, 11.04504
392.7292, 8.576843
393.2113, 6.704224
393.6935, 6.700317
394.1756, 7.195496
394.6577, 7.195007
395.1398, 6.247375
395.6219, 5.182739
396.1040, 3.595825
396.5862, 1.959839
397.0683, 1.569885
397.5504, 4.966858
398.0325, 7.470703
398.5146, 7.019592
398.9967, 2.008606
399.4789, 0.8041380
399.9610, 0.1638180
400.4431, 1.851868
400.9252, 2.742310
401.4073, 1.536255
401.8894, 1.122742
402.3716, 2.472046
402.8537, 5.288635
403.3358, 6.716553
403.8179, 6.376160
404.3000, 5.503845
404.7821, 4.943176
405.2643, 4.758850
405.7464, 4.723694
406.2285, 4.949341
406.7106, 5.103271
407.1927, 4.039795
407.6748, 1.703552
408.1570, 0.5233150
408.6391, 2.765442
409.1212, 7.335449
409.6033, 9.320862
410.0854, 8.509583
410.5675, 6.861633
411.0497, 6.049805
411.5318, 5.985474
412.0139, 6.528259
412.4960, 8.178406
412.9781, 9.790588
413.4602, 9.317505
413.9424, 7.225464
414.4245, 5.745850
414.9066, 7.532104
415.3887, 10.05005
415.8708, 10.24133
416.3529, 7.028748
416.8351, 3.946228
417.3172, 4.056824
417.7993, 5.593201
418.2814, 5.748413
418.7635, 1.372070
419.2456, 2.700684
419.7278, 4.037964
420.2099, 2.622986
420.6920, 1.026184
421.1741, 1.045593
421.6562, 2.460632
422.1383, 2.486694
422.6205, 1.394104
423.1026, 3.669312
423.5847, 2.849731
424.0668, 0.2040410
424.5489, 1.142700
425.0310, 0.3035280
425.5132, 0.6951290
425.9953, 1.288025
426.4774, 1.476257
426.9595, 1.225830
427.4416, 0.2154540
427.9237, 0.8170780
428.4059, 0.9619750
428.8880, 0.1148070
429.3701, 0.7557980
429.8522, 0.5477910
430.3343, 0.2906490
430.8164, 0.9157710
431.2986, 1.336243
431.7807, 1.430542
432.2628, 1.090759
432.7449, 0.3415530
433.2270, 0.8710940
433.7091, 2.726379
434.1912, 4.277588
434.6733, 3.781128
435.1555, 1.814331
435.6376, 0.4320070
436.1197, 1.213806
436.6018, 2.570251
437.0839, 1.833618
437.5660, 0.8428340
438.0482, 3.131348
438.5303, 2.938049
439.0124, 1.652527
439.4945, 0.7764890
439.9766, 0.6529540
440.4587, 0.8900760
440.9409, 1.452271
441.4230, 2.231323
441.9051, 3.001343
442.3872, 3.623718
442.8693, 4.215393
443.3514, 4.981628
443.8336, 5.925659
444.3157, 6.153809
444.7978, 5.021057
445.2799, 3.691650
445.7620, 2.755005
446.2441, 2.647705
446.7263, 2.167053
447.2084, 0.4422000
447.6905, 1.586670
448.1726, 1.103821
448.6547, 3.945496
449.1368, 7.915649
449.6190, 8.062927
450.1011, 3.782959
450.5832, 3.185669
451.0653, 7.695129
451.5474, 12.88464
452.0295, 13.63123
452.5117, 9.614624
452.9938, 6.813110
453.4759, 6.482483
453.9580, 7.890320
454.4401, 9.836670
454.9222, 12.31665
455.4044, 14.34741
455.8865, 14.26483
456.3686, 13.33118
456.8507, 14.99084
457.3328, 19.63977
457.8149, 24.21228
458.2971, 25.57751
458.7792, 24.77319
459.2613, 23.59290
459.7434, 22.09222
460.2255, 21.16461
460.7076, 21.41107
461.1898, 22.70288
461.6719, 24.74982
462.1540, 28.58203
462.6361, 32.24878
463.1182, 34.32568
463.6003, 34.17279
464.0825, 34.18109
464.5646, 36.43573
465.0467, 38.56818
465.5288, 37.87891
466.0109, 29.72186
466.4930, 23.88977
466.9752, 22.85779
467.4573, 25.66461
467.9394, 26.04529
468.4215, 22.35974
468.9036, 18.54205
469.3857, 16.58990
469.8679, 16.96997
470.3500, 17.38489
470.8321, 17.98083
471.3142, 18.34705
471.7963, 17.83411
472.2784, 16.39807
472.7606, 14.66730
473.2427, 12.73718
473.7248, 10.66254
474.2069, 8.323914
474.6890, 5.750305
475.1711, 3.961365
475.6533, 4.060608
476.1354, 5.397583
476.6175, 6.593262
477.0996, 7.240601
477.5817, 8.009827
478.0638, 10.15839
478.5460, 12.87787
479.0281, 14.77911
479.5102, 14.01044
479.9923, 13.17059
480.4744, 14.19971
480.9565, 16.61182
481.4387, 18.24811
481.9208, 17.14893
482.4029, 15.82074
482.8850, 15.76740
483.3671, 17.77051
483.8492, 19.40033
484.3314, 20.53619
484.8135, 21.12512
485.2956, 21.05688
485.7777, 19.23157
486.2598, 18.39868
486.7419, 19.44000
487.2241, 21.90234
487.7062, 23.22272
488.1883, 23.02856
488.6704, 22.65436
489.1525, 22.56836
489.6346, 22.70795
490.1168, 24.43671
490.5989, 28.09229
491.0810, 32.36774
491.5631, 35.73639
492.0452, 38.30481
492.5273, 40.91174
493.0095, 43.95215
493.4916, 47.08704
493.9737, 49.40204
494.4558, 51.05865
494.9379, 53.32123
495.4200, 57.44238
495.9022, 62.22943
496.3843, 66.30743
496.8664, 69.53052
497.3485, 72.71710
497.8306, 75.22290
498.3127, 78.47656
498.7949, 83.96649
499.2770, 93.91418
499.7591, 104.3318
500.2412, 114.6093
500.7233, 124.6769
501.2054, 133.8727
501.6876, 139.8877
502.1697, 146.9929
502.6518, 156.4814
503.1339, 168.5255
503.6160, 181.6508
504.0981, 195.5211
504.5803, 210.7548
505.0624, 228.0408
505.5445, 247.2084
506.0266, 268.0198
506.5087, 290.5046
506.9908, 314.3116
507.4730, 337.9609
507.9551, 361.4224
508.4372, 387.8207
508.9193, 419.4196
509.4014, 455.3438
509.8835, 492.9761
510.3657, 532.4692
510.8478, 573.2841
511.3299, 615.5229
511.8120, 658.6610
512.2941, 702.6039
512.7762, 749.0601
513.2584, 792.0934
513.7405, 831.6227
514.2226, 864.7208
514.7047, 886.3038
515.1868, 894.6815
515.6689, 890.9464
516.1511, 874.1575
516.6332, 844.5087
517.1153, 807.1619
517.5974, 758.2644
518.0795, 705.0023
518.5616, 650.9114
519.0438, 593.2449
519.5259, 540.5496
520.0080, 493.7437
520.4901, 451.1465
520.9722, 409.9221
521.4543, 370.0826
521.9365, 334.7849
522.4186, 305.3470
522.9007, 280.6210
523.3828, 257.7941
523.8649, 236.7963
524.3470, 216.9080
524.8292, 197.5912
525.3113, 179.2151
525.7934, 161.3459
526.2755, 143.8078
526.7576, 128.4270
527.2397, 117.5025
527.7219, 109.4260
528.2040, 101.7225
528.6861, 93.14014
529.1682, 85.49194
529.6503, 79.93848
530.1324, 76.05243
530.6146, 72.79065
531.0967, 70.96271
531.5788, 68.62628
532.0609, 64.30768
532.5430, 57.75580
533.0251, 53.15002
533.5073, 51.31714
533.9894, 51.07739
534.4715, 52.05029
534.9536, 55.40173
535.4357, 57.10522
535.9178, 56.41339
536.4000, 54.78064
536.8821, 54.44189
537.3642, 55.48322
537.8463, 56.97205
538.3284, 58.66022
538.8105, 60.58319
539.2927, 63.02448
539.7748, 65.94556
540.2569, 68.82703
540.7390, 71.81293
541.2211, 74.39282
541.7032, 75.48456
542.1854, 74.96588
542.6675, 73.91382
543.1496, 72.72815
543.6317, 71.65350
544.1138, 71.10327
544.5959, 72.29437
545.0781, 72.38263
545.5602, 69.82355
546.0423, 65.37036
546.5244, 60.63080
547.0065, 55.74097
547.4886, 50.80865
547.9708, 45.80701
548.4529, 40.72485
548.9350, 35.84668
549.4171, 31.03632
549.8992, 26.60071
550.3813, 22.72003
550.8635, 19.35962
551.3456, 16.99469
551.8277, 16.05792
552.3098, 15.14679
552.7919, 11.41931
553.2740, 5.362000
553.7562, 1.830688
554.2383, 3.094543
554.7204, 6.260864
555.2025, 6.852478
555.6846, 5.289673
556.1667, 3.383179
556.6489, 1.919922
557.1310, 0.7114260
557.6131, 0.8873900
558.0952, 2.889893
558.5773, 3.201660
559.0594, 2.144958
559.5416, 7.858337
560.0237, 9.528198
560.5058, 3.418274
560.9879, 1.284668
561.4700, 2.920593
561.9521, 2.773682
562.4343, 2.543762
562.9164, 2.650574
563.3985, 1.790161
563.8806, 0.8313600
564.3627, 4.589600
564.8448, 6.677979
565.3270, 6.820679
565.8091, 6.331482
566.2912, 5.657104
566.7733, 4.895447
567.2554, 4.545959
567.7375, 4.635010
568.2197, 5.142029
568.7018, 5.665405
569.1839, 6.767334
569.6660, 9.885498
570.1481, 15.84918
570.6302, 21.42987
571.1124, 24.84784
571.5945, 26.64484
572.0766, 27.12854
572.5587, 24.50867
573.0408, 22.70880
573.5229, 23.70477
574.0051, 27.15125
574.4872, 29.71399
574.9693, 30.62579
575.4514, 31.15228
575.9335, 31.60522
576.4156, 31.85583
576.8978, 32.92908
577.3799, 35.25208
577.8620, 37.34338
578.3441, 37.65900
578.8262, 36.18652
579.3083, 35.15491
579.7905, 34.95062
580.2726, 35.03125
580.7547, 34.58441
581.2368, 33.73413
581.7189, 32.97162
582.2010, 32.74310
582.6831, 32.32135
583.1652, 30.98462
583.6473, 28.93921
584.1295, 26.68176
584.6116, 23.89697
585.0937, 21.40100
585.5758, 19.78821
586.0579, 19.19452
586.5400, 18.74707
587.0222, 18.38849
587.5043, 18.02496
587.9864, 17.57098
588.4685, 16.84241
588.9506, 16.43512
589.4327, 16.66217
589.9149, 16.94080
590.3970, 16.38751
590.8791, 14.77411
591.3612, 12.70752
591.8433, 10.05994
592.3254, 7.661072
592.8076, 7.856079
593.2897, 10.33142
593.7718, 12.54865
594.2539, 12.43347
594.7360, 11.35004
595.2181, 11.60162
595.7003, 13.25446
596.1824, 14.43158
596.6645, 13.00470
597.1466, 11.06506
597.6287, 10.56232
598.1108, 12.66071
598.5930, 14.34424
599.0751, 14.95386
599.5572, 14.60626
600.0393, 13.49292
600.5214, 10.89124
601.0035, 8.683960
601.4857, 6.714294
601.9678, 5.418274
602.4499, 6.675720
602.9320, 11.18964
603.4141, 14.18231
603.8962, 12.92792
604.3784, 8.911377
604.8605, 7.275513
605.3426, 7.941711
605.8247, 9.336365
606.3068, 10.98511
606.7889, 12.41119
607.2711, 12.76245
607.7532, 11.89856
608.2353, 10.69977
608.7174, 9.099060
609.1995, 7.726135
609.6816, 7.278687
610.1638, 8.837036
610.6459, 9.915161
611.1280, 9.357117
611.6101, 8.222107
612.0922, 8.353394
612.5743, 11.09723
613.0565, 12.65497
613.5386, 12.00134
614.0207, 9.669739
614.5028, 7.884888
614.9849, 6.748169
615.4670, 5.445679
615.9492, 2.782349
616.4313, 0.3917850
616.9134, 0.6016240
617.3955, 2.054932
617.8776, 4.929260
618.3597, 6.068115
618.8419, 6.085938
619.3240, 5.739014
619.8061, 5.164856
620.2882, 4.336060
620.7703, 3.179565
621.2524, 1.798523
621.7346, 0.2863160
622.2167, 2.376343
622.6988, 3.908630
623.1809, 3.578430
623.6630, 2.140503
624.1451, 0.9410400
624.6273, 3.7354000E-02
625.1094, 0.7902220
625.5915, 1.566284
626.0736, 2.049438
626.5557, 8.7952003E-02
627.0378, 5.017578
627.5200, 7.989746
628.0021, 3.784851
628.4842, 3.879028
628.9663, 5.860535
629.4484, 2.135376
629.9305, 1.757996
630.4127, 1.273071
630.8948, 0.9458620
631.3769, 2.282288
631.8590, 2.118591
632.3411, 1.601807
632.8232, 0.7489620
633.3054, 6.2194999E-02
633.7875, 0.4376830
634.2696, 0.6539310
634.7517, 0.1306150
635.2338, 2.751831
635.7159, 5.982544
636.1981, 7.071350
636.6802, 5.552185
637.1623, 4.150330
637.6444, 3.852478
638.1265, 4.081970
638.6086, 2.738647
639.0908, 4.0894002E-02
639.5729, 1.789795
640.0550, 0.7973630
640.5371, 1.487610
641.0192, 3.052917
641.5013, 3.874756
641.9835, 4.966064
642.4656, 8.292542
642.9477, 11.17316
643.4298, 11.30878
643.9119, 7.237976
644.3940, 4.223999
644.8762, 3.655884
645.3583, 4.084351
645.8404, 4.565186
646.3225, 5.636963
646.8046, 5.128174
647.2867, 2.185730
647.7689, 1.354126
648.2510, 1.949402
648.7331, 0.2728270
649.2152, 1.744263
649.6973, 1.171814
650.1794, 0.3560790
650.6616, 1.512329
651.1437, 2.226807
651.6258, 2.262207
652.1079, 0.5740970
652.5900, 1.085327
653.0721, 1.134521
653.5543, 0.2260130
654.0364, 1.063110
654.5185, 0.3223880
655.0006, 0.6347660
655.4827, 0.8232420
655.9648, 0.2459720
656.4470, 1.168091
656.9291, 6.779663
657.4112, 12.12408
657.8933, 13.28796
658.3754, 10.11444
658.8575, 7.421387
659.3397, 5.370056
659.8218, 4.391296
660.3039, 5.767517
660.7860, 8.640137
661.2681, 10.71771
661.7502, 11.44043
662.2324, 11.26172
662.7145, 9.991394
663.1966, 8.192017
663.6787, 6.801941
664.1608, 5.491455
664.6429, 5.351990
665.1251, 7.895142
665.6072, 12.06354
666.0893, 13.90277
666.5714, 12.07733
667.0535, 10.16479
667.5356, 9.095337
668.0178, 8.847900
668.4999, 9.543579
668.9820, 11.29114
669.4641, 13.04785
669.9462, 14.30347
670.4283, 15.06342
670.9105, 15.62726
671.3926, 15.98456
671.8747, 15.19171
672.3568, 10.19403
672.8389, 4.983215
673.3210, 4.222656
673.8032, 9.973022
674.2853, 14.68951
674.7674, 15.61047
675.2495, 14.85541
675.7316, 14.15253
676.2137, 13.11566
676.6959, 12.96228
677.1780, 13.88763
677.6601, 15.51245
678.1422, 17.72571
678.6243, 20.64746
679.1064, 21.76068
679.5886, 20.01337
680.0707, 16.79028
680.5528, 14.55261
681.0349, 13.23267
681.5170, 12.38751
681.9991, 12.15057
682.4813, 11.96606
682.9634, 11.01532
683.4455, 9.661926
683.9276, 9.246887
684.4097, 11.19623
684.8918, 12.85156
685.3740, 13.19702
685.8561, 12.72736
686.3382, 13.26886
686.8203, 15.05945
687.3024, 16.51910
687.7845, 16.43640
688.2667, 15.04004
688.7488, 13.80334
689.2309, 12.53625
689.7130, 12.24786
690.1951, 15.59985
690.6772, 20.11719
691.1594, 20.17651
691.6415, 14.38104
692.1236, 9.608215
692.6057, 12.98578
693.0878, 18.72833
693.5699, 20.81464
694.0521, 14.91840
694.5342, 10.60681
695.0163, 9.544556
695.4984, 10.42358
695.9805, 12.14514
696.4626, 15.51837
696.9448, 16.83124
697.4269, 15.00702
697.9090, 11.76758
698.3911, 10.00732
698.8732, 9.546387
699.3553, 9.577026
699.8375, 9.827515
700.3196, 10.41370
700.8017, 12.10199
701.2838, 14.31293
701.7659, 15.41376
702.2480, 13.53583
702.7302, 11.44501
703.2123, 10.67065
703.6944, 11.05408
704.1765, 10.72522
704.6586, 8.106079
705.1407, 6.752869
705.6229, 8.413025
706.1050, 12.99115
706.5871, 15.17963
707.0692, 14.60767
707.5513, 13.02478
708.0334, 10.97736
708.5156, 8.872986
708.9977, 8.370911
709.4798, 9.542480
709.9619, 10.47839
710.4440, 8.837646
710.9261, 6.581421
711.4083, 5.786194
711.8904, 7.178589
712.3725, 8.483521
712.8546, 9.166260
713.3367, 9.419861
713.8188, 9.400391
714.3010, 9.350830
714.7831, 8.731506
715.2652, 7.031006
715.7473, 5.413208
716.2294, 5.631409
716.7115, 7.508301
717.1937, 8.599487
717.6758, 8.213379
718.1579, 7.657288
718.6400, 8.878479
719.1221, 11.03400
719.6042, 12.55096
720.0864, 12.22693
720.5685, 12.02124
721.0506, 13.88715
721.5327, 16.33948
722.0148, 16.50055
722.4969, 11.10974
722.9791, 7.339966
723.4612, 6.797546
723.9433, 8.406250
724.4254, 9.218933
724.9075, 9.239380
725.3896, 8.513794
725.8718, 6.634888
726.3539, 4.363892
726.8360, 3.351929
727.3181, 3.441772
727.8002, 3.912537
728.2823, 3.927612
728.7645, 4.568604
729.2466, 7.396118
729.7287, 11.84369
730.2108, 14.65448
730.6929, 12.78534
731.1750, 11.20148
731.6572, 12.48230
732.1393, 16.63708
732.6214, 17.29449
733.1035, 13.23785
733.5856, 9.263916
734.0677, 9.007080
734.5499, 11.62628
735.0320, 12.01172
735.5141, 10.13922
735.9962, 8.127075
736.4783, 8.169800
736.9604, 8.707092
737.4426, 7.397156
737.9247, 3.616455
738.4068, 1.517517
738.8889, 4.796448
739.3710, 8.855347
739.8531, 10.02521
740.3353, 6.395935
740.8174, 5.497620
741.2995, 8.487915
741.7816, 12.22913
742.2637, 13.43182
742.7458, 12.24951
743.2280, 11.94232
743.7101, 13.01550
744.1922, 14.01019
744.6743, 12.79919
745.1564, 10.57788
745.6385, 9.466553
746.1207, 10.43921
746.6028, 11.36304
747.0849, 11.00336
747.5670, 10.14911
748.0491, 9.760742
748.5313, 10.28442
749.0134, 10.78204
749.4955, 11.45312
749.9776, 11.85876
750.4597, 10.95703
750.9418, 8.681458
751.4240, 7.620300
751.9061, 8.703186
752.3882, 10.31171
752.8703, 10.15607
753.3524, 8.720642
753.8345, 7.171204
754.3167, 5.215881
754.7988, 3.969055
755.2809, 4.888000
755.7630, 6.803101
756.2451, 7.311462
756.7272, 4.183533
757.2094, 2.114502
757.6915, 1.784851
758.1736, 2.905457
758.6557, 5.140625
759.1378, 8.657959
759.6199, 11.40271
760.1021, 12.59332
760.5842, 12.69086
761.0663, 12.33820
761.5484, 11.56915
762.0305, 10.48706
762.5126, 8.044006
762.9948, 6.350952
763.4769, 8.098389
763.9590, 11.97815
764.4411, 12.78558
764.9232, 5.338745
765.4053, 0.1887820
765.8875, 0.6786500
766.3696, 5.483948
766.8517, 7.461670
767.3338, 6.280151
767.8159, 5.317139
768.2980, 6.995117
768.7802, 9.658569
769.2623, 8.918396
769.7444, 5.383423
770.2265, 2.512512
770.7086, 2.408630
771.1907, 3.356689
771.6729, 4.451477
772.1550, 5.625061
772.6371, 6.832397
773.1192, 8.429260
773.6013, 9.596252
774.0834, 10.11688
774.5656, 9.982666
775.0477, 8.879333
775.5298, 6.697998
776.0119, 4.612732
776.4940, 3.456848
776.9761, 2.877014
777.4583, 2.037170
777.9404, 1.151062
778.4225, 0.6018680
778.9046, 0.6841430
779.3867, 1.100403
779.8688, 1.768433
780.3509, 2.706116
780.8330, 2.947571
781.3151, 1.991272
781.7972, 0.9630130
782.2794, 0.1576540
782.7615, 0.3974000
783.2436, 0.7326050
783.7257, 3.782104
784.2078, 6.079529
784.6899, 5.148315
785.1721, 2.417786
785.6542, 0.3051150
786.1363, 2.802551
786.6184, 3.386475
787.1005, 1.813171
787.5826, 6.964050
788.0648, 7.325562
788.5469, 1.491394
789.0290, 0.5205080
789.5111, 3.951233
789.9932, 8.302917
790.4753, 8.191711
790.9575, 3.797485
791.4396, 2.710144
791.9217, 5.073242
792.4038, 7.494751
792.8859, 6.721985
793.3680, 4.688110
793.8502, 4.311035
794.3323, 5.772461
794.8144, 6.940308
795.2965, 7.077515
795.7786, 6.394775
796.2607, 4.436951
796.7429, 0.7842410
797.2250, 0.1240840
797.7071, 3.022461
798.1892, 6.231506
798.6713, 6.480774
799.1534, 4.233826
799.6356, 3.958496
800.1177, 5.694885
800.5998, 7.322021
801.0819, 7.185608
801.5640, 6.092407
802.0461, 4.655579
802.5283, 2.912476
803.0104, 1.687378
803.4925, 1.267212
803.9746, 1.447449
804.4567, 2.264954
804.9388, 3.843140
805.4210, 4.614380
805.9031, 4.352722
806.3852, 4.058838
806.8673, 4.801758
807.3494, 6.080566
807.8315, 5.700684
808.3137, 3.733032
808.7958, 2.539001
809.2779, 5.588623
809.7600, 8.658813
810.2421, 7.375549
810.7242, 1.233643
811.2064, 1.844543
811.6885, 1.770203
812.1706, 5.446960
812.6527, 6.188782
813.1348, 4.110657
813.6169, 3.078247
814.0991, 3.132751
814.5812, 3.724243
815.0633, 4.962036
815.5454, 6.260681
816.0275, 6.293518
816.5096, 5.149292
816.9918, 4.179382
817.4739, 4.327209
817.9560, 4.679565
818.4381, 4.671509
818.9202, 4.280029
819.4023, 3.921448
819.8845, 3.241638
820.3666, 3.409729
820.8487, 5.720886
821.3308, 9.481018
821.8129, 10.08185
822.2950, 7.623535
822.7772, 4.728027
823.2593, 2.602417
823.7414, 1.202820
824.2235, 0.9058230
824.7056, 1.493591
825.1877, 1.477600
825.6699, 1.183228
826.1520, 3.054321
826.6341, 2.532227
827.1162, 4.3761998E-02
827.5983, 1.871155
828.0804, 2.804688
828.5626, 3.804443
829.0447, 5.536499
829.5268, 7.544495
830.0089, 8.910461
830.4910, 9.623352
830.9731, 9.637817
831.4553, 8.255859
831.9374, 6.791809
832.4195, 5.893738
832.9016, 5.559753
833.3837, 5.876526
833.8658, 8.360535
834.3480, 8.607910
834.8301, 4.030884
835.3122, 2.880859
835.7943, 2.951050
836.2764, 3.409546
836.7585, 8.762573
837.2407, 9.054749
837.7228, 7.751648
838.2049, 8.984741
838.6870, 11.80896
839.1691, 13.93695
839.6512, 12.95148
840.1334, 13.01788
840.6155, 16.57391
841.0976, 21.60699
841.5797, 23.64734
842.0618, 22.02203
842.5439, 20.47101
843.0261, 19.36737
843.5082, 19.61530
843.9903, 23.76270
844.4724, 30.56110
844.9545, 36.55450
845.4366, 40.01233
845.9188, 42.80841
846.4009, 46.62683
846.8830, 50.23096
847.3651, 51.65295
847.8472, 49.96716
848.3293, 47.46973
848.8115, 44.29047
849.2936, 40.38745
849.7757, 34.54974
850.2578, 27.35834
850.7399, 23.93610
851.2220, 25.93213
851.7042, 28.61334
852.1863, 26.11090
852.6684, 21.99255
853.1505, 20.95349
853.6326, 25.15967
854.1147, 29.78503
854.5969, 36.52667
855.0790, 41.10309
855.5611, 38.97211
856.0432, 28.69037
856.5253, 22.17267
857.0074, 20.36328
857.4896, 19.65808
857.9717, 16.48212
858.4538, 12.02319
858.9359, 8.001587
859.4180, 4.572266
859.9001, 2.439331
860.3823, 2.999207
860.8644, 4.169617
861.3465, 4.497864
861.8286, 3.833374
862.3107, 3.408813
862.7928, 3.202148
863.2750, 3.323853
863.7571, 4.248047
864.2392, 5.589661
864.7213, 5.847046
865.2034, 5.039917
865.6855, 3.350952
866.1677, 0.9675900
866.6498, 4.562256
867.1319, 3.880249
867.6140, 0.7250980
868.0961, 2.492798
868.5782, 1.819885
869.0604, 4.351440
869.5425, 1.446411
870.0246, 4.988831
870.5067, 7.092407
870.9888, 5.143494
871.4709, 3.104553
871.9531, 2.856567
872.4352, 3.482849
872.9173, 4.445862
873.3994, 5.531982
873.8815, 6.215881
874.3636, 6.638794
874.8458, 6.164734
875.3279, 4.049072
875.8100, 1.385071
876.2921, 0.3089600
876.7742, 0.8964230
877.2563, 2.225647
877.7385, 4.291443
878.2206, 6.515320
878.7027, 8.515137
879.1848, 10.02106
879.6669, 10.55005
880.1490, 9.765991
880.6312, 8.397095
881.1133, 6.075134
881.5954, 3.651245
882.0775, 1.825012
882.5596, 0.3141480
883.0417, 0.7822880
883.5239, 3.667297
884.0060, 6.935669
884.4881, 9.017700
884.9702, 10.05536
885.4523, 9.141968
885.9344, 6.030518
886.4166, 3.833191
886.8987, 6.020874
887.3808, 8.572449
887.8629, 8.072083
888.3450, 3.766235
888.8271, 2.185913
889.3093, 3.835571
889.7914, 6.887207
890.2735, 11.38910
890.7556, 16.59467
891.2377, 17.91638
891.7198, 15.91083
892.2020, 14.50330
892.6841, 17.01709
893.1662, 19.93097
893.6483, 20.30219
894.1304, 18.94452
894.6125, 19.51270
895.0947, 23.45831
895.5768, 27.23883
896.0589, 29.61493
896.5410, 31.27295
897.0231, 34.02081
897.5052, 37.73383
897.9874, 40.80786
898.4695, 42.11249
898.9516, 44.06000
899.4337, 48.62823
899.9158, 55.17865
900.3979, 62.69470
900.8801, 71.47577
901.3622, 80.53876
901.8443, 89.44189
902.3264, 99.22925
902.8085, 112.3677
903.2906, 128.4457
903.7728, 141.0669
904.2549, 149.0249
904.7370, 156.8867
905.2191, 172.3105
905.7012, 187.6272
906.1833, 195.7986
906.6655, 195.8610
907.1476, 187.0383
907.6297, 164.5984
908.1118, 139.8854
908.5939, 117.7973
909.0760, 98.47601
909.5582, 82.94269
910.0403, 71.30511
910.5224, 62.15558
911.0045, 55.05981
911.4866, 49.65100
911.9688, 46.11902
912.4509, 44.14893
912.9330, 42.31671
913.4151, 39.78442
913.8972, 37.90295
914.3793, 37.07941
914.8615, 37.06274
915.3436, 37.42090
915.8257, 38.14398
916.3078, 38.04089
916.7899, 36.27875
917.2720, 34.53149
917.7542, 35.72302
918.2363, 37.98645
918.7184, 38.28491
919.2005, 34.08502
919.6826, 30.43909
920.1647, 27.40308
920.6469, 25.76093
921.1290, 26.98364
921.6111, 31.24023
922.0932, 33.48676
922.5753, 33.21002
923.0574, 32.39832
923.5396, 33.31439
924.0217, 34.38934
924.5038, 33.47772
924.9859, 30.55731
925.4680, 27.95044
925.9501, 25.77814
926.4323, 23.87286
926.9144, 22.57501
927.3965, 21.97485
927.8786, 19.06134
928.3607, 13.64795
928.8428, 10.64740
929.3250, 15.85278
929.8071, 22.05310
930.2892, 18.88452
930.7713, 9.896851
931.2534, 4.086060
931.7355, 8.248230
932.2177, 10.60730
932.6998, 8.243469
933.1819, 3.841492
933.6640, 1.566406
934.1461, 1.387146
934.6282, 2.594849
935.1104, 5.346680
935.5925, 7.991516
936.0746, 8.100220
936.5567, 7.449951
937.0388, 8.782654
937.5209, 13.99335
938.0031, 15.73895
938.4852, 10.55249
938.9673, 4.550049
939.4494, 1.329468
939.9315, 0.8369750
940.4136, 0.1505130
940.8958, 1.552979
941.3779, 1.875061
941.8600, 1.031189
942.3421, 4.578918
942.8242, 6.589722
943.3063, 7.074524
943.7885, 6.650269
944.2706, 4.598022
944.7527, 2.758667
945.2348, 1.282349
945.7169, 0.3809810
946.1990, 1.272400
946.6812, 3.581787
947.1633, 3.640198
947.6454, 0.5933230
948.1275, 4.365540
948.6096, 1.888306
949.0917, 2.767578
949.5739, 4.530518
950.0560, 4.4555999E-02
950.5381, 2.114990
951.0202, 0.2500000
951.5023, 1.917297
951.9844, 0.6556400
952.4666, 3.129211
952.9487, 3.743713
953.4308, 1.188477
953.9129, 1.166992
954.3950, 0.2556150
954.8771, 1.672546
955.3593, 0.4374390
955.8414, 5.568359
956.3235, 7.833435
956.8056, 5.860474
957.2877, 3.854492
957.7698, 2.939575
958.2520, 2.794617
958.7341, 2.577759
959.2162, 2.514954
959.6983, 3.472107
960.1804, 6.484314
960.6625, 9.100525
961.1447, 9.659851
961.6268, 9.275146
962.1089, 9.266418
962.5910, 9.877808
963.0731, 10.23120
963.5552, 10.22668
964.0374, 10.29413
964.5195, 11.26160
965.0016, 12.45117
965.4837, 12.21796
965.9658, 10.59589
966.4479, 9.101929
966.9301, 8.169128
967.4122, 7.921387
967.8943, 8.964966
968.3764, 10.78827
968.8585, 10.60803
969.3406, 8.007141
969.8228, 7.287415
970.3049, 10.86481
970.7870, 15.04144
971.2691, 13.55542
971.7512, 9.219055
972.2333, 7.389893
972.7155, 12.83173
973.1976, 14.89258
973.6797, 8.279541
974.1618, 1.002625
974.6439, 1.189758
975.1260, 8.935913
975.6082, 11.64917
976.0903, 8.732544
976.5724, 5.304871
977.0544, 5.459290
977.5366, 7.118896
978.0187, 8.735474
978.5008, 10.15729
978.9829, 10.91119
979.4650, 10.27917
979.9471, 10.21924
980.4293, 11.73749
980.9114, 13.70178
981.3935, 12.58112
981.8756, 9.210022
982.3577, 7.640320
982.8398, 9.829834
983.3220, 12.48761
983.8041, 13.81744
984.2862, 14.15613
984.7683, 13.69617
985.2504, 11.74286
985.7325, 11.52679
986.2147, 13.73999
986.6968, 15.54340
987.1789, 13.78601
987.6610, 10.15350
988.1431, 8.779175
988.6252, 9.482117
989.1074, 10.00916
989.5895, 8.142212
990.0716, 7.122498
990.5537, 9.338013
991.0358, 13.23175
991.5179, 14.51270
992.0001, 12.99615
992.4822, 10.47461
992.9643, 6.838257
993.4464, 3.903015
993.9285, 4.905945
994.4106, 7.617981
994.8928, 8.632080
995.3749, 6.144287
995.8570, 5.285706
996.3391, 8.031067
996.8212, 10.74872
997.3033, 10.78351
997.7855, 8.520630
998.2676, 8.205139
998.7497, 9.600403
999.2318, 10.27832
999.7139, 7.308289
1000.196, 4.586609
1000.678, 5.950012
1001.160, 9.846680
1001.642, 11.29633
1002.125, 8.744202
1002.607, 7.255310
1003.089, 7.893433
1003.571, 9.080200
1004.053, 8.296631
1004.535, 6.464172
1005.017, 5.748840
1005.499, 6.484436
1005.981, 7.687378
1006.464, 10.69751
1006.946, 13.12512
1007.428, 13.07269
1007.910, 10.69049
1008.392, 10.44983
1008.874, 12.73425
1009.356, 13.94287
1009.838, 11.11597
1010.320, 7.343750
1010.803, 6.431641
1011.285, 7.888306
1011.767, 10.25378
1012.249, 15.30249
1012.731, 17.55200
1013.213, 15.88879
1013.695, 12.88000
1014.177, 11.13550
1014.660, 10.59619
1015.142, 11.29199
1015.624, 13.20300
1016.106, 14.49524
1016.588, 13.62366
1017.070, 11.97827
1017.552, 10.24512
1018.034, 8.514160
1018.516, 6.711426
1018.999, 4.367798
1019.481, 4.329224
1019.963, 8.377808
1020.445, 13.16675
1020.927, 13.04565
1021.409, 10.01074
1021.891, 7.815918
1022.373, 7.899048
1022.856, 7.661865
1023.338, 5.788452
1023.820, 4.184570
1024.302, 4.593628
1024.784, 6.901733
1025.266, 6.489868
1025.748, 3.574829
1026.230, 1.354370
1026.713, 2.746826
1027.195, 4.768066
1027.677, 4.894165
1028.159, 3.918213
1028.641, 4.429077
1029.123, 7.269409
1029.605, 9.279785
1030.087, 10.19141
1030.569, 10.19336
1031.052, 8.636230
1031.534, 6.563354
1032.016, 6.877808
1032.498, 10.23242
1032.980, 11.60071
1033.462, 5.952271
1033.944, 0.9245610
1034.426, 0.3930660
1034.908, 3.460693
1035.391, 5.150391
1035.873, 5.512329
1036.355, 5.991211
1036.837, 7.739502
1037.319, 8.799927
1037.801, 5.722534
1038.283, 1.426392
1038.765, 0.1765140
1039.248, 3.770874
1039.730, 8.302856
1040.212, 14.79712
1040.694, 19.61060
1041.176, 18.66797
1041.658, 14.20752
1042.140, 11.02502
1042.622, 9.291626
1043.104, 9.017090
1043.587, 13.38916
1044.069, 15.32373
1044.551, 10.33716
1045.033, 3.058716
1045.515, 3.489868
1045.997, 11.48328
1046.479, 15.39197
1046.961, 12.65833
1047.443, 9.161499
1047.926, 10.95972
1048.408, 13.99500
1048.890, 14.38330
1049.372, 11.39124
1049.854, 8.101440
1050.336, 3.866089
1050.818, 1.449951
1051.300, 2.911133
1051.783, 5.929199
1052.265, 5.156250
1052.747, 2.166992
1053.229, 0.8088380
1053.711, 3.053711
1054.193, 6.003296
1054.675, 10.54614
1055.157, 13.85950
1055.640, 13.46277
1056.122, 9.437256
1056.604, 6.206055
1057.086, 3.841553
1057.568, 2.510742
1058.050, 2.043823
1058.532, 2.937988
1059.014, 7.287842
1059.496, 13.25989
1059.979, 14.86780
1060.461, 10.00452
1060.943, 7.486816
1061.425, 8.973145
1061.907, 11.95020
1062.389, 14.17590
1062.871, 15.34924
1063.353, 14.47620
1063.835, 11.33435
1064.318, 9.278687
1064.800, 9.575317
1065.282, 9.603271
1065.764, 8.265869
1066.246, 6.697021
1066.728, 9.566162
1067.210, 15.58862
1067.692, 17.94373
1068.175, 12.72375
1068.657, 7.363647
1069.139, 5.980957
1069.621, 6.728760
1070.103, 8.212646
1070.585, 10.71301
1071.067, 11.66064
1071.549, 11.00415
1072.031, 9.551025
1072.514, 6.424194
1072.996, 3.845703
1073.478, 5.782104
1073.960, 10.23999
1074.442, 12.13440
1074.924, 8.051025
1075.406, 5.366943
1075.888, 4.933472
1076.370, 5.377563
1076.853, 5.063477
1077.335, 4.401001
1077.817, 4.865967
1078.299, 6.436646
1078.781, 6.922974
1079.263, 4.045898
1079.745, 1.265503
1080.227, 0.1282960
1080.709, 0.4637450
1081.192, 0.3438720
1081.674, 0.1702880
1082.156, 8.3251998E-02
1082.638, 0.9965820
1083.120, 1.949341
1083.602, 1.769653
1084.084, 1.086304
1084.566, 0.2752690
1085.049, 0.6802980
1085.531, 0.4113770
1086.013, 1.530762
1086.495, 2.000732
1086.977, 1.383789
1087.459, 5.767090
1087.941, 7.147095
1088.423, 6.450073
1088.906, 5.325195
1089.388, 3.099609
1089.870, 2.657349
1090.352, 4.904053
1090.834, 7.353760
1091.316, 8.213989
1091.798, 7.651978
1092.280, 5.435547
1092.762, 2.168457
1093.245, 0.5004880
1093.727, 2.977661
1094.209, 5.227295
1094.691, 5.610840
1095.173, 5.184448
1095.655, 5.370728
1096.137, 6.140747
1096.619, 6.770874
1097.101, 7.187256
1097.584, 8.020874
1098.066, 10.63342
1098.548, 13.11157
1099.030, 14.46436
1099.512, 14.38879
1099.994, 11.13721
1100.476, 3.518066
1100.958, 0.3570560
1101.441, 2.364502
1101.923, 6.738647
1102.405, 6.392822
1102.887, 3.931519
1103.369, 2.937988
1103.851, 4.387939
1104.333, 4.469849
1104.815, 2.142212
1105.297, 0.3243410
1105.780, 0.4714360
1106.262, 1.807495
1106.744, 2.604126
1107.226, 3.020874
1107.708, 3.394897
1108.190, 3.578247
1108.672, 4.270874
1109.154, 6.409546
1109.636, 8.238770
1110.119, 8.506348
1110.601, 7.304199
1111.083, 4.592529
1111.565, 0.8248290
1112.047, 0.9639890
1112.529, 3.251953
1113.011, 7.413452
1113.493, 8.178345
1113.976, 7.226196
1114.458, 6.799194
1114.940, 6.922363
1115.422, 7.691895
1115.904, 9.200806
1116.386, 9.735718
1116.868, 5.514282
1117.350, 1.726318
1117.833, 4.892334
1118.315, 12.91052
1118.797, 14.84485
1119.279, 8.270874
1119.761, 4.142212
1120.243, 4.910645
1120.725, 6.398438
1121.207, 1.995972
1121.689, 3.955688
1122.172, 5.103149
1122.654, 0.5976560
1123.136, 2.567139
1123.618, 3.072144
1124.100, 3.299194
1124.582, 4.185303
1125.064, 4.952759
1125.546, 3.158203
1126.028, 0.2329100
1126.511, 0.4077150
1126.993, 2.773926
1127.475, 5.322754
1127.957, 5.742798
1128.439, 5.400024
1128.921, 4.403320
1129.403, 3.286621
1129.885, 5.338135
1130.368, 9.523804
1130.850, 11.32300
1131.332, 6.909180
1131.814, 3.337646
1132.296, 4.865234
1132.778, 7.849365
1133.260, 9.202393
1133.742, 8.882568
1134.224, 9.104980
1134.707, 9.836548
1135.189, 10.54138
1135.671, 11.25439
1136.153, 11.47192
1136.635, 10.28528
1137.117, 8.673096
1137.599, 8.341187
1138.081, 9.636353
1138.563, 10.28882
1139.046, 10.18701
1139.528, 9.948853
1140.010, 10.49487
1140.492, 10.71619
1140.974, 9.194092
1141.456, 6.527954
1141.938, 4.812866
1142.420, 4.508545
1142.903, 3.793823
1143.385, 2.219360
1143.867, 0.8731690
1144.349, 1.360840
1144.831, 2.851685
1145.313, 4.225464
1145.795, 5.339478
1146.277, 5.443726
1146.760, 3.574951
1147.242, 2.928101
1147.724, 4.684570
1148.206, 6.988525
1148.688, 7.263916
1149.170, 5.956421
1149.652, 3.329224
1150.134, 0.7807620
1150.616, 3.054199
1151.099, 1.476440
1151.581, 0.2060550
1152.063, 0.7541500
1152.545, 0.5532230
1153.027, 0.3682860
1153.509, 0.2003170
1153.991, 7.8856997E-02
1154.473, 0.7663570
1154.955, 0.5573730
1155.438, 2.593872
1155.920, 4.932129
1156.402, 3.927734
1156.884, 0.8487550
1157.366, 1.816650
1157.848, 5.850830
1158.330, 8.617310
1158.812, 7.942505
1159.295, 6.869629
1159.777, 6.594849
1160.259, 6.372070
1160.741, 5.799561
1161.223, 4.576660
1161.705, 2.766968
1162.187, 0.6628420
1162.669, 0.4167480
1163.151, 5.448853
1163.634, 9.856934
1164.116, 9.546631
1164.598, 7.596802
1165.080, 7.844971
1165.562, 10.53284
1166.044, 10.69202
1166.526, 8.323975
1167.008, 6.255371
1167.490, 7.003174
1167.973, 7.942139
1168.455, 7.547485
1168.937, 6.026978
1169.419, 3.416016
1169.901, 0.8448490
1170.383, 1.274658
1170.865, 2.543579
1171.347, 6.364868
1171.830, 6.892578
1172.312, 6.070801
1172.794, 5.044312
1173.276, 4.002197
1173.758, 3.097656
1174.240, 2.033203
1174.722, 3.219116
1175.204, 7.293945
1175.687, 10.89233
1176.169, 10.00024
1176.651, 7.845337
1177.133, 7.820435
1177.615, 9.502075
1178.097, 8.944214
1178.579, 4.915527
1179.061, 4.048096
1179.543, 7.877441
1180.026, 12.41602
1180.508, 13.74060
1180.990, 13.16907
1181.472, 11.91870
1181.954, 10.15076
1182.436, 8.363159
1182.918, 6.232300
1183.400, 5.525757
1183.882, 7.028564
1184.365, 8.960205
1184.847, 9.511963
1185.329, 8.981934
1185.811, 7.452881
1186.293, 4.822144
1186.775, 3.231445
1187.257, 2.706665
1187.739, 3.617798
1188.222, 6.785645
1188.704, 9.828247
1189.186, 8.311035
1189.668, 4.916870
1190.150, 3.638672
1190.632, 5.580200
1191.114, 7.706421
1191.596, 10.16602
1192.078, 11.89026
1192.561, 12.42517
1193.043, 11.99768
1193.525, 10.58459
1194.007, 8.619019
1194.489, 6.570313
1194.971, 4.026855
1195.453, 3.696167
1195.935, 6.436157
1196.417, 9.071777
1196.900, 10.01611
1197.382, 9.835083
1197.864, 9.225952
1198.346, 8.348511
1198.828, 7.441284
1199.310, 6.294312
1199.792, 5.916504
1200.274, 6.569092
1200.757, 7.380493
1201.239, 8.071289
1201.721, 8.380737
1202.203, 7.713013
1202.685, 6.380981
1203.167, 4.967285
1203.649, 3.051880
1204.131, 2.411621
1204.614, 3.526123
1205.096, 4.674805
1205.578, 4.166382
1206.060, 3.190552
1206.542, 4.271118
1207.024, 6.639160
1207.506, 8.524048
1207.988, 9.263794
1208.470, 9.269775
1208.953, 8.599731
1209.435, 7.926880
1209.917, 7.233643
1210.399, 7.017944
1210.881, 9.460083
1211.363, 13.08643
1211.845, 14.02112
1212.327, 8.696533
1212.809, 4.653198
1213.292, 2.194092
1213.774, 1.215576
1214.256, 2.404663
1214.738, 4.615479
1215.220, 6.374268
1215.702, 7.601074
1216.184, 8.063965
1216.666, 8.119019
1217.149, 6.076050
1217.631, 0.8570560
1218.113, 3.203369
1218.595, 0.3989260
1219.077, 4.970947
1219.559, 5.904175
1220.041, 3.671265
1220.523, 3.868774
1221.005, 9.853516
1221.488, 12.45508
1221.970, 10.43079
1222.452, 6.862427
1222.934, 3.464966
1223.416, 1.159546
1223.898, 2.278198
1224.380, 5.787720
1224.862, 7.014282
1225.344, 4.201904
1225.827, 3.341553
1226.309, 5.469238
1226.791, 7.646973
1227.273, 5.941284
1227.755, 3.323975
1228.237, 4.115112
1228.719, 7.545288
1229.201, 8.426025
1229.684, 5.414917
1230.166, 3.903076
1230.648, 4.800659
1231.130, 5.583984
1231.612, 2.842773
1232.094, 0.4693600
1232.576, 0.8955080
1233.058, 0.9429930
1233.541, 1.202515
1234.023, 0.9300540
1234.505, 0.7999270
1234.987, 2.429565
1235.469, 6.078247
1235.951, 8.405518
1236.433, 9.356567
1236.915, 8.392944
1237.397, 5.994873
1237.880, 3.798828
1238.362, 1.670044
1238.844, 2.264648
1239.326, 6.287964
1239.808, 9.351807
1240.290, 5.438965
1240.772, 0.9927980
1241.254, 1.742310
1241.736, 6.019287
1242.219, 8.565552
1242.701, 9.372437
1243.183, 9.649780
1243.665, 9.583130
1244.147, 9.140625
1244.629, 7.446533
1245.111, 6.261230
1245.593, 6.812378
1246.076, 8.690552
1246.558, 12.03259
1247.040, 16.49426
1247.522, 17.04578
1248.004, 12.81995
1248.486, 9.081787
1248.968, 10.09753
1249.450, 11.56006
1249.932, 11.01526
1250.415, 9.739502
1250.897, 10.94165
1251.379, 13.94360
1251.861, 14.86108
1252.343, 13.14709
1252.825, 11.23267
1253.307, 9.997192
1253.789, 9.178955
1254.271, 8.174072
1254.754, 8.015503
1255.236, 11.74939
1255.718, 17.80188
1256.200, 20.88147
1256.682, 20.45667
1257.164, 20.22974
1257.646, 22.32556
1258.128, 23.88574
1258.611, 24.22034
1259.093, 23.81787
1259.575, 21.87915
1260.057, 20.48230
1260.539, 23.96362
1261.021, 32.36902
1261.503, 37.31250
1261.985, 34.60730
1262.468, 33.26038
1262.950, 35.24341
1263.432, 38.76172
1263.914, 42.84534
1264.396, 45.97998
1264.878, 44.48853
1265.360, 38.81750
1265.842, 37.83472
1266.324, 44.10449
1266.807, 48.18823
1267.289, 48.48633
1267.771, 46.17737
1268.253, 41.84021
1268.735, 36.59412
1269.217, 30.74951
1269.699, 25.06519
1270.181, 23.32690
1270.663, 26.69739
1271.146, 25.10034
1271.628, 16.32410
1272.110, 8.568359
1272.592, 12.10010
1273.074, 16.95862
1273.556, 13.96655
1274.038, 6.347900
1274.520, 3.410889
1275.002, 5.022583
1275.485, 6.686646
1275.967, 7.837646
1276.449, 8.458130
1276.931, 8.636719
1277.413, 8.105103
1277.895, 5.559204
1278.377, 3.138184
1278.859, 5.980591
1279.342, 12.60950
1279.824, 14.19312
1280.306, 10.14746
1280.788, 8.014893
1281.270, 14.01147
1281.752, 19.29309
1282.234, 21.48474
1282.716, 21.90747
1283.198, 22.25134
1283.681, 22.38013
1284.163, 22.39514
1284.645, 22.08862
1285.127, 19.76465
1285.609, 12.95447
1286.091, 7.512573
1286.573, 4.148926
1287.055, 2.717529
1287.537, 4.769653
1288.020, 7.570557
1288.502, 6.396484
1288.984, 2.153687
1289.466, 0.2559810
1289.948, 2.034180
1290.430, 2.658569
1290.912, 1.450195
1291.394, 0.3630370
1291.877, 1.655640
1292.359, 3.424316
1292.841, 4.243652
1293.323, 4.046143
1293.805, 2.673828
1294.287, 0.1453860
1294.769, 0.6208500
1295.251, 1.479248
1295.734, 4.564697
1296.216, 8.864624
1296.698, 11.91809
1297.180, 11.53418
1297.662, 8.855225
1298.144, 4.903442
1298.626, 2.088623
1299.108, 0.3747560
1299.590, 8.7890998E-02
1300.073, 0.5252690
1300.555, 0.0000000E+00
##END=



