##NAMES=Ehrleite
##RRUFFID=R180029
##IDEAL CHEMISTRY=Ca_2_Zn^2+^Be(PO_4_)_2_(PO_3_OH)&#183;4H_2_O
##LOCALITY=Tip Top mine, Custer District, Custer Co., South Dakota, USA
##OWNER=RRUFF
##SOURCE=Tom Loomis
##DESCRIPTION=Colorless thick tabular crystals, twinned by a 2-fold parallel to (001)
##STATUS=The identification of this mineral has been confirmed only by single crystal X-ray diffraction.
##URL=rruff.info/R180029
88.13672, 0.0000000E+00
88.61884, 0.5906830
89.10095, 0.9525110
89.58307, 0.6046410
90.06519, 0.2163160
90.54730, 0.2922630
91.02942, 0.9656640
91.51154, 1.865051
91.99365, 2.056080
92.47577, 1.238869
92.95789, 0.5081600
93.44000, 0.1751140
93.92212, 8.2305998E-02
94.40424, 0.1282010
94.88635, 0.4686780
95.36847, 0.6978570
95.85059, 0.3633920
96.33270, 0.5015140
96.81482, 1.271465
97.29694, 1.466320
97.77905, 1.141502
98.26117, 1.082272
98.74329, 1.343445
99.22540, 1.886024
99.70752, 2.732529
100.1896, 3.957314
100.6718, 5.133133
101.1539, 5.768250
101.6360, 5.577473
102.1181, 6.180080
102.6002, 7.826725
103.0823, 10.42360
103.5645, 13.32772
104.0466, 16.40180
104.5287, 19.96503
105.0108, 24.49482
105.4929, 30.88020
105.9750, 36.58731
106.4572, 41.20818
106.9393, 44.73849
107.4214, 47.44558
107.9035, 47.77344
108.3856, 48.07261
108.8677, 50.89064
109.3499, 56.00688
109.8320, 63.83430
110.3141, 74.84030
110.7962, 90.14342
111.2783, 105.5773
111.7604, 124.1083
112.2426, 142.2883
112.7247, 154.4527
113.2068, 159.9029
113.6889, 159.1766
114.1710, 151.5271
114.6531, 133.1157
115.1353, 115.0816
115.6174, 99.26703
116.0995, 85.69739
116.5816, 74.25462
117.0637, 65.43180
117.5458, 58.43915
118.0280, 52.77543
118.5101, 49.10681
118.9922, 45.79535
119.4743, 41.97519
119.9564, 37.75711
120.4385, 33.73191
120.9207, 30.05301
121.4028, 26.80339
121.8849, 24.08186
122.3670, 21.79844
122.8491, 20.12364
123.3312, 19.40796
123.8134, 19.61586
124.2955, 20.11959
124.7776, 20.31676
125.2597, 20.44946
125.7418, 21.00362
126.2239, 22.67441
126.7061, 24.76644
127.1882, 26.08799
127.6703, 26.61207
128.1524, 26.71628
128.6345, 26.42461
129.1166, 25.91257
129.5988, 25.94769
130.0809, 26.87674
130.5630, 28.65605
131.0451, 31.07837
131.5272, 34.09906
132.0093, 37.90071
132.4915, 42.91983
132.9736, 49.16544
133.4557, 56.06708
133.9378, 63.08167
134.4199, 70.29546
134.9020, 78.71403
135.3842, 88.68855
135.8663, 99.58275
136.3484, 110.6853
136.8305, 122.0784
137.3126, 133.2296
137.7947, 144.1069
138.2769, 155.0288
138.7590, 163.7869
139.2411, 170.3576
139.7232, 174.4643
140.2053, 174.2358
140.6874, 168.1477
141.1696, 160.8468
141.6517, 155.9773
142.1338, 155.0730
142.6159, 152.4050
143.0980, 147.1500
143.5801, 139.4575
144.0623, 130.6997
144.5444, 120.7496
145.0265, 109.9112
145.5086, 98.38656
145.9907, 84.55112
146.4728, 72.37890
146.9550, 62.17591
147.4371, 53.93727
147.9192, 48.17313
148.4013, 45.68623
148.8834, 45.11498
149.3655, 45.21986
149.8477, 46.20947
150.3298, 47.65290
150.8119, 49.36327
151.2940, 51.25063
151.7761, 54.06746
152.2583, 59.14188
152.7404, 64.61901
153.2225, 68.58292
153.7046, 70.13956
154.1867, 70.84133
154.6688, 70.88722
155.1510, 70.09010
155.6331, 69.48928
156.1152, 68.95979
156.5973, 68.79317
157.0794, 69.37801
157.5615, 71.31052
158.0437, 73.60331
158.5258, 76.03626
159.0079, 78.84670
159.4900, 80.98476
159.9721, 82.14999
160.4542, 82.44406
160.9364, 82.04385
161.4185, 79.62881
161.9006, 77.47903
162.3827, 77.00156
162.8648, 78.94817
163.3469, 81.31603
163.8291, 84.35953
164.3112, 87.24235
164.7933, 88.09515
165.2754, 85.69273
165.7575, 81.14985
166.2396, 75.04666
166.7218, 66.74939
167.2039, 58.35983
167.6860, 50.95910
168.1681, 44.51953
168.6502, 38.69289
169.1323, 33.13506
169.6145, 28.23045
170.0966, 24.43724
170.5787, 22.08315
171.0608, 20.52767
171.5429, 19.26904
172.0250, 18.34587
172.5072, 17.98129
172.9893, 18.42207
173.4714, 19.45770
173.9535, 20.82504
174.4356, 22.56364
174.9177, 24.47636
175.3999, 26.39135
175.8820, 28.33007
176.3641, 30.30102
176.8462, 32.66782
177.3283, 35.08127
177.8104, 36.83369
178.2926, 37.36337
178.7747, 37.43919
179.2568, 38.10534
179.7389, 39.33992
180.2210, 40.83400
180.7031, 41.95161
181.1853, 43.05970
181.6674, 45.22656
182.1495, 49.44153
182.6316, 54.51292
183.1137, 58.22031
183.5958, 60.59648
184.0780, 61.94878
184.5601, 62.76187
185.0422, 62.86224
185.5243, 61.57056
186.0064, 58.51775
186.4885, 53.98143
186.9707, 48.43092
187.4528, 41.72649
187.9349, 34.92001
188.4170, 28.83777
188.8991, 23.49741
189.3812, 19.06233
189.8634, 15.70235
190.3455, 13.26256
190.8276, 11.15490
191.3097, 9.370071
191.7918, 7.926392
192.2739, 6.787552
192.7561, 5.931595
193.2382, 5.579502
193.7203, 6.117542
194.2024, 7.346054
194.6845, 7.805634
195.1666, 7.241024
195.6488, 6.350166
196.1309, 6.313194
196.6130, 7.194008
197.0951, 7.846840
197.5772, 7.769653
198.0593, 7.052380
198.5415, 6.757256
199.0236, 7.004837
199.5057, 7.360321
199.9878, 7.267433
200.4699, 6.692963
200.9520, 5.938278
201.4342, 5.110729
201.9163, 4.207291
202.3984, 3.122410
202.8805, 1.819210
203.3626, 0.4651110
203.8447, 0.9418600
204.3269, 2.563869
204.8090, 3.621899
205.2911, 3.644371
205.7732, 2.571865
206.2553, 1.765800
206.7374, 1.372486
207.2196, 1.145706
207.7017, 0.5848880
208.1838, 0.5282440
208.6659, 1.372208
209.1480, 1.505867
209.6301, 0.8280640
210.1123, 0.5651050
210.5944, 0.7679630
211.0765, 1.220615
211.5586, 1.734283
212.0407, 2.436203
212.5228, 2.821983
213.0050, 2.561886
213.4871, 1.516281
213.9692, 1.254009
214.4513, 2.025757
214.9334, 3.307121
215.4155, 4.369034
215.8977, 5.098408
216.3798, 5.880409
216.8619, 6.763523
217.3440, 7.700298
217.8261, 9.112259
218.3082, 11.12339
218.7904, 13.46484
219.2725, 15.73539
219.7546, 17.77002
220.2367, 20.08604
220.7188, 23.09695
221.2009, 27.14462
221.6831, 29.70237
222.1652, 30.58430
222.6473, 30.16443
223.1294, 28.73893
223.6115, 25.58232
224.0936, 22.87508
224.5758, 21.40117
225.0579, 21.45841
225.5400, 20.55254
226.0221, 17.96611
226.5042, 15.04860
226.9863, 13.68057
227.4685, 14.58989
227.9506, 15.66826
228.4327, 16.41411
228.9148, 16.80663
229.3969, 17.05800
229.8790, 17.14746
230.3612, 17.11068
230.8433, 17.01707
231.3254, 16.99636
231.8075, 16.67371
232.2896, 15.91385
232.7717, 14.68120
233.2539, 13.35407
233.7360, 11.80604
234.2181, 10.30682
234.7002, 9.173599
235.1823, 8.588917
235.6644, 8.069847
236.1466, 7.584682
236.6287, 7.167324
237.1108, 6.392799
237.5929, 5.058960
238.0750, 3.573063
238.5571, 2.333347
239.0393, 1.281097
239.5214, 0.5943220
240.0035, 0.3999180
240.4856, 0.7288060
240.9677, 0.9290500
241.4498, 0.8893700
241.9320, 0.8271330
242.4141, 0.9599420
242.8962, 1.388466
243.3783, 1.829273
243.8604, 2.309376
244.3425, 2.826969
244.8247, 2.940796
245.3068, 2.380760
245.7889, 1.698906
246.2710, 1.414383
246.7531, 1.894539
247.2352, 2.027122
247.7174, 1.495464
248.1995, 0.3538630
248.6816, 0.4367030
249.1637, 0.8073540
249.6458, 0.9064830
250.1279, 0.7954670
250.6101, 0.2630080
251.0922, 1.1707000E-02
251.5743, 0.4255030
252.0564, 1.320915
252.5385, 1.040157
253.0206, 1.174221
253.5028, 3.571678
253.9849, 4.814949
254.4670, 4.372204
254.9491, 4.122402
255.4312, 4.349228
255.9133, 4.931606
256.3955, 5.231987
256.8776, 5.134560
257.3597, 4.924023
257.8418, 4.842979
258.3239, 5.129311
258.8061, 4.858818
259.2882, 3.764641
259.7703, 2.087440
260.2524, 0.7289580
260.7345, 0.3275260
261.2166, 1.054550
261.6988, 1.377747
262.1809, 1.137024
262.6630, 1.286503
263.1451, 1.966034
263.6272, 2.860790
264.1093, 3.235630
264.5915, 2.875378
265.0736, 2.568523
265.5557, 2.737820
266.0378, 3.565521
266.5199, 4.132275
267.0020, 4.446983
267.4842, 4.470551
267.9663, 4.091824
268.4484, 3.241196
268.9305, 2.161812
269.4126, 0.8194430
269.8947, 0.9620210
270.3769, 1.965942
270.8590, 1.956413
271.3411, 1.480186
271.8232, 1.452736
272.3053, 1.975632
272.7874, 2.572914
273.2696, 3.157425
273.7517, 3.743774
274.2338, 3.870209
274.7159, 3.365303
275.1980, 2.728966
275.6801, 2.793976
276.1623, 3.730957
276.6444, 4.312790
277.1265, 3.878708
277.6086, 2.545464
278.0907, 2.409935
278.5728, 3.740784
279.0550, 5.493568
279.5371, 6.433441
280.0192, 6.488045
280.5013, 6.727806
280.9834, 7.513756
281.4655, 8.717323
281.9477, 9.537788
282.4298, 9.839226
282.9119, 10.36407
283.3940, 11.96372
283.8761, 14.62010
284.3582, 17.16640
284.8404, 19.22525
285.3225, 21.07516
285.8046, 23.75532
286.2867, 27.32331
286.7688, 30.83929
287.2509, 33.32864
287.7331, 34.93620
288.2152, 37.06079
288.6973, 40.15829
289.1794, 43.60714
289.6615, 45.99274
290.1436, 47.34188
290.6258, 48.34557
291.1079, 49.76232
291.5900, 51.31784
292.0721, 51.62172
292.5542, 50.21827
293.0363, 48.22001
293.5185, 47.39394
294.0006, 47.63235
294.4827, 47.96007
294.9648, 47.96849
295.4469, 47.65032
295.9290, 46.99946
296.4112, 46.01933
296.8933, 44.67396
297.3754, 42.74310
297.8575, 40.37532
298.3396, 38.05186
298.8217, 36.14275
299.3039, 34.37691
299.7860, 32.18340
300.2681, 29.50041
300.7502, 27.01207
301.2323, 25.63972
301.7144, 24.98477
302.1966, 24.14849
302.6787, 22.26459
303.1608, 20.28368
303.6429, 19.59388
304.1250, 20.13805
304.6071, 20.69459
305.0893, 20.01189
305.5714, 18.76077
306.0535, 18.04388
306.5356, 18.67533
307.0177, 19.46998
307.4998, 18.99497
307.9820, 17.54745
308.4641, 16.67513
308.9462, 17.75004
309.4283, 19.67271
309.9104, 21.21098
310.3925, 21.88313
310.8747, 22.72717
311.3568, 24.46304
311.8389, 26.79440
312.3210, 28.88692
312.8031, 30.40013
313.2852, 31.49454
313.7674, 32.16467
314.2495, 32.16538
314.7316, 32.48012
315.2137, 34.14389
315.6958, 36.38531
316.1779, 37.88565
316.6601, 38.03373
317.1422, 37.40669
317.6243, 36.06050
318.1064, 33.87652
318.5885, 31.88502
319.0706, 30.79582
319.5528, 30.01656
320.0349, 28.88557
320.5170, 26.59090
320.9991, 24.44082
321.4812, 22.82208
321.9633, 21.77974
322.4455, 21.13485
322.9276, 21.61343
323.4097, 22.00005
323.8918, 21.36482
324.3739, 18.00172
324.8560, 15.40136
325.3382, 14.69013
325.8203, 15.53070
326.3024, 15.51851
326.7845, 13.10169
327.2666, 10.84084
327.7487, 9.939064
328.2309, 11.91753
328.7130, 13.12975
329.1951, 13.23117
329.6772, 12.57651
330.1593, 12.03446
330.6414, 11.50067
331.1236, 11.20861
331.6057, 11.28584
332.0878, 11.90559
332.5699, 12.36228
333.0520, 12.52499
333.5341, 12.60594
334.0163, 12.92442
334.4984, 13.58929
334.9805, 14.26071
335.4626, 14.72452
335.9447, 14.94858
336.4268, 16.06456
336.9090, 18.61019
337.3911, 21.24149
337.8732, 22.52332
338.3553, 22.13985
338.8374, 21.66570
339.3195, 21.27610
339.8017, 21.02131
340.2838, 21.11845
340.7659, 21.57752
341.2480, 22.35322
341.7301, 23.51464
342.2122, 25.07219
342.6944, 26.62997
343.1765, 28.23577
343.6586, 29.68661
344.1407, 30.30907
344.6228, 30.07745
345.1049, 30.06316
345.5871, 30.78510
346.0692, 32.21915
346.5513, 34.16914
347.0334, 36.64104
347.5155, 39.56538
347.9977, 42.89075
348.4798, 46.60851
348.9619, 50.52262
349.4440, 54.96104
349.9261, 59.41219
350.4082, 62.45085
350.8904, 64.07930
351.3725, 65.95547
351.8546, 69.49080
352.3367, 74.34029
352.8188, 79.90422
353.3009, 86.48367
353.7831, 93.10471
354.2652, 98.12846
354.7473, 102.0007
355.2294, 106.7733
355.7115, 114.7028
356.1936, 123.7792
356.6758, 131.6777
357.1579, 137.7024
357.6400, 143.5808
358.1221, 150.9807
358.6042, 159.0863
359.0863, 166.4206
359.5685, 172.4727
360.0506, 177.4450
360.5327, 181.6169
361.0148, 185.0871
361.4969, 187.0183
361.9790, 186.4493
362.4612, 184.3857
362.9433, 181.9019
363.4254, 179.9057
363.9075, 176.9047
364.3896, 171.9576
364.8717, 165.2344
365.3539, 158.8160
365.8360, 153.7773
366.3181, 148.7503
366.8002, 142.8059
367.2823, 134.6194
367.7644, 127.0797
368.2466, 120.4922
368.7287, 114.6694
369.2108, 109.1735
369.6929, 104.1424
370.1750, 99.35371
370.6571, 94.79597
371.1393, 90.53739
371.6214, 85.83282
372.1035, 80.09814
372.5856, 74.30460
373.0677, 69.97187
373.5498, 68.10246
374.0320, 65.43900
374.5141, 60.87433
374.9962, 54.67421
375.4783, 50.02258
375.9604, 47.24857
376.4425, 45.16774
376.9247, 42.94121
377.4068, 40.58261
377.8889, 38.24902
378.3710, 35.94528
378.8531, 33.75047
379.3352, 31.77666
379.8174, 30.02602
380.2995, 28.48062
380.7816, 27.29154
381.2637, 26.38789
381.7458, 25.24070
382.2279, 23.72949
382.7101, 22.26592
383.1922, 21.43639
383.6743, 21.11661
384.1564, 20.69872
384.6385, 19.80007
385.1206, 18.69794
385.6028, 17.98771
386.0849, 17.64269
386.5670, 17.15507
387.0491, 15.95844
387.5312, 14.38457
388.0133, 12.89240
388.4955, 11.37942
388.9776, 10.36729
389.4597, 10.86005
389.9418, 12.33620
390.4239, 13.30383
390.9060, 12.50892
391.3882, 11.20167
391.8703, 10.36082
392.3524, 10.16687
392.8345, 10.02533
393.3166, 9.511391
393.7987, 8.920601
394.2809, 8.633415
394.7630, 9.145012
395.2451, 9.597443
395.7272, 9.591675
396.2093, 9.156998
396.6914, 8.944374
397.1736, 9.321808
397.6557, 9.806427
398.1378, 10.10486
398.6199, 10.14113
399.1020, 10.04205
399.5841, 9.531219
400.0663, 8.900543
400.5484, 8.884438
401.0305, 10.06172
401.5126, 11.12457
401.9947, 11.57073
402.4768, 11.22143
402.9590, 11.22459
403.4411, 11.76647
403.9232, 12.44898
404.4053, 12.77002
404.8874, 12.56321
405.3695, 12.59196
405.8517, 13.08263
406.3338, 13.90925
406.8159, 14.50319
407.2980, 14.81583
407.7801, 15.13631
408.2622, 15.66122
408.7444, 16.38169
409.2265, 17.19041
409.7086, 18.12502
410.1907, 19.03006
410.6728, 19.68387
411.1549, 20.10051
411.6371, 20.35384
412.1192, 20.36993
412.6013, 20.26857
413.0834, 20.40194
413.5655, 20.76717
414.0476, 20.90062
414.5298, 20.21141
415.0119, 19.07632
415.4940, 18.08488
415.9761, 17.38318
416.4582, 16.91787
416.9403, 16.88027
417.4225, 17.09892
417.9046, 17.06663
418.3867, 16.62132
418.8688, 15.76527
419.3509, 14.36201
419.8330, 12.24429
420.3152, 10.35318
420.7973, 9.029701
421.2794, 8.121964
421.7615, 7.444771
422.2436, 7.104767
422.7257, 6.841080
423.2079, 6.760574
423.6900, 6.807220
424.1721, 6.376495
424.6542, 4.964439
425.1363, 3.461876
425.6184, 2.290894
426.1006, 1.747444
426.5827, 1.004349
427.0648, 0.1980060
427.5469, 1.475475
428.0290, 2.076180
428.5111, 1.746731
428.9933, 1.300373
429.4754, 0.9175950
429.9575, 0.6017040
430.4396, 0.4662930
430.9217, 0.4799000
431.4038, 0.7553140
431.8860, 1.630108
432.3681, 3.116096
432.8502, 3.937519
433.3323, 3.767544
433.8144, 3.047977
434.2965, 2.561916
434.7787, 2.300827
435.2608, 2.159920
435.7429, 2.184921
436.2250, 2.273636
436.7071, 2.147804
437.1892, 1.782787
437.6714, 1.426308
438.1535, 1.384003
438.6356, 1.500130
439.1177, 1.453506
439.5998, 1.321796
440.0819, 0.8880690
440.5641, 0.4280590
441.0462, 2.356289
441.5283, 3.893623
442.0104, 3.969166
442.4925, 3.760887
442.9746, 4.090775
443.4568, 5.203316
443.9389, 6.212574
444.4210, 6.634998
444.9031, 6.931000
445.3852, 7.644535
445.8673, 9.474392
446.3495, 11.07338
446.8316, 11.94350
447.3137, 12.16000
447.7958, 12.92964
448.2779, 14.81746
448.7600, 16.66043
449.2422, 17.82561
449.7243, 17.87720
450.2064, 18.35056
450.6885, 19.34482
451.1706, 20.63115
451.6527, 22.03978
452.1349, 23.75329
452.6170, 24.83368
453.0991, 24.71734
453.5812, 23.70451
454.0633, 23.63634
454.5454, 24.59432
455.0276, 25.79066
455.5097, 26.70013
455.9918, 27.32922
456.4739, 27.62240
456.9560, 27.51623
457.4381, 27.24084
457.9203, 27.05617
458.4024, 26.95118
458.8845, 26.89191
459.3666, 27.05325
459.8488, 27.14166
460.3309, 26.80035
460.8130, 26.04060
461.2951, 25.08963
461.7772, 23.81678
462.2593, 22.57250
462.7415, 21.73074
463.2236, 21.51234
463.7057, 21.46597
464.1878, 21.64891
464.6699, 21.86404
465.1520, 21.72939
465.6342, 20.89793
466.1163, 19.94723
466.5984, 19.11888
467.0805, 18.47953
467.5626, 17.45679
468.0447, 15.56276
468.5269, 13.67730
469.0090, 12.41004
469.4911, 12.11151
469.9732, 11.73908
470.4553, 11.25233
470.9374, 10.64211
471.4196, 9.873466
471.9017, 8.941944
472.3838, 7.869812
472.8659, 6.560081
473.3480, 5.059505
473.8301, 3.902599
474.3123, 3.080208
474.7944, 2.611725
475.2765, 2.670559
475.7586, 3.141224
476.2407, 3.526703
476.7228, 3.722878
477.2050, 3.820518
477.6871, 3.961720
478.1692, 4.110199
478.6513, 4.147812
479.1334, 3.978828
479.6155, 3.689632
480.0977, 3.190887
480.5798, 2.497459
481.0619, 2.222435
481.5440, 3.279263
482.0261, 4.631344
482.5082, 5.319580
482.9904, 4.595680
483.4725, 3.982021
483.9546, 3.812737
484.4367, 4.053764
484.9188, 4.598846
485.4009, 5.955086
485.8831, 7.029068
486.3652, 7.406479
486.8473, 7.002895
487.3294, 7.280109
487.8115, 8.807255
488.2936, 10.32805
488.7758, 10.86639
489.2579, 10.06202
489.7400, 9.451797
490.2221, 9.192558
490.7042, 9.086006
491.1863, 8.711716
491.6685, 8.088234
492.1506, 7.493500
492.6327, 7.104668
493.1148, 6.801147
493.5969, 6.181000
494.0790, 5.237007
494.5612, 4.167740
495.0433, 3.140114
495.5254, 2.103378
496.0075, 0.7853090
496.4896, 1.064026
496.9717, 2.544022
497.4539, 2.301888
497.9360, 1.138458
498.4181, 0.5066150
498.9002, 1.825348
499.3823, 3.249702
499.8644, 3.799164
500.3466, 3.505112
500.8287, 2.914093
501.3108, 1.737732
501.7929, 0.6416090
502.2750, 3.3119000E-02
502.7571, 0.2057340
503.2393, 0.3562010
503.7214, 0.4681320
504.2035, 0.5413440
504.6856, 0.5768590
505.1677, 0.5810390
505.6498, 0.5241470
506.1320, 0.3559190
506.6141, 0.1182710
507.0962, 0.1574860
507.5783, 0.6054610
508.0604, 0.7779240
508.5425, 1.8310000E-03
509.0247, 1.590195
509.5068, 2.517418
509.9889, 2.669662
510.4710, 2.480522
510.9531, 2.287086
511.4352, 2.140091
511.9174, 2.214287
512.3995, 2.694763
512.8816, 3.241379
513.3637, 3.499397
513.8458, 3.522446
514.3279, 3.482300
514.8101, 3.358765
515.2922, 3.287140
515.7743, 3.339043
516.2564, 3.517113
516.7385, 3.882767
517.2206, 4.604568
517.7028, 5.437653
518.1849, 6.182404
518.6670, 6.962959
519.1491, 7.453499
519.6312, 7.374084
520.1133, 7.042839
520.5955, 7.192238
521.0776, 8.161926
521.5597, 8.964867
522.0418, 9.225174
522.5239, 8.976357
523.0060, 9.020416
523.4882, 9.405884
523.9703, 9.904884
524.4524, 10.48402
524.9345, 11.09267
525.4166, 11.05446
525.8987, 10.09352
526.3809, 9.220428
526.8630, 10.09441
527.3451, 12.19921
527.8272, 13.88100
528.3093, 14.20542
528.7914, 14.07069
529.2736, 14.47149
529.7557, 15.26978
530.2378, 15.82218
530.7199, 15.17447
531.2020, 14.60169
531.6841, 15.27853
532.1663, 17.77223
532.6484, 19.41662
533.1305, 18.66877
533.6126, 17.23069
534.0947, 16.69517
534.5768, 17.83659
535.0590, 19.03685
535.5411, 20.31789
536.0232, 21.56104
536.5053, 22.39722
536.9874, 22.73522
537.4695, 22.84138
537.9517, 22.58677
538.4338, 22.04427
538.9159, 22.73536
539.3980, 24.94292
539.8801, 26.87766
540.3622, 26.53782
540.8444, 24.52724
541.3265, 23.28446
541.8086, 23.18645
542.2907, 23.68897
542.7728, 24.58578
543.2549, 25.60183
543.7371, 26.11699
544.2192, 25.29030
544.7013, 24.37718
545.1834, 24.35056
545.6655, 25.01567
546.1476, 25.58618
546.6298, 25.75965
547.1119, 25.74840
547.5940, 25.51161
548.0761, 24.81276
548.5582, 24.85861
549.0403, 26.35081
549.5225, 28.19730
550.0046, 29.39584
550.4867, 29.11686
550.9688, 30.10048
551.4509, 33.05729
551.9330, 37.04573
552.4152, 39.85799
552.8973, 41.33826
553.3794, 42.95400
553.8615, 45.27285
554.3436, 48.06451
554.8257, 50.87351
555.3079, 53.77780
555.7900, 56.68531
556.2721, 59.17326
556.7542, 61.49226
557.2363, 64.20643
557.7184, 67.46535
558.2006, 71.06063
558.6827, 74.82291
559.1648, 78.84841
559.6469, 83.27422
560.1290, 87.47916
560.6111, 92.67207
561.0933, 99.75395
561.5754, 108.1333
562.0575, 116.1220
562.5396, 122.4157
563.0217, 129.4193
563.5038, 137.8094
563.9860, 147.6533
564.4681, 158.3901
564.9502, 170.1968
565.4323, 182.4855
565.9144, 194.8631
566.3965, 207.4566
566.8787, 220.0030
567.3608, 232.8900
567.8429, 244.2407
568.3250, 252.1697
568.8071, 256.3989
569.2892, 255.0552
569.7714, 246.8196
570.2535, 233.6787
570.7356, 216.7126
571.2177, 196.5583
571.6998, 176.3432
572.1819, 156.0020
572.6641, 136.9440
573.1462, 120.0583
573.6283, 105.2608
574.1104, 92.46420
574.5925, 81.95450
575.0746, 73.09566
575.5568, 65.35339
576.0389, 59.02631
576.5210, 53.49670
577.0031, 48.91004
577.4852, 44.96521
577.9673, 41.23917
578.4495, 37.63454
578.9316, 34.46912
579.4137, 31.76743
579.8958, 29.58582
580.3779, 28.08595
580.8600, 27.27225
581.3422, 26.65028
581.8243, 25.86652
582.3064, 25.10568
582.7885, 24.87177
583.2706, 25.15269
583.7527, 25.47431
584.2349, 25.47106
584.7170, 25.33325
585.1991, 25.19005
585.6812, 24.94129
586.1633, 25.08772
586.6454, 25.93282
587.1276, 27.27114
587.6097, 28.82595
588.0918, 30.56092
588.5739, 32.54661
589.0560, 34.95328
589.5381, 37.60343
590.0203, 39.94715
590.5024, 41.79562
590.9845, 43.71035
591.4666, 45.75898
591.9487, 48.00426
592.4308, 51.12083
592.9130, 55.22294
593.3951, 59.30145
593.8772, 62.56935
594.3593, 65.16783
594.8414, 67.39086
595.3235, 69.21316
595.8057, 70.91531
596.2878, 72.67558
596.7699, 74.51917
597.2520, 76.49828
597.7341, 78.94198
598.2162, 81.08856
598.6984, 82.68351
599.1805, 83.74677
599.6626, 84.32670
600.1447, 83.53653
600.6268, 83.09112
601.1089, 83.65098
601.5911, 85.12038
602.0732, 86.27154
602.5553, 87.10054
603.0374, 87.53675
603.5195, 87.57090
604.0016, 87.25233
604.4838, 86.47330
604.9659, 85.10372
605.4480, 83.56806
605.9301, 82.37678
606.4122, 81.51689
606.8943, 80.79434
607.3765, 80.27587
607.8586, 79.36458
608.3407, 77.18768
608.8228, 74.24304
609.3049, 71.49645
609.7870, 69.55155
610.2692, 67.65969
610.7513, 65.60761
611.2334, 63.34444
611.7155, 60.70944
612.1976, 57.11217
612.6797, 53.65802
613.1619, 50.75014
613.6440, 48.39744
614.1261, 46.03927
614.6082, 43.62708
615.0903, 41.20927
615.5724, 38.69270
616.0546, 36.07861
616.5367, 33.95020
617.0188, 32.45159
617.5009, 31.00696
617.9830, 28.71617
618.4651, 25.90302
618.9473, 23.58118
619.4294, 22.14745
619.9115, 21.08690
620.3936, 19.85335
620.8757, 18.38837
621.3578, 16.91078
621.8400, 14.88985
622.3221, 13.43599
622.8042, 13.42455
623.2863, 14.59531
623.7684, 15.21263
624.2505, 14.90468
624.7327, 14.22044
625.2148, 13.13947
625.6969, 11.54941
626.1790, 11.03111
626.6611, 11.92025
627.1432, 13.02103
627.6254, 13.34368
628.1075, 12.95458
628.5896, 12.55019
629.0717, 12.15586
629.5538, 11.95460
630.0359, 12.43722
630.5181, 13.24078
631.0002, 13.56828
631.4823, 12.90939
631.9644, 12.17929
632.4465, 12.03132
632.9286, 12.27195
633.4108, 12.51718
633.8929, 13.07034
634.3750, 13.17432
634.8571, 12.34775
635.3392, 10.73156
635.8214, 9.443764
636.3035, 8.597878
636.7856, 7.878532
637.2677, 7.187271
637.7498, 6.525307
638.2319, 5.720375
638.7141, 4.711349
639.1962, 3.844643
639.6783, 3.501648
640.1604, 3.532623
640.6425, 3.428467
641.1246, 3.120697
641.6068, 2.770813
642.0889, 2.692848
642.5710, 2.679817
643.0531, 2.261986
643.5352, 0.8064270
644.0173, 0.3632580
644.4995, 0.5216520
644.9816, 7.8575000E-02
645.4637, 0.2391130
645.9458, 0.3474120
646.4279, 0.2649000
646.9100, 0.1461490
647.3922, 0.7505040
647.8743, 0.9798130
648.3564, 0.7853550
648.8385, 0.3860240
649.3206, 0.2243960
649.8027, 1.003357
650.2849, 1.587296
650.7670, 1.940269
651.2491, 2.046295
651.7312, 1.797874
652.2133, 1.325638
652.6954, 0.7447130
653.1776, 5.4118998E-02
653.6597, 0.4906540
654.1418, 0.6746560
654.6239, 0.7046890
655.1060, 0.7529910
655.5881, 0.7560350
656.0703, 0.9492380
656.5524, 1.668377
657.0345, 2.419388
657.5166, 2.609562
657.9987, 1.961266
658.4808, 1.480087
658.9630, 1.363251
659.4451, 1.428635
659.9272, 1.194443
660.4093, 0.6841700
660.8914, 0.4313700
661.3735, 0.8889920
661.8557, 1.520752
662.3378, 1.251514
662.8199, 0.3084830
663.3020, 0.3170660
663.7841, 0.3322530
664.2662, 1.187061
664.7484, 1.493481
665.2305, 1.199768
665.7126, 0.8229370
666.1947, 0.4200670
666.6768, 2.2343000E-02
667.1589, 0.3762590
667.6411, 0.8201450
668.1232, 1.052216
668.6053, 1.000080
669.0874, 0.8523600
669.5695, 0.7806400
670.0516, 0.7797970
670.5338, 0.6975750
671.0159, 0.4512100
671.4980, 0.3697620
671.9801, 1.220428
672.4622, 2.532204
672.9443, 3.179623
673.4265, 2.528290
673.9086, 1.631725
674.3907, 0.9945870
674.8728, 0.6408730
675.3549, 0.6230890
675.8370, 1.720505
676.3192, 2.285793
676.8013, 1.269447
677.2834, 0.6754680
677.7655, 0.9888310
678.2476, 1.182774
678.7297, 2.992653
679.2119, 3.224857
679.6940, 2.177143
680.1761, 1.474922
680.6582, 1.121658
681.1403, 1.088055
681.6224, 1.598740
682.1046, 2.327042
682.5867, 2.652653
683.0688, 2.543869
683.5509, 2.418407
684.0330, 2.528889
684.5151, 2.750309
684.9973, 3.012756
685.4794, 3.387527
685.9615, 3.562569
686.4436, 3.289478
686.9257, 2.930565
687.4078, 2.746719
687.8900, 2.699776
688.3721, 3.032909
688.8542, 3.971516
689.3363, 4.919914
689.8184, 4.811954
690.3005, 3.773827
690.7827, 2.811306
691.2648, 2.094822
691.7469, 1.765499
692.2290, 2.333054
692.7111, 3.423698
693.1932, 4.183083
693.6754, 3.895882
694.1575, 3.523544
694.6396, 3.667583
695.1217, 4.138779
695.6038, 4.215271
696.0859, 3.386059
696.5681, 2.613907
697.0502, 2.118210
697.5323, 1.889816
698.0144, 1.961636
698.4965, 2.473854
698.9786, 2.671734
699.4608, 1.651760
699.9429, 8.6848997E-02
700.4250, 0.2424510
700.9071, 1.131756
701.3892, 2.514729
701.8713, 2.619240
702.3535, 2.187386
702.8356, 2.019428
703.3177, 2.231392
703.7998, 2.491211
704.2819, 2.817368
704.7640, 3.043304
705.2462, 3.019306
705.7283, 2.746586
706.2104, 2.209114
706.6925, 1.112545
707.1746, 0.1290590
707.6567, 0.1549950
708.1389, 1.238029
708.6210, 2.113285
709.1031, 2.630348
709.5852, 2.808876
710.0673, 2.468121
710.5494, 1.815750
711.0316, 1.350960
711.5137, 1.266266
711.9958, 1.340195
712.4779, 1.620159
712.9600, 1.933071
713.4421, 1.956135
713.9243, 0.8706020
714.4064, 0.3227920
714.8885, 1.104717
715.3706, 2.663204
715.8527, 3.076458
716.3348, 1.957756
716.8170, 0.9732130
717.2991, 0.7647740
717.7812, 1.086151
718.2633, 1.085926
718.7454, 0.7827300
719.2275, 0.4958380
719.7097, 0.3654670
720.1918, 0.4418950
720.6739, 0.9108280
721.1560, 1.680946
721.6381, 2.173595
722.1202, 2.029778
722.6024, 1.649918
723.0845, 1.209480
723.5666, 0.6991880
724.0487, 0.3703990
724.5308, 0.2416040
725.0129, 0.2596550
725.4951, 0.4331780
725.9772, 0.7709350
726.4593, 0.9286650
726.9414, 0.8872720
727.4235, 0.7983130
727.9056, 0.7621800
728.3878, 0.7881510
728.8699, 0.9043880
729.3520, 1.131603
729.8341, 1.383976
730.3162, 1.781555
730.7983, 2.052204
731.2805, 1.910282
731.7626, 0.9232790
732.2447, 0.2002070
732.7268, 0.1859510
733.2089, 0.2860260
733.6910, 0.1391720
734.1732, 0.2544330
734.6553, 0.9334260
735.1374, 1.976280
735.6195, 2.899784
736.1016, 2.757401
736.5837, 1.778744
737.0659, 1.121235
737.5480, 1.248455
738.0301, 1.584522
738.5122, 1.696312
738.9943, 1.661812
739.4764, 1.614300
739.9586, 1.404804
740.4407, 1.401333
740.9228, 1.996552
741.4049, 2.813091
741.8870, 2.911320
742.3691, 1.935146
742.8513, 1.346317
743.3334, 1.676731
743.8155, 2.514603
744.2976, 2.673798
744.7797, 2.240044
745.2618, 1.944660
745.7440, 2.296318
746.2261, 2.862797
746.7082, 3.238369
747.1903, 3.434731
747.6724, 3.511044
748.1545, 3.427898
748.6367, 3.288174
749.1188, 3.098213
749.6009, 2.868584
750.0830, 2.700733
750.5651, 2.535706
751.0472, 2.548679
751.5294, 2.848221
752.0115, 3.401337
752.4936, 3.990372
752.9757, 4.617699
753.4578, 5.218628
753.9399, 6.090797
754.4221, 6.721588
754.9042, 5.964088
755.3863, 3.893402
755.8684, 2.541809
756.3505, 3.769600
756.8326, 5.333435
757.3148, 5.741463
757.7969, 4.548927
758.2790, 3.926399
758.7611, 4.223297
759.2432, 4.671539
759.7253, 4.813751
760.2075, 4.648010
760.6896, 4.410828
761.1717, 4.099968
761.6538, 3.761917
762.1359, 3.290749
762.6180, 2.872391
763.1002, 2.896683
763.5823, 3.459305
764.0644, 3.940994
764.5465, 3.975731
765.0286, 3.782852
765.5107, 3.627754
765.9929, 3.742477
766.4750, 3.430817
766.9571, 2.410477
767.4392, 1.315758
767.9213, 0.7275770
768.4034, 0.6676180
768.8856, 0.7272420
769.3677, 0.8770680
769.8498, 1.136589
770.3319, 1.711426
770.8140, 2.391563
771.2961, 2.678032
771.7783, 2.367493
772.2604, 1.951851
772.7425, 1.652435
773.2246, 1.435516
773.7067, 1.270218
774.1888, 1.127213
774.6710, 1.082916
775.1531, 1.180412
775.6352, 1.347519
776.1173, 1.483879
776.5994, 1.582863
777.0815, 1.668571
777.5637, 1.732330
778.0458, 1.854744
778.5279, 2.335930
779.0100, 2.900093
779.4921, 2.980667
779.9742, 2.067070
780.4564, 1.379478
780.9385, 1.611069
781.4206, 2.274406
781.9027, 2.737846
782.3848, 2.932205
782.8669, 2.969994
783.3491, 2.802338
783.8312, 2.558098
784.3133, 2.442039
784.7954, 2.435051
785.2775, 2.419243
785.7596, 2.355408
786.2418, 2.350029
786.7239, 2.560234
787.2060, 2.914520
787.6881, 3.294487
788.1702, 3.763802
788.6523, 4.094711
789.1345, 4.077194
789.6166, 3.905792
790.0987, 3.937881
790.5808, 4.349876
791.0629, 4.579254
791.5450, 4.507294
792.0272, 4.287369
792.5093, 4.205109
792.9914, 4.242546
793.4735, 4.224014
793.9556, 4.015495
794.4377, 3.898323
794.9199, 4.218674
795.4020, 4.850914
795.8841, 5.546211
796.3662, 6.674080
796.8483, 7.319977
797.3304, 6.695595
797.8126, 5.596298
798.2947, 5.495110
798.7768, 6.878418
799.2589, 7.706512
799.7410, 7.468651
800.2231, 6.732040
800.7053, 6.548317
801.1874, 6.798645
801.6695, 6.979187
802.1516, 6.897865
802.6337, 6.725586
803.1158, 6.433243
803.5980, 6.191261
804.0801, 6.288513
804.5622, 7.417503
805.0443, 8.114967
805.5264, 7.928802
806.0085, 7.313438
806.4907, 7.204025
806.9728, 7.759659
807.4549, 7.733116
807.9370, 6.657753
808.4191, 5.265198
808.9012, 4.707405
809.3834, 4.811462
809.8655, 5.156059
810.3476, 5.978462
810.8297, 6.428978
811.3118, 5.636986
811.7939, 4.225632
812.2761, 3.252228
812.7582, 2.997688
813.2403, 3.011398
813.7224, 3.384926
814.2045, 3.888031
814.6866, 4.116371
815.1688, 4.069397
815.6509, 3.831795
816.1330, 3.348900
816.6151, 2.868324
817.0972, 2.817078
817.5793, 2.977180
818.0615, 2.939262
818.5436, 2.442085
819.0257, 1.886131
819.5078, 1.307045
819.9899, 0.7888640
820.4720, 0.4194950
820.9542, 8.8340998E-02
821.4363, 0.2737270
821.9184, 1.220055
822.4005, 2.378662
822.8826, 2.979988
823.3647, 3.055229
823.8469, 2.648079
824.3290, 1.620216
824.8111, 0.5325320
825.2932, 0.2387850
825.7753, 0.7456130
826.2574, 1.046349
826.7396, 1.365273
827.2217, 1.136543
827.7038, 0.2084050
828.1859, 1.680946
828.6681, 1.966263
829.1502, 0.8810810
829.6323, 0.1604080
830.1144, 2.1126000E-02
830.5966, 0.3119200
831.0787, 1.305611
831.5608, 2.493805
832.0429, 2.791061
832.5250, 1.644363
833.0071, 0.5138930
833.4893, 1.6228000E-02
833.9714, 8.6135998E-02
834.4535, 0.2076490
834.9356, 1.245186
835.4177, 1.762833
835.8998, 1.651039
836.3820, 1.212929
836.8641, 0.6100390
837.3462, 8.8073999E-02
837.8283, 0.4010930
838.3104, 0.2466350
838.7925, 5.9502002E-02
839.2747, 0.4133830
839.7568, 0.6831890
840.2389, 0.6806720
840.7210, 0.2693560
841.2031, 3.6720000E-02
841.6852, 0.2141490
842.1674, 0.1822280
842.6495, 0.2083050
843.1316, 1.067123
843.6137, 1.463150
844.0958, 1.336861
844.5779, 1.111420
845.0601, 1.133423
845.5422, 1.332764
846.0243, 1.697578
846.5064, 2.229103
846.9885, 2.455284
847.4706, 1.718826
847.9528, 0.9286650
848.4349, 0.7599950
848.9170, 1.342033
849.3991, 1.620888
849.8812, 1.511154
850.3633, 1.310402
850.8455, 1.090370
851.3276, 0.9109950
851.8097, 1.216080
852.2918, 1.960030
852.7739, 2.604340
853.2560, 2.804016
853.7382, 2.759109
854.2203, 2.403275
854.7024, 1.754471
855.1845, 1.676788
855.6666, 3.081978
856.1487, 4.235062
856.6309, 4.398163
857.1130, 3.914978
857.5951, 4.483917
858.0772, 5.984634
858.5593, 7.205093
859.0414, 7.157066
859.5236, 6.891762
860.0057, 8.275520
860.4878, 10.75398
860.9699, 12.70908
861.4520, 12.84657
861.9341, 13.12861
862.4163, 14.24956
862.8984, 16.00958
863.3805, 18.05759
863.8626, 20.59589
864.3447, 22.70226
864.8268, 24.04098
865.3090, 25.00849
865.7911, 26.15695
866.2732, 27.50794
866.7553, 29.06468
867.2374, 30.42143
867.7195, 32.69135
868.2017, 37.07218
868.6838, 42.50413
869.1659, 47.21021
869.6480, 50.51308
870.1301, 54.22450
870.6122, 58.74448
871.0944, 63.37851
871.5765, 66.84447
872.0586, 69.40427
872.5407, 72.69681
873.0228, 77.11889
873.5049, 81.52605
873.9871, 85.63875
874.4692, 89.07720
874.9513, 91.20053
875.4334, 91.22948
875.9155, 91.07928
876.3976, 91.64347
876.8798, 91.41402
877.3619, 88.85533
877.8440, 83.90581
878.3261, 79.57590
878.8082, 75.96731
879.2903, 72.33254
879.7725, 67.77938
880.2546, 62.93639
880.7367, 58.64604
881.2188, 54.99615
881.7009, 51.24712
882.1830, 46.72374
882.6652, 42.44402
883.1473, 38.97619
883.6294, 36.25846
884.1115, 33.38089
884.5936, 30.26908
885.0757, 27.48989
885.5579, 25.47889
886.0400, 23.92833
886.5221, 22.53761
887.0042, 21.23306
887.4863, 19.67770
887.9684, 17.13232
888.4506, 14.91105
888.9327, 13.71682
889.4148, 13.29612
889.8969, 12.80567
890.3790, 12.15792
890.8611, 11.83238
891.3433, 12.19929
891.8254, 12.58472
892.3075, 11.39173
892.7896, 9.130051
893.2717, 7.332787
893.7538, 6.648109
894.2360, 6.374458
894.7181, 6.428413
895.2002, 6.548164
895.6823, 6.325035
896.1644, 5.560234
896.6465, 4.991440
897.1287, 4.691620
897.6108, 4.512718
898.0929, 4.248833
898.5750, 3.943504
899.0571, 3.791344
899.5392, 3.828888
900.0214, 3.920944
900.5035, 4.066116
900.9856, 4.160744
901.4677, 4.044106
901.9498, 3.520958
902.4319, 3.548553
902.9141, 4.593094
903.3962, 5.364998
903.8783, 4.787216
904.3604, 3.100266
904.8425, 2.183807
905.3246, 1.999786
905.8068, 2.052521
906.2889, 2.149361
906.7710, 2.236168
907.2531, 2.290489
907.7352, 2.300064
908.2173, 2.187866
908.6995, 1.747681
909.1816, 1.528160
909.6637, 1.851120
910.1458, 2.409439
910.6279, 2.020950
911.1100, 0.8201830
911.5922, 7.4386999E-02
912.0743, 0.5954590
912.5564, 1.271019
913.0385, 1.052505
913.5206, 0.2501220
914.0027, 0.6092530
914.4849, 2.362045
914.9670, 2.653427
915.4491, 0.4383540
915.9312, 2.289528
916.4133, 2.694473
916.8954, 0.9259340
917.3776, 0.1540450
917.8597, 0.1358110
918.3418, 0.1765750
918.8239, 5.4839998E-02
919.3060, 0.1995160
919.7881, 0.2612000
920.2703, 5.9990000E-02
920.7524, 0.2573550
921.2345, 0.8855210
921.7166, 1.333946
922.1987, 1.215111
922.6808, 0.5802840
923.1630, 0.5393600
923.6451, 1.088013
924.1272, 1.401459
924.6093, 0.6042180
925.0914, 0.4465710
925.5735, 0.9149020
926.0557, 0.8596340
926.5378, 0.6885990
927.0199, 0.2023390
927.5020, 6.5839998E-03
927.9841, 0.3342670
928.4662, 0.9726560
928.9484, 1.478943
929.4305, 1.842773
929.9126, 1.691063
930.3947, 0.5750960
930.8768, 0.3268660
931.3589, 0.9097670
931.8411, 2.957321
932.3232, 3.847641
932.8053, 2.164032
933.2874, 0.7958530
933.7695, 7.6080002E-02
934.2516, 0.5017240
934.7338, 0.3434070
935.2159, 0.3672100
935.6980, 0.6794820
936.1801, 0.5268330
936.6622, 0.1857450
937.1443, 0.1527940
937.6265, 0.5364530
938.1086, 1.064354
938.5907, 1.752220
939.0728, 2.256432
939.5549, 2.617455
940.0370, 2.616661
940.5192, 1.939247
941.0013, 0.8638990
941.4834, 0.7831800
941.9655, 1.621971
942.4476, 2.591980
942.9297, 3.518951
943.4119, 4.191597
943.8940, 4.345490
944.3761, 4.123611
944.8582, 3.811005
945.3403, 3.108871
945.8224, 2.888039
946.3046, 3.355675
946.7867, 4.164268
947.2688, 4.841270
947.7509, 5.411888
948.2330, 5.999100
948.7151, 6.619682
949.1973, 7.268425
949.6794, 7.874046
950.1615, 8.546906
950.6436, 9.418098
951.1257, 10.54953
951.6078, 11.66579
952.0900, 12.98358
952.5721, 13.80666
953.0542, 13.25338
953.5363, 11.92261
954.0184, 12.69073
954.5005, 15.23357
954.9827, 17.58964
955.4648, 18.41200
955.9469, 18.94039
956.4290, 19.89142
956.9111, 21.14942
957.3932, 22.22516
957.8754, 22.79873
958.3575, 24.09998
958.8396, 26.60429
959.3217, 29.35651
959.8038, 30.41818
960.2859, 30.49651
960.7681, 31.51412
961.2502, 34.07368
961.7323, 36.95852
962.2144, 39.55182
962.6965, 42.14153
963.1786, 44.99858
963.6608, 48.15507
964.1429, 51.17825
964.6250, 53.94684
965.1071, 57.01555
965.5892, 60.94498
966.0714, 65.34783
966.5535, 69.37584
967.0356, 73.20741
967.5177, 77.97591
967.9998, 84.23535
968.4819, 91.50263
968.9641, 100.1780
969.4462, 109.5727
969.9283, 118.0389
970.4104, 125.3951
970.8925, 133.7557
971.3746, 143.7802
971.8568, 154.5911
972.3389, 165.3414
972.8210, 176.2814
973.3031, 187.9568
973.7852, 200.7044
974.2673, 213.1251
974.7495, 225.2890
975.2316, 236.8425
975.7137, 247.4872
976.1958, 257.3249
976.6779, 267.0133
977.1600, 276.5869
977.6422, 286.7356
978.1243, 296.8258
978.6064, 308.8985
979.0885, 324.8000
979.5706, 344.2610
980.0527, 366.3641
980.5349, 389.5619
981.0170, 417.5497
981.4991, 451.6023
981.9812, 490.4499
982.4633, 531.2209
982.9454, 574.4597
983.4276, 623.0963
983.9097, 679.7868
984.3918, 737.6672
984.8739, 795.1680
985.3560, 850.5015
985.8381, 902.9952
986.3203, 955.6803
986.8024, 994.8129
987.2845, 1021.619
987.7666, 1030.781
988.2487, 1015.585
988.7308, 981.0228
989.2130, 934.7975
989.6951, 878.5547
990.1772, 818.0275
990.6593, 750.2684
991.1414, 685.3900
991.6235, 627.1991
992.1057, 574.4907
992.5878, 523.9387
993.0699, 475.1964
993.5520, 430.2453
994.0341, 389.1233
994.5162, 352.3409
994.9984, 321.5380
995.4805, 294.8169
995.9626, 269.5833
996.4447, 245.0633
996.9268, 222.6499
997.4089, 202.9528
997.8911, 185.0486
998.3732, 168.3075
998.8553, 152.9307
999.3374, 139.3261
999.8195, 127.4929
1000.302, 116.8470
1000.784, 107.4829
1001.266, 98.65100
1001.748, 89.32137
1002.230, 80.06180
1002.712, 72.57207
1003.194, 67.61858
1003.676, 62.54358
1004.159, 56.86834
1004.641, 51.22777
1005.123, 46.32738
1005.605, 42.06323
1006.087, 38.16074
1006.569, 34.52568
1007.051, 31.30948
1007.533, 28.40071
1008.016, 26.05610
1008.498, 24.50043
1008.980, 23.67650
1009.462, 22.56023
1009.944, 21.14152
1010.426, 19.42017
1010.908, 17.15046
1011.390, 14.89492
1011.872, 13.26672
1012.355, 12.15949
1012.837, 11.34332
1013.319, 11.43830
1013.801, 10.74495
1014.283, 8.710060
1014.765, 6.484428
1015.247, 5.385361
1015.729, 5.225769
1016.211, 5.058517
1016.694, 4.807243
1017.176, 4.514137
1017.658, 4.126389
1018.140, 3.778824
1018.622, 3.529900
1019.104, 3.395561
1019.586, 3.526688
1020.068, 4.059479
1020.551, 4.216644
1021.033, 3.536781
1021.515, 2.747498
1021.997, 3.525970
1022.479, 4.968224
1022.961, 5.136055
1023.443, 2.161148
1023.925, 0.7994160
1024.407, 3.422661
1024.890, 6.847496
1025.372, 8.830719
1025.854, 9.360901
1026.336, 10.02665
1026.818, 10.83717
1027.300, 11.86840
1027.782, 12.92011
1028.264, 14.44651
1028.746, 16.86874
1029.229, 20.09842
1029.711, 23.78017
1030.193, 28.06995
1030.675, 32.21980
1031.157, 35.87950
1031.639, 39.88585
1032.121, 45.60028
1032.603, 52.67880
1033.086, 60.18265
1033.568, 68.04351
1034.050, 76.21815
1034.532, 84.43349
1035.014, 93.17470
1035.496, 103.3642
1035.978, 114.5325
1036.460, 122.5856
1036.943, 127.4112
1037.425, 129.5495
1037.907, 129.0197
1038.389, 126.1202
1038.871, 120.6529
1039.353, 113.1396
1039.835, 104.4941
1040.317, 94.16785
1040.799, 83.99651
1041.281, 73.80183
1041.764, 64.06405
1042.246, 54.92018
1042.728, 46.59652
1043.210, 40.17990
1043.692, 35.55417
1044.174, 31.52792
1044.656, 27.71667
1045.138, 24.05860
1045.621, 20.36174
1046.103, 16.87534
1046.585, 14.42223
1047.067, 13.03470
1047.549, 11.47102
1048.031, 9.333466
1048.513, 7.328026
1048.995, 6.625908
1049.478, 6.242432
1049.960, 4.979591
1050.442, 2.323944
1050.924, 3.7209000E-02
1051.406, 2.230255
1051.888, 3.301544
1052.370, 1.924393
1052.852, 0.7827220
1053.334, 2.258865
1053.817, 2.605293
1054.299, 2.088058
1054.781, 1.006165
1055.263, 2.762871
1055.745, 1.275009
1056.227, 1.483658
1056.709, 3.606766
1057.191, 5.171844
1057.673, 6.132668
1058.156, 6.391319
1058.638, 6.786972
1059.120, 8.221336
1059.602, 9.888283
1060.084, 11.03053
1060.566, 11.78398
1061.048, 13.28489
1061.530, 15.80431
1062.013, 18.40678
1062.495, 20.92773
1062.977, 23.28274
1063.459, 24.91032
1063.941, 26.45822
1064.423, 29.51379
1064.905, 35.09270
1065.387, 39.65695
1065.870, 40.76871
1066.352, 41.94172
1066.834, 45.14345
1067.316, 50.03488
1067.798, 54.08614
1068.280, 57.43990
1068.762, 61.19408
1069.244, 66.16213
1069.726, 71.54173
1070.208, 76.71745
1070.691, 81.93914
1071.173, 87.54900
1071.655, 93.87418
1072.137, 99.84444
1072.619, 105.7092
1073.101, 109.8524
1073.583, 110.4942
1074.065, 108.7352
1074.548, 105.8611
1075.030, 101.9552
1075.512, 96.73428
1075.994, 89.42295
1076.476, 81.84623
1076.958, 74.28233
1077.440, 66.84106
1077.922, 59.58156
1078.405, 52.61522
1078.887, 46.31892
1079.369, 40.71642
1079.851, 35.74605
1080.333, 31.58661
1080.815, 27.85005
1081.297, 24.24615
1081.779, 20.81643
1082.261, 18.32625
1082.744, 16.74812
1083.226, 15.33006
1083.708, 13.78284
1084.190, 12.18396
1084.672, 10.54352
1085.154, 8.920547
1085.636, 7.380470
1086.118, 5.693192
1086.601, 4.676598
1087.083, 4.408371
1087.565, 4.534286
1088.047, 4.968857
1088.529, 5.512726
1089.011, 5.845718
1089.493, 5.977165
1089.975, 5.981255
1090.458, 5.411430
1090.940, 5.421310
1091.422, 6.472473
1091.904, 7.843483
1092.386, 8.119209
1092.868, 7.717949
1093.350, 8.724983
1093.832, 11.44174
1094.314, 13.97348
1094.797, 14.85760
1095.279, 15.47797
1095.761, 16.50300
1096.243, 17.93700
1096.725, 20.13443
1097.207, 23.12448
1097.689, 25.44028
1098.171, 26.57681
1098.653, 27.09405
1099.136, 27.79318
1099.618, 28.06517
1100.100, 27.07338
1100.582, 24.41782
1101.064, 21.94154
1101.546, 19.63143
1102.028, 17.53952
1102.510, 15.86658
1102.993, 14.24219
1103.475, 11.58977
1103.957, 8.499069
1104.439, 6.323814
1104.921, 6.749596
1105.403, 6.290375
1105.885, 4.170364
1106.367, 1.891640
1106.849, 1.121986
1107.332, 1.415680
1107.814, 0.8569490
1108.296, 0.4978560
1108.778, 1.619041
1109.260, 1.932068
1109.742, 2.010040
1110.224, 1.808327
1110.706, 1.573837
1111.188, 1.854568
1111.671, 2.624763
1112.153, 3.052650
1112.635, 3.044098
1113.117, 2.742470
1113.599, 1.556458
1114.081, 0.4970400
1114.563, 0.7118380
1115.045, 1.995949
1115.528, 2.456894
1116.010, 2.028191
1116.492, 1.132156
1116.974, 0.2579800
1117.456, 1.659637
1117.938, 2.676666
1118.420, 3.227875
1118.902, 3.012749
1119.385, 1.576508
1119.867, 1.221786
1120.349, 2.339104
1120.831, 3.682976
1121.313, 4.746620
1121.795, 5.492996
1122.277, 5.476631
1122.759, 5.135712
1123.241, 5.548828
1123.724, 8.024681
1124.206, 9.679573
1124.688, 9.715393
1125.170, 9.442230
1125.652, 9.974396
1126.134, 11.13208
1126.616, 11.88467
1127.098, 12.33508
1127.580, 13.08105
1128.063, 14.76537
1128.545, 16.47359
1129.027, 17.77959
1129.509, 18.93547
1129.991, 20.07348
1130.473, 21.21993
1130.955, 23.00027
1131.437, 25.49835
1131.920, 27.50722
1132.402, 27.92458
1132.884, 27.77679
1133.366, 27.67198
1133.848, 27.59714
1134.330, 27.31030
1134.812, 26.72874
1135.294, 26.77264
1135.776, 27.78931
1136.259, 28.70741
1136.741, 28.06653
1137.223, 26.97654
1137.705, 26.62650
1138.187, 27.22874
1138.669, 27.51818
1139.151, 27.08017
1139.633, 27.96487
1140.115, 31.43652
1140.598, 35.44702
1141.080, 36.39778
1141.562, 36.05980
1142.044, 37.29097
1142.526, 41.08917
1143.008, 45.21832
1143.490, 49.84315
1143.972, 53.89578
1144.455, 56.19193
1144.937, 58.05832
1145.419, 63.09277
1145.901, 70.06186
1146.383, 75.99717
1146.865, 78.87369
1147.347, 82.39351
1147.829, 87.23548
1148.312, 92.77009
1148.794, 98.93273
1149.276, 105.4475
1149.758, 110.6503
1150.240, 114.6132
1150.722, 117.8972
1151.204, 121.5178
1151.686, 123.6750
1152.168, 123.4966
1152.651, 121.8631
1153.133, 119.8026
1153.615, 117.2360
1154.097, 112.7892
1154.579, 106.4956
1155.061, 100.1195
1155.543, 95.16238
1156.025, 90.09124
1156.507, 83.33163
1156.990, 76.11262
1157.472, 71.24170
1157.954, 68.73785
1158.436, 65.27743
1158.918, 60.32005
1159.400, 55.16224
1159.882, 50.39203
1160.364, 46.23036
1160.847, 43.15957
1161.329, 40.91682
1161.811, 38.22101
1162.293, 35.04544
1162.775, 31.82558
1163.257, 28.50869
1163.739, 25.80847
1164.221, 25.04563
1164.703, 24.80922
1165.186, 23.53522
1165.668, 21.03709
1166.150, 19.08023
1166.632, 17.72272
1167.114, 16.79009
1167.596, 16.36005
1168.078, 16.03591
1168.560, 15.29715
1169.042, 14.31911
1169.525, 13.35771
1170.007, 12.51302
1170.489, 11.60149
1170.971, 10.61105
1171.453, 9.744453
1171.935, 9.105591
1172.417, 8.487419
1172.899, 7.348839
1173.382, 6.135925
1173.864, 5.686310
1174.346, 6.954742
1174.828, 7.486618
1175.310, 6.948029
1175.792, 6.314903
1176.274, 6.533821
1176.756, 7.027832
1177.239, 6.497719
1177.721, 5.310799
1178.203, 4.457520
1178.685, 4.505157
1179.167, 4.532730
1179.649, 4.495712
1180.131, 4.408211
1180.613, 4.183723
1181.095, 3.958450
1181.578, 4.184265
1182.060, 4.732178
1182.542, 4.997070
1183.024, 4.833946
1183.506, 4.108803
1183.988, 2.373230
1184.470, 0.8739090
1184.952, 1.760399
1185.434, 3.856361
1185.917, 3.783081
1186.399, 1.619904
1186.881, 0.1045460
1187.363, 1.146515
1187.845, 1.886879
1188.327, 1.432861
1188.809, 0.7615590
1189.291, 1.744362
1189.774, 3.698631
1190.256, 4.493019
1190.738, 3.895607
1191.220, 3.031563
1191.702, 2.104752
1192.184, 1.355911
1192.666, 0.8923190
1193.148, 0.6032940
1193.630, 0.1465300
1194.113, 0.3234560
1194.595, 0.2065960
1195.077, 0.6445310
1195.559, 1.530212
1196.041, 2.430679
1196.523, 2.884476
1197.005, 2.560684
1197.487, 1.813934
1197.969, 1.625519
1198.452, 1.838821
1198.934, 1.796539
1199.416, 1.215240
1199.898, 1.078583
1200.380, 2.904510
1200.862, 4.049011
1201.344, 2.956642
1201.826, 0.3928150
1202.309, 1.133308
1202.791, 1.659775
1203.273, 1.172844
1203.755, 0.8025050
1204.237, 2.247986
1204.719, 1.801300
1205.201, 0.9724880
1205.683, 0.5576250
1206.166, 0.4544070
1206.648, 1.4809000E-02
1207.130, 0.6003880
1207.612, 0.6966320
1208.094, 0.2060550
1208.576, 1.170570
1209.058, 1.899300
1209.540, 2.430580
1210.022, 2.683441
1210.505, 2.747292
1210.987, 3.458908
1211.469, 4.575111
1211.951, 4.879021
1212.433, 3.301979
1212.915, 1.684090
1213.397, 0.4035800
1213.879, 0.3169630
1214.361, 6.3469000E-02
1214.844, 0.9858020
1215.326, 1.621315
1215.808, 1.888763
1216.290, 2.004623
1216.772, 1.937386
1217.254, 1.914909
1217.736, 2.068726
1218.218, 2.225426
1218.701, 2.124466
1219.183, 1.865822
1219.665, 2.298691
1220.147, 3.272881
1220.629, 3.956223
1221.111, 3.578354
1221.593, 3.365555
1222.075, 3.956528
1222.557, 4.503952
1223.040, 3.969849
1223.522, 2.630928
1224.004, 1.590134
1224.486, 0.9541400
1224.968, 1.120361
1225.450, 3.413971
1225.932, 4.977913
1226.414, 4.980782
1226.896, 4.286652
1227.379, 3.566315
1227.861, 3.049789
1228.343, 3.646324
1228.825, 5.214874
1229.307, 6.255264
1229.789, 5.821350
1230.271, 5.064613
1230.753, 4.067009
1231.236, 3.207375
1231.718, 2.914520
1232.200, 3.087471
1232.682, 3.631744
1233.164, 4.432983
1233.646, 4.683670
1234.128, 2.873100
1234.610, 2.219505
1235.093, 3.846413
1235.575, 5.939880
1236.057, 5.717995
1236.539, 4.201164
1237.021, 3.683907
1237.503, 4.266846
1237.985, 4.887535
1238.467, 5.186584
1238.949, 5.501274
1239.432, 5.866730
1239.914, 6.321678
1240.396, 7.497963
1240.878, 8.549759
1241.360, 7.195213
1241.842, 3.517868
1242.324, 1.734627
1242.806, 3.847290
1243.288, 5.395180
1243.771, 5.541168
1244.253, 4.924850
1244.735, 4.053963
1245.217, 3.334335
1245.699, 3.780136
1246.181, 5.346878
1246.663, 5.929245
1247.145, 4.843300
1247.628, 4.268768
1248.110, 4.880699
1248.592, 5.820740
1249.074, 6.092140
1249.556, 5.839470
1250.038, 5.081497
1250.520, 3.868118
1251.002, 3.090576
1251.484, 2.807304
1251.967, 2.307716
1252.449, 1.842018
1252.931, 1.712402
1253.413, 2.581703
1253.895, 3.444191
1254.377, 2.868057
1254.859, 1.218246
1255.341, 0.6941300
1255.823, 1.401993
1256.306, 2.138557
1256.788, 2.679565
1257.270, 2.847656
1257.752, 2.232162
1258.234, 1.467644
1258.716, 0.8524550
1259.198, 0.3776400
1259.680, 4.3288998E-02
1260.163, 0.4167250
1260.645, 0.3770290
1261.127, 0.2270740
1261.609, 0.7672200
1262.091, 0.5227280
1262.573, 0.2822570
1263.055, 0.7281110
1263.537, 1.607033
1264.020, 1.797356
1264.502, 1.380600
1264.984, 0.8677140
1265.466, 0.3136980
1265.948, 0.1330030
1266.430, 0.9275280
1266.912, 1.793839
1267.394, 2.398308
1267.876, 2.654716
1268.359, 2.038162
1268.841, 0.8845830
1269.323, 0.6192170
1269.805, 1.695541
1270.287, 2.348633
1270.769, 1.342087
1271.251, 0.3566060
1271.733, 0.1516420
1272.215, 0.1837540
1272.698, 0.5240330
1273.180, 1.603073
1273.662, 2.171616
1274.144, 2.032257
1274.626, 1.826813
1275.108, 1.519531
1275.590, 1.541451
1276.072, 2.155853
1276.555, 2.924667
1277.037, 3.148026
1277.519, 3.012505
1278.001, 2.687210
1278.483, 2.169075
1278.965, 2.014015
1279.447, 2.417526
1279.929, 2.327209
1280.411, 1.171638
1280.894, 2.6938999E-02
1281.376, 0.5774690
1281.858, 1.840393
1282.340, 2.684464
1282.822, 3.011093
1283.304, 3.432281
1283.786, 4.063660
1284.268, 3.620468
1284.750, 1.289474
1285.233, 0.5397340
1285.715, 1.382462
1286.197, 3.970078
1286.679, 4.768951
1287.161, 4.215134
1287.643, 2.782486
1288.125, 0.5777440
1288.607, 0.3451080
1289.090, 0.7166900
1289.572, 1.716248
1290.054, 1.148773
1290.536, 0.3925480
1291.018, 5.1392000E-02
1291.500, 2.2659000E-02
1291.982, 1.185745
1292.464, 2.977341
1292.947, 3.714325
1293.429, 2.618011
1293.911, 1.973267
1294.393, 2.023117
1294.875, 1.927551
1295.357, 2.393616
1295.839, 2.832977
1296.321, 2.717392
1296.803, 2.786728
1297.286, 2.480560
1297.768, 1.709244
1298.250, 1.187592
1298.732, 1.137787
1299.214, 0.9931490
1299.696, 0.5493160
1300.178, 0.1001740
1300.660, 0.0000000E+00
##END=



