##NAMES=Ehrleite
##RRUFFID=R180029
##IDEAL CHEMISTRY=Ca_2_Zn^2+^Be(PO_4_)_2_(PO_3_OH)&#183;4H_2_O
##LOCALITY=Tip Top mine, Custer District, Custer Co., South Dakota, USA
##OWNER=RRUFF
##SOURCE=Tom Loomis
##DESCRIPTION=Colorless thick tabular crystals, twinned by a 2-fold parallel to (001)
##STATUS=The identification of this mineral has been confirmed only by single crystal X-ray diffraction.
##URL=rruff.info/R180029
93.36743, 0.0000000E+00
93.84955, 3.274475
94.33167, 5.425354
94.81378, 4.061584
95.29590, 4.034760
95.77802, 6.782104
96.26013, 7.581604
96.74225, 5.645264
97.22437, 2.496368
97.70648, 3.7567001E-02
98.18860, 0.5313720
98.67072, 0.6867680
99.15283, 3.644348
99.63495, 8.223022
100.1171, 14.35687
100.5992, 21.86786
101.0813, 30.40256
101.5634, 41.58966
102.0455, 55.41605
102.5277, 70.46664
103.0098, 86.16656
103.4919, 102.2577
103.9740, 118.1107
104.4561, 131.4871
104.9382, 142.7504
105.4204, 151.0841
105.9025, 152.7330
106.3846, 152.5110
106.8667, 157.9038
107.3488, 172.6373
107.8309, 197.2968
108.3131, 230.9045
108.7952, 276.7990
109.2773, 325.2527
109.7594, 374.6561
110.2415, 424.8322
110.7236, 462.9514
111.2058, 476.3067
111.6879, 467.3934
112.1700, 443.3127
112.6521, 396.1987
113.1342, 337.2269
113.6163, 283.5297
114.0985, 235.6059
114.5806, 194.4984
115.0627, 159.8969
115.5448, 131.4178
116.0269, 108.4486
116.5090, 92.68890
116.9912, 84.00650
117.4733, 74.23087
117.9554, 61.65961
118.4375, 49.15283
118.9196, 37.25845
119.4017, 26.29089
119.8839, 17.11758
120.3660, 10.34607
120.8481, 6.488129
121.3302, 3.428909
121.8123, 0.9508820
122.2944, 1.068375
122.7766, 2.566101
123.2587, 3.397766
123.7408, 3.722076
124.2229, 3.887115
124.7050, 4.410477
125.1871, 4.009628
125.6693, 1.807999
126.1514, 1.108246
126.6335, 3.151016
127.1156, 3.484665
127.5977, 2.971939
128.0798, 4.259247
128.5620, 7.601364
129.0441, 11.72865
129.5262, 15.48460
130.0083, 19.49509
130.4904, 25.77325
130.9725, 35.43201
131.4547, 48.25426
131.9368, 62.90508
132.4189, 79.57599
132.9010, 97.71104
133.3831, 117.2951
133.8652, 138.6602
134.3474, 159.4934
134.8295, 179.4674
135.3116, 197.9862
135.7937, 214.2856
136.2758, 228.1930
136.7579, 239.6309
137.2401, 248.2898
137.7222, 254.0287
138.2043, 256.6813
138.6864, 255.4565
139.1685, 251.8217
139.6507, 248.0486
140.1328, 246.0045
140.6149, 245.5244
141.0970, 241.8494
141.5791, 236.5115
142.0612, 225.8435
142.5434, 206.5935
143.0255, 180.6800
143.5076, 152.5057
143.9897, 125.6678
144.4718, 99.81754
144.9539, 78.58240
145.4361, 61.84666
145.9182, 48.54036
146.4003, 38.55324
146.8824, 31.66269
147.3645, 27.06433
147.8466, 23.88943
148.3288, 22.25172
148.8109, 22.52986
149.2930, 25.37920
149.7751, 29.80315
150.2572, 35.08862
150.7393, 41.21552
151.2215, 48.69635
151.7036, 55.14786
152.1857, 60.64439
152.6678, 65.81371
153.1499, 70.48088
153.6320, 74.94496
154.1142, 79.88754
154.5963, 85.31619
155.0784, 91.60953
155.5605, 99.40826
156.0426, 108.6822
156.5247, 117.7269
157.0069, 126.0834
157.4890, 133.7141
157.9711, 138.2745
158.4532, 137.5173
158.9353, 134.4856
159.4174, 130.5889
159.8996, 126.0545
160.3817, 121.5417
160.8638, 117.8954
161.3459, 115.4452
161.8280, 112.7801
162.3102, 110.5432
162.7923, 107.5632
163.2744, 103.1376
163.7565, 97.01196
164.2386, 89.34708
164.7207, 79.97557
165.2029, 66.55211
165.6850, 55.46132
166.1671, 47.82071
166.6492, 42.12355
167.1313, 36.91402
167.6134, 31.63066
168.0956, 26.66612
168.5777, 23.17628
169.0598, 22.60132
169.5419, 21.97168
170.0240, 20.70068
170.5061, 19.32979
170.9883, 18.53653
171.4704, 18.62743
171.9525, 19.61627
172.4346, 21.72246
172.9167, 25.51451
173.3988, 29.51627
173.8810, 33.41701
174.3631, 37.20735
174.8452, 40.91446
175.3273, 44.65227
175.8094, 48.14603
176.2915, 50.73752
176.7737, 52.44330
177.2558, 53.32732
177.7379, 53.28729
178.2200, 52.35585
178.7021, 50.90758
179.1842, 48.49767
179.6664, 45.93553
180.1485, 44.78127
180.6306, 46.07483
181.1127, 47.98668
181.5948, 48.67957
182.0769, 48.10425
182.5591, 46.61554
183.0412, 44.09482
183.5233, 41.02968
184.0054, 37.74117
184.4875, 34.31084
184.9696, 30.47491
185.4518, 25.60739
185.9339, 19.04257
186.4160, 13.16393
186.8981, 8.738037
187.3802, 5.377823
187.8623, 2.666954
188.3445, 0.4111100
188.8266, 1.266556
189.3087, 1.825066
189.7908, 0.4879150
190.2729, 0.9342420
190.7550, 1.594986
191.2372, 2.126045
191.7193, 3.372292
192.2014, 5.854240
192.6835, 9.452431
193.1656, 13.35531
193.6477, 18.71650
194.1299, 23.15614
194.6120, 25.72800
195.0941, 27.15053
195.5762, 28.64077
196.0583, 31.06979
196.5404, 34.33703
197.0226, 36.59245
197.5047, 37.67992
197.9868, 38.01729
198.4689, 37.48015
198.9510, 36.24271
199.4331, 34.68069
199.9153, 33.07724
200.3974, 31.40836
200.8795, 28.97751
201.3616, 25.34798
201.8437, 21.56520
202.3258, 17.82021
202.8080, 14.24232
203.2901, 11.10802
203.7722, 8.502136
204.2543, 6.511444
204.7364, 5.065865
205.2185, 4.356606
205.7007, 4.000740
206.1828, 3.987442
206.6649, 4.255417
207.1470, 4.338730
207.6291, 3.883804
208.1112, 2.943489
208.5934, 1.959633
209.0755, 0.7022860
209.5576, 0.4311290
210.0397, 1.151802
210.5218, 1.481567
211.0039, 1.385963
211.4861, 0.7090910
211.9682, 0.4267880
212.4503, 1.770615
212.9324, 3.141869
213.4145, 4.800560
213.8967, 7.116707
214.3788, 10.18475
214.8609, 13.56123
215.3430, 16.92307
215.8251, 20.48618
216.3072, 24.55824
216.7894, 29.20363
217.2715, 34.43368
217.7536, 40.56470
218.2357, 48.07453
218.7178, 55.26775
219.1999, 62.10851
219.6821, 68.15877
220.1642, 72.68864
220.6463, 75.23888
221.1284, 75.97122
221.6105, 75.29207
222.0926, 72.40668
222.5748, 69.84466
223.0569, 67.84679
223.5390, 66.67435
224.0211, 66.78358
224.5032, 68.50584
224.9853, 71.39330
225.4675, 74.29442
225.9496, 77.25935
226.4317, 80.13639
226.9138, 83.28677
227.3959, 86.21391
227.8780, 88.36413
228.3602, 89.46287
228.8423, 89.66326
229.3244, 89.48768
229.8065, 89.22386
230.2886, 88.07070
230.7707, 85.72609
231.2529, 82.58781
231.7350, 79.07927
232.2171, 75.40242
232.6992, 71.48611
233.1813, 67.10062
233.6634, 61.45700
234.1456, 56.23099
234.6277, 51.70313
235.1098, 47.57607
235.5919, 43.38054
236.0740, 38.89803
236.5561, 34.46964
237.0383, 31.11579
237.5204, 29.45826
238.0025, 28.29041
238.4846, 27.97801
238.9667, 28.00616
239.4488, 27.68796
239.9310, 26.72134
240.4131, 25.43902
240.8952, 24.68329
241.3773, 24.95859
241.8594, 25.05126
242.3415, 24.55784
242.8237, 23.90947
243.3058, 23.84781
243.7879, 24.69783
244.2700, 25.75870
244.7521, 25.38297
245.2342, 22.46124
245.7164, 20.39050
246.1985, 20.39374
246.6806, 21.29088
247.1627, 21.42354
247.6448, 20.27735
248.1269, 18.66580
248.6091, 18.12038
249.0912, 18.86723
249.5733, 19.63967
250.0554, 20.03886
250.5375, 20.37390
251.0196, 21.11614
251.5018, 22.41518
251.9839, 24.05440
252.4660, 25.91098
252.9481, 28.06543
253.4302, 29.70036
253.9123, 30.59160
254.3945, 30.85799
254.8766, 30.56091
255.3587, 29.61850
255.8408, 28.43494
256.3229, 27.70833
256.8051, 27.36018
257.2872, 26.27746
257.7693, 23.58496
258.2514, 20.11281
258.7335, 17.20895
259.2156, 15.14077
259.6978, 13.33766
260.1799, 11.13246
260.6620, 8.679863
261.1441, 6.673615
261.6262, 5.598404
262.1083, 5.011932
262.5905, 4.101631
263.0726, 2.683159
263.5547, 1.465218
264.0368, 1.234421
264.5189, 1.623253
265.0010, 1.957481
265.4832, 2.009697
265.9653, 1.885010
266.4474, 1.665825
266.9295, 1.270439
267.4116, 1.075012
267.8937, 1.584740
268.3759, 2.399521
268.8580, 2.997147
269.3401, 3.292549
269.8222, 3.255409
270.3043, 2.706810
270.7864, 1.503143
271.2686, 0.3837510
271.7507, 0.1954650
272.2328, 0.5255130
272.7149, 0.8992770
273.1970, 1.426376
273.6791, 1.963646
274.1613, 2.224167
274.6434, 2.104881
275.1255, 2.258636
275.6076, 3.032265
276.0897, 4.151611
276.5718, 5.691200
277.0540, 7.798149
277.5361, 9.513893
278.0182, 9.490295
278.5003, 7.468063
278.9824, 5.499329
279.4645, 4.255798
279.9467, 3.143127
280.4288, 1.821678
280.9109, 0.2346730
281.3930, 1.559952
281.8751, 3.581886
282.3572, 5.855537
282.8394, 8.002937
283.3215, 9.478622
283.8036, 11.22195
284.2857, 13.97179
284.7678, 17.63097
285.2499, 21.39203
285.7321, 24.58228
286.2142, 27.18227
286.6963, 29.49054
287.1784, 31.44949
287.6605, 33.12973
288.1426, 34.36741
288.6248, 35.31992
289.1069, 36.45796
289.5890, 38.53922
290.0711, 41.38710
290.5532, 42.54668
291.0353, 40.78431
291.5175, 38.73202
291.9996, 37.50069
292.4817, 36.75261
292.9638, 35.76786
293.4459, 33.98896
293.9280, 31.66802
294.4102, 30.06818
294.8923, 29.89646
295.3744, 29.32771
295.8565, 27.62334
296.3386, 25.31315
296.8207, 23.05895
297.3029, 21.17764
297.7850, 19.55562
298.2671, 17.88579
298.7492, 15.97910
299.2313, 14.43485
299.7134, 13.38624
300.1956, 12.69940
300.6777, 12.38602
301.1598, 12.45548
301.6419, 12.58539
302.1240, 12.14056
302.6061, 10.79926
303.0883, 9.796730
303.5704, 9.204750
304.0525, 9.049751
304.5346, 9.367790
305.0167, 10.16711
305.4988, 11.44293
305.9810, 13.48729
306.4631, 16.68998
306.9452, 18.82565
307.4273, 18.63110
307.9094, 18.20639
308.3915, 18.26172
308.8737, 18.94453
309.3558, 20.28475
309.8379, 22.48170
310.3200, 25.59935
310.8021, 28.42688
311.2842, 30.89040
311.7664, 33.10814
312.2485, 35.20758
312.7306, 37.09307
313.2127, 38.55473
313.6948, 39.34456
314.1769, 39.59274
314.6591, 40.17622
315.1412, 41.85264
315.6233, 42.75716
316.1054, 42.12080
316.5875, 40.55547
317.0696, 38.82320
317.5518, 37.26038
318.0339, 35.81841
318.5160, 34.43220
318.9981, 33.21849
319.4802, 31.82440
319.9623, 29.93456
320.4445, 27.98280
320.9266, 26.31499
321.4087, 25.03528
321.8908, 24.14653
322.3729, 23.86480
322.8550, 24.57636
323.3372, 24.51001
323.8193, 22.35578
324.3014, 20.15327
324.7835, 19.21906
325.2656, 19.61235
325.7477, 20.32017
326.2299, 20.42597
326.7120, 19.91094
327.1941, 18.92533
327.6762, 16.90135
328.1583, 14.91910
328.6404, 13.41000
329.1226, 12.32301
329.6047, 11.40450
330.0868, 10.48678
330.5689, 9.594360
331.0510, 8.900734
331.5331, 8.396484
332.0153, 8.150421
332.4974, 8.364273
332.9795, 8.773567
333.4616, 8.996536
333.9437, 8.851517
334.4258, 8.379700
334.9080, 7.579041
335.3901, 6.201889
335.8722, 5.325516
336.3543, 6.049126
336.8365, 7.116547
337.3186, 7.243988
337.8007, 6.039711
338.2828, 4.573921
338.7649, 4.225060
339.2470, 5.094559
339.7292, 5.916779
340.2113, 6.272675
340.6934, 6.649376
341.1755, 7.523697
341.6576, 8.842529
342.1397, 9.947594
342.6219, 9.972374
343.1040, 9.077477
343.5861, 9.013908
344.0682, 10.12707
344.5503, 11.83546
345.0324, 13.95998
345.5146, 16.33442
345.9967, 18.53402
346.4788, 20.10312
346.9609, 21.41156
347.4430, 23.29485
347.9251, 25.73167
348.4073, 28.83223
348.8894, 33.10762
349.3715, 37.93057
349.8536, 42.62155
350.3357, 46.98589
350.8178, 51.19499
351.3000, 55.38002
351.7821, 59.52971
352.2642, 63.86089
352.7463, 68.13779
353.2284, 72.95087
353.7105, 79.08993
354.1927, 86.72581
354.6748, 94.38021
355.1569, 100.8752
355.6390, 106.4970
356.1211, 112.6646
356.6032, 119.9366
357.0854, 127.2846
357.5675, 133.9109
358.0496, 139.9156
358.5317, 145.3700
359.0138, 150.2235
359.4959, 154.5947
359.9781, 159.0897
360.4602, 163.9491
360.9423, 167.3649
361.4244, 167.2383
361.9065, 164.6886
362.3886, 162.5476
362.8708, 161.6220
363.3529, 160.7549
363.8350, 158.8620
364.3171, 156.0976
364.7992, 153.5644
365.2813, 152.0121
365.7635, 150.7028
366.2456, 148.0623
366.7277, 143.6653
367.2098, 139.4350
367.6919, 136.3845
368.1740, 133.9925
368.6562, 131.3069
369.1383, 128.0950
369.6204, 124.5576
370.1025, 121.0374
370.5846, 117.6036
371.0667, 113.3414
371.5489, 106.9147
372.0310, 100.4737
372.5131, 96.46671
372.9952, 94.79359
373.4773, 92.97596
373.9594, 89.17887
374.4416, 83.50415
374.9237, 77.98866
375.4058, 71.99174
375.8879, 66.82393
376.3700, 63.24078
376.8521, 60.84395
377.3343, 59.00995
377.8164, 57.52782
378.2985, 56.06038
378.7806, 53.78377
379.2627, 49.90169
379.7448, 46.61450
380.2270, 44.38036
380.7091, 42.68990
381.1912, 41.11893
381.6733, 39.56076
382.1554, 37.91514
382.6375, 35.92229
383.1197, 33.42031
383.6018, 31.44147
384.0839, 29.90240
384.5660, 28.85835
385.0481, 28.88388
385.5302, 29.45202
386.0124, 29.29838
386.4945, 27.51772
386.9766, 24.49736
387.4587, 22.27499
387.9408, 21.08331
388.4229, 20.52662
388.9051, 21.17257
389.3872, 22.14014
389.8693, 22.45026
390.3514, 21.80845
390.8335, 20.79411
391.3156, 20.37000
391.7978, 20.84388
392.2799, 21.06883
392.7620, 20.76034
393.2441, 20.45217
393.7262, 20.52647
394.2083, 20.88284
394.6905, 21.07632
395.1726, 20.65145
395.6547, 19.70479
396.1368, 19.25230
396.6189, 19.50335
397.1010, 19.99399
397.5832, 20.68188
398.0653, 21.45583
398.5474, 22.14017
399.0295, 22.64269
399.5116, 23.15309
399.9937, 24.04237
400.4759, 25.40431
400.9580, 26.64671
401.4401, 27.42535
401.9222, 28.18314
402.4043, 29.10316
402.8864, 30.23262
403.3686, 31.79109
403.8507, 34.24368
404.3328, 37.33258
404.8149, 39.89337
405.2970, 41.68685
405.7791, 43.25161
406.2613, 45.05744
406.7434, 46.90976
407.2255, 48.39034
407.7076, 49.16396
408.1897, 49.70145
408.6718, 50.56496
409.1540, 51.73959
409.6361, 52.77277
410.1182, 53.38656
410.6003, 53.81646
411.0824, 54.60094
411.5645, 55.96984
412.0467, 56.81332
412.5288, 56.22949
413.0109, 54.90302
413.4930, 54.20591
413.9751, 54.48665
414.4572, 54.67995
414.9394, 53.62259
415.4215, 51.23686
415.9036, 48.96156
416.3857, 46.66754
416.8678, 44.66628
417.3499, 43.55681
417.8321, 43.01752
418.3142, 41.92433
418.7963, 39.63240
419.2784, 36.40807
419.7605, 33.14408
420.2426, 29.66284
420.7248, 26.37167
421.2069, 23.19794
421.6890, 20.29674
422.1711, 17.89326
422.6532, 16.01872
423.1353, 14.43819
423.6175, 12.89475
424.0996, 11.40924
424.5817, 9.867256
425.0638, 8.155609
425.5459, 6.512642
426.0280, 4.963821
426.5102, 3.561508
426.9923, 2.415886
427.4744, 1.611496
427.9565, 1.031502
428.4386, 0.2946780
428.9207, 0.7799450
429.4029, 1.687027
429.8850, 2.398216
430.3671, 2.921005
430.8492, 3.184631
431.3313, 3.210480
431.8134, 3.183365
432.2956, 3.300850
432.7777, 3.567474
433.2598, 3.836342
433.7419, 4.270561
434.2241, 4.468597
434.7062, 4.221916
435.1883, 3.639648
435.6704, 2.885239
436.1525, 1.885612
436.6346, 0.9491650
437.1168, 0.7971500
437.5989, 1.557251
438.0810, 1.723297
438.5631, 0.3160170
439.0452, 1.597755
439.5273, 2.651619
440.0095, 2.708488
440.4916, 3.079025
440.9737, 4.694641
441.4558, 7.080299
441.9379, 9.315063
442.4200, 11.20860
442.9022, 12.87003
443.3843, 14.39716
443.8664, 15.83097
444.3485, 17.34312
444.8306, 18.42123
445.3127, 20.10298
445.7949, 23.41320
446.2770, 27.72710
446.7591, 31.49731
447.2412, 34.06832
447.7233, 36.01186
448.2054, 38.39090
448.6876, 41.39350
449.1697, 44.63207
449.6518, 48.46006
450.1339, 52.10856
450.6160, 54.99085
451.0981, 57.19272
451.5803, 59.18993
452.0624, 61.29228
452.5445, 63.40805
453.0266, 65.08944
453.5087, 66.58598
453.9908, 67.36433
454.4730, 66.79265
454.9551, 65.73528
455.4372, 65.27425
455.9193, 65.64685
456.4014, 65.99815
456.8835, 64.93582
457.3657, 62.04208
457.8478, 59.64914
458.3299, 58.61198
458.8120, 57.32690
459.2941, 54.75542
459.7762, 51.40781
460.2584, 48.54746
460.7405, 46.97941
461.2226, 46.19131
461.7047, 45.11720
462.1868, 43.70466
462.6689, 42.24939
463.1511, 41.12257
463.6332, 39.79704
464.1153, 37.53584
464.5974, 34.20592
465.0795, 31.15366
465.5616, 29.36787
466.0438, 28.40495
466.5259, 27.35192
467.0080, 26.15498
467.4901, 24.56033
467.9722, 22.02710
468.4543, 18.87175
468.9365, 16.61041
469.4186, 16.03549
469.9007, 15.62290
470.3828, 14.60960
470.8649, 13.18539
471.3470, 11.72553
471.8292, 10.35168
472.3113, 9.067261
472.7934, 7.816574
473.2755, 6.412071
473.7576, 5.738129
474.2397, 6.344124
474.7219, 7.167191
475.2040, 7.641327
475.6861, 7.778534
476.1682, 7.778309
476.6503, 7.750336
477.1324, 7.732758
477.6146, 7.882095
478.0967, 8.312996
478.5788, 8.736431
479.0609, 8.807220
479.5430, 9.075615
480.0251, 10.16238
480.5073, 12.02837
480.9894, 13.92790
481.4715, 15.02573
481.9536, 15.40987
482.4357, 16.23967
482.9178, 17.42989
483.4000, 19.26515
483.8821, 22.11969
484.3642, 25.54170
484.8463, 28.93425
485.3284, 32.11357
485.8105, 35.38721
486.2927, 39.37457
486.7748, 43.82666
487.2569, 47.48798
487.7390, 50.19957
488.2211, 51.90535
488.7032, 52.27385
489.1854, 51.50232
489.6675, 50.18683
490.1496, 48.61151
490.6317, 46.36946
491.1138, 42.96659
491.5959, 38.58156
492.0781, 33.71525
492.5602, 28.46785
493.0423, 23.42863
493.5244, 19.91708
494.0065, 19.11758
494.4886, 17.65656
494.9708, 14.87128
495.4529, 11.66970
495.9350, 8.447693
496.4171, 5.554001
496.8992, 3.498032
497.3813, 2.709106
497.8635, 2.932320
498.3456, 2.535126
498.8277, 0.6829300
499.3098, 0.5337910
499.7919, 0.3437350
500.2740, 0.2567370
500.7562, 0.4319610
501.2383, 2.1331999E-02
501.7204, 0.6487960
502.2025, 1.453800
502.6846, 2.337467
503.1667, 2.585018
503.6489, 1.921272
504.1310, 1.119370
504.6131, 0.3529820
505.0952, 0.2225340
505.5773, 0.2647480
506.0594, 0.5153960
506.5416, 1.306698
507.0237, 1.235020
507.5058, 0.5950470
507.9879, 0.5321240
508.4700, 1.454178
508.9521, 2.460827
509.4343, 2.508274
509.9164, 1.590813
510.3985, 0.9562420
510.8806, 0.7651600
511.3627, 0.7846760
511.8448, 1.183193
512.3270, 1.672672
512.8091, 1.560246
513.2912, 0.5298500
513.7733, 0.9515270
514.2554, 2.063801
514.7375, 2.837761
515.2197, 3.115730
515.7018, 2.272369
516.1839, 1.588421
516.6660, 1.926373
517.1481, 2.974655
517.6302, 3.895729
518.1124, 4.197681
518.5945, 4.032379
519.0766, 3.703217
519.5587, 3.059097
520.0408, 2.739670
520.5229, 3.181530
521.0051, 3.778862
521.4872, 4.190578
521.9693, 4.397209
522.4514, 4.478893
522.9335, 4.451477
523.4156, 4.338573
523.8978, 4.047646
524.3799, 3.547947
524.8620, 3.490185
525.3441, 4.348572
525.8262, 5.739822
526.3083, 6.893608
526.7905, 7.860847
527.2726, 8.481438
527.7547, 8.231949
528.2368, 7.886276
528.7189, 8.423573
529.2010, 9.847565
529.6832, 11.38511
530.1653, 12.49595
530.6474, 13.20527
531.1295, 13.72967
531.6116, 13.39520
532.0938, 13.73483
532.5759, 15.56864
533.0580, 17.69179
533.5401, 18.88189
534.0222, 19.06149
534.5043, 19.20771
534.9865, 20.32249
535.4686, 22.29867
535.9507, 23.87566
536.4328, 24.98804
536.9149, 25.82072
537.3970, 26.07653
537.8792, 26.28994
538.3613, 26.98160
538.8434, 28.24970
539.3255, 30.02676
539.8076, 32.70409
540.2897, 35.82129
540.7719, 38.03363
541.2540, 39.06732
541.7361, 39.95843
542.2182, 41.47792
542.7003, 43.47762
543.1824, 45.18956
543.6646, 46.17790
544.1467, 47.44596
544.6288, 49.81495
545.1109, 52.46623
545.5930, 54.09317
546.0751, 54.51101
546.5573, 54.86404
547.0394, 56.38988
547.5215, 59.12688
548.0036, 61.39358
548.4857, 62.24667
548.9678, 63.74201
549.4500, 66.81607
549.9321, 70.43272
550.4142, 73.42063
550.8963, 75.49673
551.3784, 77.32806
551.8605, 79.74414
552.3427, 82.68024
552.8248, 85.18163
553.3069, 87.19904
553.7890, 88.81941
554.2711, 89.62627
554.7532, 90.18602
555.2354, 91.36839
555.7175, 93.46386
556.1996, 95.79114
556.6817, 98.23695
557.1638, 100.4786
557.6459, 101.7268
558.1281, 101.8180
558.6102, 102.2128
559.0923, 104.1275
559.5744, 107.5131
560.0565, 111.6394
560.5386, 116.5248
561.0208, 121.9865
561.5029, 128.0432
561.9850, 134.7544
562.4671, 141.9812
562.9492, 149.7956
563.4313, 158.8126
563.9135, 169.9313
564.3956, 183.1315
564.8777, 195.6626
565.3598, 208.7428
565.8419, 219.1161
566.3240, 226.2525
566.8062, 230.2833
567.2883, 231.5899
567.7704, 230.3179
568.2525, 225.2719
568.7346, 214.4003
569.2167, 199.0459
569.6989, 182.5609
570.1810, 164.9714
570.6631, 147.6624
571.1452, 131.1983
571.6273, 115.7840
572.1094, 102.3582
572.5916, 91.26979
573.0737, 81.36282
573.5558, 72.32718
574.0379, 64.29969
574.5200, 57.74900
575.0021, 52.58366
575.4843, 48.08047
575.9664, 43.67157
576.4485, 39.45820
576.9306, 36.11844
577.4127, 34.28479
577.8948, 32.35061
578.3770, 29.64095
578.8591, 27.11079
579.3412, 25.51480
579.8233, 24.87939
580.3054, 24.67923
580.7875, 24.69381
581.2697, 24.82163
581.7518, 24.79898
582.2339, 24.61118
582.7161, 24.37526
583.1982, 23.97677
583.6803, 23.71067
584.1624, 24.03456
584.6445, 24.97706
585.1266, 26.08542
585.6088, 27.51855
586.0909, 28.85711
586.5730, 29.46992
587.0551, 29.61064
587.5372, 30.21265
588.0193, 31.76962
588.5015, 33.96669
588.9836, 36.11394
589.4657, 38.13406
589.9478, 40.27927
590.4299, 42.59033
590.9120, 44.97921
591.3942, 47.52077
591.8763, 50.08686
592.3584, 52.44020
592.8405, 54.48146
593.3226, 56.24558
593.8047, 57.93116
594.2869, 59.54470
594.7690, 60.36921
595.2511, 59.95774
595.7332, 59.33504
596.2153, 59.35606
596.6974, 59.89108
597.1796, 60.48625
597.6617, 60.99988
598.1438, 61.64199
598.6259, 63.15777
599.1080, 64.75610
599.5901, 64.65144
600.0723, 62.49951
600.5544, 60.11508
601.0365, 59.45310
601.5186, 60.54641
602.0007, 61.50393
602.4828, 62.39671
602.9650, 63.07655
603.4471, 63.98273
603.9292, 64.38802
604.4113, 63.28932
604.8934, 60.66758
605.3755, 57.80249
605.8577, 55.76683
606.3398, 54.35918
606.8219, 52.86708
607.3040, 51.26540
607.7861, 49.82944
608.2682, 48.79050
608.7504, 47.86641
609.2325, 46.66805
609.7146, 45.23615
610.1967, 43.46551
610.6788, 40.90974
611.1609, 38.36498
611.6431, 36.82195
612.1252, 35.95352
612.6073, 34.48689
613.0894, 31.74548
613.5715, 28.37663
614.0536, 25.70967
614.5358, 23.86780
615.0179, 22.45653
615.5000, 21.96189
615.9821, 21.37099
616.4642, 20.04227
616.9464, 18.35622
617.4285, 17.04444
617.9106, 16.38935
618.3927, 16.10070
618.8748, 15.91953
619.3569, 15.85277
619.8391, 15.95555
620.3212, 16.27457
620.8033, 16.58194
621.2854, 16.65987
621.7675, 16.56997
622.2496, 16.67447
622.7318, 16.92175
623.2139, 17.42008
623.6960, 18.13850
624.1781, 19.15810
624.6602, 20.71793
625.1423, 22.72773
625.6245, 24.65777
626.1066, 26.01928
626.5887, 27.04156
627.0708, 28.89825
627.5529, 32.13684
628.0350, 34.85832
628.5172, 36.31404
628.9993, 37.42006
629.4814, 38.86699
629.9635, 40.54218
630.4456, 41.74331
630.9277, 42.12820
631.4099, 41.93154
631.8920, 41.36026
632.3741, 40.44146
632.8562, 39.23110
633.3383, 37.77153
633.8204, 35.92608
634.3026, 33.42033
634.7847, 30.13559
635.2668, 27.31903
635.7489, 25.35181
636.2310, 23.31119
636.7131, 20.75961
637.1953, 18.09417
637.6774, 15.78030
638.1595, 13.92636
638.6416, 12.36015
639.1237, 10.98582
639.6058, 9.767834
640.0880, 8.405834
640.5701, 6.757454
641.0522, 5.584911
641.5343, 5.487206
642.0164, 5.796406
642.4985, 5.594795
642.9807, 4.815266
643.4628, 3.998737
643.9449, 3.223949
644.4270, 2.536739
644.9091, 1.979267
645.3912, 1.530128
645.8734, 1.093102
646.3555, 0.6340410
646.8376, 0.3264540
647.3197, 0.5303570
647.8018, 1.432724
648.2839, 1.778984
648.7661, 1.130417
649.2482, 0.4435880
649.7303, 0.2151950
650.2124, 0.6587750
650.6945, 0.4878010
651.1766, 0.4001350
651.6588, 1.105034
652.1409, 0.6198650
652.6230, 0.4279940
653.1051, 0.6524200
653.5872, 2.5859999E-03
654.0693, 0.6159250
654.5515, 0.7691800
655.0336, 0.5465090
655.5157, 9.9303998E-02
655.9978, 0.7778740
656.4799, 1.377914
656.9620, 1.527946
657.4442, 1.570984
657.9263, 1.693401
658.4084, 1.836506
658.8905, 1.837551
659.3726, 1.629608
659.8547, 1.403728
660.3369, 1.538113
660.8190, 1.980461
661.3011, 1.858597
661.7832, 0.8795590
662.2653, 5.6393001E-02
662.7474, 0.1021880
663.2296, 0.6033060
663.7117, 0.7006230
664.1938, 0.2228850
664.6759, 0.1244090
665.1580, 6.9866002E-02
665.6401, 0.3395420
666.1223, 0.1093250
666.6044, 0.5121730
667.0865, 0.8346600
667.5686, 0.4174000
668.0507, 0.3849070
668.5328, 0.8702770
669.0150, 1.010433
669.4971, 0.9228020
669.9792, 0.3235550
670.4613, 0.1430050
670.9434, 0.1196860
671.4255, 0.1709630
671.9077, 0.4302180
672.3898, 0.6167910
672.8719, 0.6612430
673.3540, 0.4041670
673.8361, 2.8152000E-02
674.3182, 0.1249120
674.8004, 6.6063002E-02
675.2825, 0.1481060
675.7646, 0.6056210
676.2467, 1.224579
676.7288, 1.478935
677.2109, 1.019398
677.6931, 1.030354
678.1752, 2.190483
678.6573, 3.068481
679.1394, 2.826057
679.6215, 1.956032
680.1036, 1.266960
680.5858, 1.030499
681.0679, 0.9986340
681.5500, 0.8771690
682.0321, 0.7790130
682.5142, 1.138119
682.9963, 2.014019
683.4785, 2.782883
683.9606, 3.096691
684.4427, 3.092264
684.9248, 3.094666
685.4069, 3.197664
685.8890, 3.074902
686.3712, 2.272270
686.8533, 1.687632
687.3354, 2.210484
687.8175, 3.191902
688.2996, 3.326406
688.7817, 2.135365
689.2639, 0.6666410
689.7460, 0.1455960
690.2281, 0.4729610
690.7102, 1.130598
691.1923, 2.230068
691.6744, 3.034306
692.1566, 3.085770
692.6387, 2.675852
693.1208, 2.355181
693.6029, 2.132442
694.0850, 1.934799
694.5671, 1.733589
695.0493, 1.569593
695.5314, 1.433346
696.0135, 1.362345
696.4956, 1.459503
696.9777, 1.751434
697.4598, 2.075706
697.9420, 2.267771
698.4241, 2.323206
698.9062, 2.024734
699.3883, 1.099979
699.8704, 0.6101760
700.3525, 1.433619
700.8347, 2.640425
701.3168, 2.899141
701.7989, 2.114304
702.2810, 1.468399
702.7631, 1.375788
703.2452, 1.436636
703.7274, 1.409864
704.2095, 1.312670
704.6916, 1.199547
705.1737, 1.091692
705.6558, 0.9953540
706.1379, 0.9047260
706.6201, 0.8254990
707.1022, 0.8876150
707.5843, 1.176146
708.0664, 1.381933
708.5485, 1.432280
709.0306, 1.383421
709.5128, 1.218191
709.9949, 0.9516070
710.4770, 0.7584930
710.9591, 0.7091060
711.4412, 0.7805560
711.9233, 0.9837040
712.4055, 1.237978
712.8876, 1.332558
713.3697, 1.240370
713.8518, 1.210192
714.3339, 1.546240
714.8160, 2.206408
715.2982, 2.691328
715.7803, 3.023386
716.2624, 3.108648
716.7445, 2.830227
717.2266, 2.404438
717.7087, 1.817366
718.1909, 1.150530
718.6730, 0.7931080
719.1551, 1.158291
719.6372, 1.619104
720.1193, 1.628906
720.6014, 1.386063
721.0836, 1.333790
721.5657, 1.541157
722.0478, 1.719938
722.5299, 1.627380
723.0120, 1.251574
723.4941, 0.5467910
723.9763, 0.8347450
724.4584, 1.450548
724.9405, 0.6941280
725.4226, 0.3434330
725.9047, 1.310183
726.3868, 2.046858
726.8690, 2.235056
727.3511, 1.660030
727.8332, 1.006876
728.3153, 0.4234240
728.7974, 8.0370001E-02
729.2795, 0.4679320
729.7617, 1.435596
730.2438, 2.088987
730.7259, 1.933672
731.2080, 1.356125
731.6901, 1.141907
732.1722, 1.396233
732.6544, 1.466671
733.1365, 1.055067
733.6186, 0.9127960
734.1007, 1.682884
734.5828, 2.684004
735.0649, 2.967707
735.5471, 2.354141
736.0292, 1.791105
736.5113, 1.667925
736.9934, 1.830627
737.4755, 2.308256
737.9576, 2.935011
738.4398, 3.258621
738.9219, 3.125765
739.4040, 2.817865
739.8861, 2.664818
740.3682, 2.670553
740.8503, 2.793846
741.3325, 3.128452
741.8146, 3.374924
742.2967, 3.274332
742.7788, 3.186493
743.2609, 3.576880
743.7430, 4.352112
744.2252, 4.703465
744.7073, 3.873119
745.1894, 3.094570
745.6715, 3.278437
746.1536, 3.984444
746.6357, 4.585367
747.1179, 4.931866
747.6000, 5.072668
748.0821, 5.074371
748.5642, 4.998207
749.0463, 5.064898
749.5284, 5.353668
750.0106, 5.373495
750.4927, 4.775965
750.9748, 4.285776
751.4569, 4.598055
751.9390, 5.346989
752.4211, 5.731638
752.9033, 5.513794
753.3854, 5.293463
753.8675, 5.466850
754.3496, 5.599686
754.8317, 5.095644
755.3138, 4.190987
755.7960, 3.601837
756.2781, 3.655958
756.7602, 4.096855
757.2423, 4.729679
757.7244, 5.521599
758.2065, 5.575558
758.6887, 4.516811
759.1708, 3.932785
759.6529, 4.848814
760.1350, 6.293489
760.6171, 6.762388
761.0992, 6.204573
761.5814, 5.744652
762.0635, 5.869438
762.5456, 5.724396
763.0277, 4.470566
763.5098, 2.945545
763.9919, 2.367723
764.4741, 2.823790
764.9562, 3.305098
765.4383, 2.930639
765.9204, 2.181648
766.4025, 2.374609
766.8846, 3.454170
767.3668, 3.693689
767.8489, 2.505421
768.3310, 1.205566
768.8131, 0.8927710
769.2952, 1.408875
769.7773, 1.829844
770.2595, 2.283018
770.7416, 2.460762
771.2237, 2.132961
771.7058, 1.719151
772.1879, 1.469688
772.6700, 1.348862
773.1522, 1.196646
773.6343, 0.9531210
774.1164, 0.7956390
774.5985, 0.9929770
775.0806, 1.360779
775.5627, 1.428013
776.0449, 1.223227
776.5270, 1.110115
777.0091, 1.197409
777.4912, 1.462715
777.9733, 1.860153
778.4554, 2.448275
778.9376, 2.701824
779.4197, 2.420553
779.9019, 2.073662
780.3840, 1.629723
780.8661, 1.254169
781.3482, 1.207010
781.8303, 1.352840
782.3124, 1.223606
782.7946, 0.3651770
783.2767, 0.3412270
783.7588, 8.3219998E-02
784.2409, 0.7193970
784.7230, 1.406950
785.2051, 1.840256
785.6873, 2.034563
786.1694, 1.995300
786.6515, 1.732830
787.1336, 1.139191
787.6157, 1.8278001E-02
788.0978, 0.2567540
788.5800, 0.8901480
789.0621, 2.058535
789.5442, 2.522715
790.0263, 2.527603
790.5084, 2.383884
790.9905, 2.024002
791.4727, 1.919834
791.9548, 2.501043
792.4369, 3.061674
792.9190, 3.188242
793.4011, 2.976374
793.8832, 2.474365
794.3654, 1.778357
794.8475, 1.338404
795.3296, 1.653090
795.8117, 2.437750
796.2938, 2.856323
796.7759, 2.920568
797.2581, 3.401775
797.7402, 4.619743
798.2223, 5.724194
798.7044, 5.923435
799.1865, 5.370270
799.6686, 4.977398
800.1508, 4.697512
800.6329, 4.656963
801.1150, 5.233063
801.5971, 5.678310
802.0792, 5.424652
802.5613, 4.778603
803.0435, 4.323351
803.5256, 4.237299
804.0077, 4.276226
804.4898, 4.376179
804.9719, 4.425964
805.4540, 4.085409
805.9362, 3.515907
806.4183, 3.496769
806.9004, 4.301014
807.3825, 5.157999
807.8646, 5.123346
808.3467, 4.285568
808.8289, 3.799843
809.3110, 3.823706
809.7931, 3.769424
810.2752, 3.451336
810.7573, 3.085222
811.2394, 2.770926
811.7216, 2.543907
812.2037, 2.549221
812.6858, 2.955719
813.1679, 3.320555
813.6500, 3.522455
814.1321, 3.598495
814.6143, 3.629839
815.0964, 3.554531
815.5785, 3.138315
816.0606, 2.294231
816.5427, 1.468616
817.0248, 1.193459
817.5070, 1.354952
817.9891, 1.679981
818.4712, 2.160685
818.9533, 2.216633
819.4354, 1.557116
819.9175, 0.7309570
820.3997, 0.3803290
820.8818, 0.4964920
821.3639, 0.5471920
821.8460, 0.4871180
822.3281, 0.4276220
822.8102, 0.3159080
823.2924, 0.2674010
823.7745, 0.4223880
824.2566, 0.6958120
824.7387, 0.8732990
825.2208, 0.8917200
825.7029, 0.8177510
826.1851, 0.6558760
826.6672, 0.4494300
827.1493, 0.2288680
827.6314, 8.5810004E-03
828.1135, 0.1871970
828.5956, 0.3489000
829.0778, 0.4710480
829.5599, 0.5858670
830.0420, 0.6586880
830.5241, 0.3612750
831.0062, 0.3980880
831.4883, 0.9134850
831.9705, 0.9849090
832.4526, 0.7514440
832.9347, 0.1721550
833.4168, 0.6654280
833.8989, 0.9064940
834.3810, 4.8277002E-02
834.8632, 0.6703680
835.3453, 0.5161550
835.8274, 0.2896540
836.3095, 0.4676670
836.7916, 0.8924620
837.2737, 1.237494
837.7559, 1.412058
838.2380, 1.407839
838.7201, 1.065910
839.2022, 0.6432590
839.6843, 0.4957010
840.1664, 0.5776810
840.6486, 0.7514950
841.1307, 0.9563390
841.6128, 1.044039
842.0949, 0.8113960
842.5770, 0.3649040
843.0591, 0.1472300
843.5413, 0.1078610
844.0234, 0.6783920
844.5055, 2.456221
844.9876, 3.849947
845.4697, 3.495010
845.9518, 1.998676
846.4340, 1.122856
846.9161, 0.9432430
847.3982, 1.135363
847.8803, 1.919546
848.3624, 2.783186
848.8445, 3.592823
849.3267, 4.274870
849.8088, 4.592505
850.2909, 4.531614
850.7730, 4.788546
851.2551, 6.106550
851.7372, 7.701027
852.2194, 8.755566
852.7015, 9.394375
853.1836, 9.604252
853.6657, 9.389156
854.1478, 9.229286
854.6299, 9.492123
855.1121, 10.10611
855.5942, 10.95717
856.0763, 12.10985
856.5584, 12.84405
857.0405, 12.88892
857.5226, 13.39543
858.0048, 14.98593
858.4869, 17.02655
858.9690, 18.73425
859.4511, 20.10949
859.9332, 21.32129
860.4153, 21.94058
860.8975, 22.99384
861.3796, 25.15300
861.8617, 27.56627
862.3438, 29.29136
862.8259, 30.64079
863.3080, 32.60581
863.7902, 35.56882
864.2723, 39.18619
864.7544, 43.60250
865.2365, 48.24688
865.7186, 51.81458
866.2007, 54.72199
866.6829, 58.53139
867.1650, 63.73853
867.6471, 69.63062
868.1292, 75.33723
868.6113, 80.96230
869.0934, 87.23923
869.5756, 94.35258
870.0577, 100.9805
870.5398, 106.4225
871.0219, 112.2354
871.5040, 120.2355
871.9861, 129.4061
872.4683, 135.9837
872.9504, 139.0274
873.4325, 141.1567
873.9146, 143.0544
874.3967, 143.2115
874.8788, 140.0945
875.3610, 135.3242
875.8431, 131.0679
876.3252, 127.5741
876.8073, 123.2765
877.2894, 117.0861
877.7715, 110.1332
878.2537, 102.8707
878.7358, 95.67896
879.2179, 89.11724
879.7000, 83.12026
880.1821, 77.26888
880.6642, 71.30125
881.1464, 65.35536
881.6285, 59.39379
882.1106, 53.59275
882.5927, 49.05793
883.0748, 45.89357
883.5569, 42.88967
884.0391, 39.59747
884.5212, 36.26657
885.0033, 33.12692
885.4854, 30.19492
885.9675, 27.46944
886.4496, 24.96335
886.9318, 22.65492
887.4139, 20.32356
887.8960, 18.43275
888.3781, 17.34394
888.8602, 16.85098
889.3423, 16.69697
889.8245, 17.10405
890.3066, 16.73549
890.7887, 14.45969
891.2708, 12.10372
891.7529, 10.87510
892.2350, 10.24577
892.7172, 9.229259
893.1993, 7.799009
893.6814, 6.775639
894.1635, 6.762642
894.6456, 7.158119
895.1277, 7.421658
895.6099, 7.493649
896.0920, 7.202782
896.5741, 6.559219
897.0562, 5.636765
897.5383, 4.449814
898.0204, 3.432730
898.5026, 3.321833
898.9847, 4.024857
899.4668, 4.256557
899.9489, 3.872250
900.4310, 3.928257
900.9131, 4.977255
901.3953, 5.875587
901.8774, 5.533066
902.3595, 4.241760
902.8416, 3.354069
903.3237, 3.125080
903.8058, 2.837486
904.2880, 2.247419
904.7701, 1.882675
905.2522, 2.359760
905.7343, 2.947289
906.2164, 2.511173
906.6985, 1.033358
907.1807, 7.3509000E-02
907.6628, 0.6475720
908.1449, 1.335321
908.6270, 1.528997
909.1091, 1.299580
909.5912, 0.3612710
910.0734, 0.9135000
910.5555, 1.490807
911.0376, 0.9000510
911.5197, 0.1441310
912.0018, 1.153305
912.4839, 1.959476
912.9661, 2.212399
913.4482, 1.930416
913.9303, 1.060854
914.4124, 0.3828680
914.8945, 1.570187
915.3766, 1.738680
915.8588, 1.163038
916.3409, 0.6843010
916.8230, 0.3163410
917.3051, 0.1178570
917.7872, 0.6898380
918.2693, 1.152695
918.7515, 1.452450
919.2336, 1.480700
919.7157, 0.9730070
920.1978, 0.1676330
920.6799, 0.8976550
921.1620, 1.231213
921.6442, 1.121122
922.1263, 0.1389410
922.6084, 1.193447
923.0905, 0.7563210
923.5726, 0.5225180
924.0547, 1.015408
924.5369, 0.2308670
925.0190, 0.5273550
925.5011, 1.014500
925.9832, 1.098885
926.4653, 0.4187200
926.9474, 0.5728230
927.4296, 1.429159
927.9117, 1.958076
928.3938, 1.782804
928.8759, 0.3665920
929.3580, 1.082088
929.8401, 1.048286
930.3223, 0.1682780
930.8044, 0.4677430
931.2865, 0.7675480
931.7686, 0.9099580
932.2507, 0.9633370
932.7328, 0.7844470
933.2150, 9.5833004E-02
933.6971, 0.8879390
934.1792, 1.341621
934.6613, 1.263714
935.1434, 0.8250080
935.6255, 3.1638999E-02
936.1077, 0.6320080
936.5898, 0.5095440
937.0719, 0.1201290
937.5540, 0.8531880
938.0361, 1.809177
938.5182, 2.146790
939.0004, 1.430443
939.4825, 0.9464760
939.9646, 1.168591
940.4467, 1.645515
940.9288, 2.164917
941.4109, 2.625153
941.8931, 2.494194
942.3752, 1.031197
942.8573, 0.3137630
943.3394, 0.9574620
943.8215, 1.988781
944.3036, 3.251034
944.7858, 4.417095
945.2679, 4.985825
945.7500, 4.971104
946.2321, 5.118099
946.7142, 5.982845
947.1964, 6.783134
947.6785, 6.863724
948.1606, 6.768528
948.6427, 7.148045
949.1248, 7.891754
949.6069, 8.599174
950.0891, 9.111420
950.5712, 9.397144
951.0533, 9.055447
951.5354, 8.704853
952.0175, 9.679062
952.4996, 11.46540
952.9818, 12.50472
953.4639, 12.60211
953.9460, 12.63408
954.4281, 13.14100
954.9102, 13.96765
955.3923, 14.94009
955.8745, 16.02500
956.3566, 16.74130
956.8387, 17.05516
957.3208, 17.70144
957.8029, 18.91953
958.2850, 20.46346
958.7672, 22.16140
959.2493, 23.95028
959.7314, 25.57047
960.2135, 26.96135
960.6956, 28.39800
961.1777, 29.77938
961.6599, 31.42478
962.1420, 33.47831
962.6241, 35.83083
963.1062, 38.34910
963.5883, 41.02552
964.0704, 44.07020
964.5526, 47.60000
965.0347, 51.24343
965.5168, 55.02036
965.9989, 58.97388
966.4810, 62.90125
966.9631, 67.09673
967.4453, 71.90856
967.9274, 77.35110
968.4095, 83.75743
968.8916, 92.07217
969.3737, 100.5197
969.8558, 108.2428
970.3380, 115.7584
970.8201, 123.4490
971.3022, 131.3709
971.7843, 139.5714
972.2664, 147.9861
972.7485, 156.4654
973.2307, 165.2964
973.7128, 173.9162
974.1949, 181.3813
974.6770, 188.3338
975.1591, 195.9859
975.6412, 204.4009
976.1234, 212.4785
976.6055, 219.4354
977.0876, 227.5275
977.5698, 239.7034
978.0519, 254.8762
978.5340, 269.9838
979.0161, 285.8763
979.4982, 306.4709
979.9803, 332.8343
980.4625, 363.1030
980.9446, 395.8913
981.4267, 431.4622
981.9088, 470.9225
982.3909, 514.0917
982.8730, 559.8441
983.3552, 608.0414
983.8373, 657.5366
984.3194, 708.7680
984.8015, 755.8271
985.2836, 793.7617
985.7657, 821.5191
986.2479, 833.9429
986.7300, 830.3657
987.2121, 814.9937
987.6942, 786.9012
988.1763, 749.6806
988.6584, 702.7940
989.1406, 650.9584
989.6227, 600.2660
990.1048, 550.3885
990.5869, 503.1034
991.0690, 458.4862
991.5511, 416.4698
992.0333, 375.9622
992.5154, 338.8564
992.9975, 306.4921
993.4796, 277.9196
993.9617, 251.6876
994.4438, 227.6738
994.9260, 206.8654
995.4081, 190.8456
995.8902, 175.7118
996.3723, 160.6665
996.8544, 146.3336
997.3365, 132.9104
997.8187, 120.5594
998.3008, 109.6139
998.7829, 100.1058
999.2650, 91.84081
999.7471, 85.44886
1000.229, 79.43894
1000.711, 73.11055
1001.193, 66.81582
1001.676, 60.69870
1002.158, 54.91916
1002.640, 49.82959
1003.122, 45.56439
1003.604, 41.64634
1004.086, 38.01664
1004.568, 34.38350
1005.050, 29.97714
1005.533, 25.73322
1006.015, 23.28128
1006.497, 22.29594
1006.979, 20.91376
1007.461, 18.24578
1007.943, 15.70123
1008.425, 14.79386
1008.907, 14.51254
1009.389, 13.63148
1009.872, 12.33344
1010.354, 10.93483
1010.836, 9.612606
1011.318, 8.807705
1011.800, 8.822567
1012.282, 9.069527
1012.764, 8.910477
1013.246, 8.406303
1013.729, 7.529705
1014.211, 6.423592
1014.693, 5.559650
1015.175, 5.058887
1015.657, 4.939369
1016.139, 5.266006
1016.621, 5.664642
1017.103, 5.183250
1017.585, 4.197269
1018.068, 4.778954
1018.550, 6.759548
1019.032, 7.748802
1019.514, 7.068977
1019.996, 6.002953
1020.478, 5.532909
1020.960, 5.571030
1021.442, 5.994812
1021.924, 6.789036
1022.407, 7.698330
1022.889, 8.743427
1023.371, 9.187477
1023.853, 8.665207
1024.335, 8.401844
1024.817, 9.561852
1025.299, 11.68933
1025.781, 13.31265
1026.264, 14.32431
1026.746, 15.84844
1027.228, 18.04064
1027.710, 20.01151
1028.192, 21.16312
1028.674, 22.87815
1029.156, 26.66827
1029.638, 31.98162
1030.120, 36.45760
1030.603, 39.31438
1031.085, 44.35318
1031.567, 52.40557
1032.049, 60.61779
1032.531, 67.99399
1033.013, 75.26960
1033.495, 83.17905
1033.977, 91.57099
1034.459, 99.77766
1034.942, 108.5336
1035.424, 115.4225
1035.906, 121.1547
1036.388, 123.7470
1036.870, 122.0137
1037.352, 117.3697
1037.834, 110.6749
1038.316, 102.1546
1038.799, 93.16715
1039.281, 82.92041
1039.763, 73.70395
1040.245, 65.67895
1040.727, 58.38884
1041.209, 51.77557
1041.691, 45.70214
1042.173, 39.96040
1042.656, 34.58870
1043.138, 30.02808
1043.620, 26.41566
1044.102, 23.36954
1044.584, 21.16142
1045.066, 19.15143
1045.548, 17.22513
1046.030, 15.31192
1046.512, 13.26814
1046.995, 11.16886
1047.477, 9.368786
1047.959, 8.077442
1048.441, 6.688015
1048.923, 4.995770
1049.405, 3.437824
1049.887, 2.086430
1050.369, 0.9783060
1050.851, 0.2463190
1051.334, 0.2379190
1051.816, 0.9669420
1052.298, 2.381702
1052.780, 2.954708
1053.262, 1.591240
1053.744, 0.3171960
1054.226, 0.1642110
1054.708, 0.4258270
1055.191, 0.5332530
1055.673, 0.4021220
1056.155, 7.5229998E-03
1056.637, 0.6993940
1057.119, 1.722958
1057.601, 3.630547
1058.083, 5.224342
1058.565, 5.366047
1059.047, 5.323715
1059.530, 6.405392
1060.012, 8.465019
1060.494, 10.74107
1060.976, 13.11975
1061.458, 15.35026
1061.940, 17.04375
1062.422, 18.95615
1062.904, 21.41064
1063.386, 24.33678
1063.869, 28.12408
1064.351, 32.25288
1064.833, 35.15831
1065.315, 36.18093
1065.797, 38.10429
1066.279, 42.82709
1066.761, 47.77946
1067.243, 51.12841
1067.726, 54.41028
1068.208, 59.34259
1068.690, 65.45145
1069.172, 71.53085
1069.654, 77.27548
1070.136, 82.44887
1070.618, 87.00444
1071.100, 90.85342
1071.583, 95.06539
1072.065, 97.58019
1072.547, 95.70823
1073.029, 90.84956
1073.511, 86.12318
1073.993, 82.23959
1074.475, 77.62847
1074.957, 71.36679
1075.439, 64.51707
1075.922, 56.93449
1076.404, 49.57762
1076.886, 43.10602
1077.368, 37.54901
1077.850, 32.96946
1078.332, 29.29852
1078.814, 26.02145
1079.296, 23.17170
1079.779, 20.32782
1080.261, 16.96985
1080.743, 13.86171
1081.225, 11.80306
1081.707, 10.38165
1082.189, 8.909668
1082.671, 7.293999
1083.153, 5.802231
1083.635, 4.613548
1084.118, 3.434097
1084.600, 1.669292
1085.082, 0.3446920
1085.564, 0.6717300
1086.046, 1.639339
1086.528, 1.849102
1087.010, 1.236935
1087.492, 0.5535430
1087.974, 7.2773002E-02
1088.457, 0.4475480
1088.939, 0.6065060
1089.421, 0.3628690
1089.903, 0.6064340
1090.385, 1.895634
1090.867, 3.187695
1091.349, 4.356129
1091.831, 5.147171
1092.314, 5.347023
1092.796, 5.762589
1093.278, 6.791737
1093.760, 7.982166
1094.242, 9.174358
1094.724, 10.35474
1095.206, 11.41428
1095.688, 12.48385
1096.171, 14.02853
1096.653, 16.27408
1097.135, 17.88100
1097.617, 18.61399
1098.099, 18.42805
1098.581, 16.58699
1099.063, 14.50315
1099.545, 13.41516
1100.027, 12.86500
1100.510, 11.92296
1100.992, 10.45244
1101.474, 8.768127
1101.956, 6.505077
1102.438, 4.666759
1102.920, 3.784649
1103.402, 3.116913
1103.884, 2.074963
1104.366, 1.034523
1104.849, 0.7166860
1105.331, 1.086193
1105.813, 0.9819370
1106.295, 0.2276150
1106.777, 1.193085
1107.259, 1.844769
1107.741, 2.085857
1108.223, 1.438023
1108.706, 0.6799090
1109.188, 0.8078420
1109.670, 1.631264
1110.152, 1.976120
1110.634, 1.386379
1111.116, 1.048233
1111.598, 1.359707
1112.080, 1.558090
1112.563, 1.488113
1113.045, 1.163517
1113.527, 0.4454420
1114.009, 0.4959490
1114.491, 1.155685
1114.973, 1.417885
1115.455, 1.892628
1115.937, 2.557571
1116.419, 3.482586
1116.901, 4.822006
1117.384, 6.231750
1117.866, 7.605148
1118.348, 8.843773
1118.830, 9.727837
1119.312, 10.24187
1119.794, 10.94790
1120.276, 11.77649
1120.758, 12.96082
1121.241, 14.49777
1121.723, 16.54819
1122.205, 19.51443
1122.687, 22.40950
1123.169, 23.82816
1123.651, 24.19239
1124.133, 25.99327
1124.615, 29.56421
1125.098, 32.89165
1125.580, 35.67380
1126.062, 39.25504
1126.544, 44.33455
1127.026, 49.40907
1127.508, 53.18328
1127.990, 56.09990
1128.472, 59.37392
1128.954, 63.05602
1129.437, 65.40973
1129.919, 66.40009
1130.401, 66.74881
1130.883, 66.52988
1131.365, 66.39713
1131.847, 66.84121
1132.329, 66.90958
1132.811, 65.04539
1133.293, 61.60186
1133.776, 58.10854
1134.258, 54.61507
1134.740, 51.55440
1135.222, 48.96500
1135.704, 46.48110
1136.186, 43.96733
1136.668, 41.89874
1137.150, 40.83461
1137.633, 40.29258
1138.115, 39.21816
1138.597, 37.88836
1139.079, 37.13145
1139.561, 36.96479
1140.043, 36.95787
1140.525, 37.01915
1141.007, 37.62690
1141.490, 39.12682
1141.972, 40.92422
1142.454, 41.99718
1142.936, 43.04148
1143.418, 45.39607
1143.900, 48.55606
1144.382, 51.27518
1144.864, 53.64334
1145.346, 56.83533
1145.828, 61.25600
1146.311, 65.35291
1146.793, 67.34524
1147.275, 69.20286
1147.757, 73.15864
1148.239, 77.60775
1148.721, 80.91074
1149.203, 83.09450
1149.685, 84.62845
1150.168, 85.59200
1150.650, 85.74403
1151.132, 84.89910
1151.614, 83.40930
1152.096, 81.47295
1152.578, 78.94499
1153.060, 75.36610
1153.542, 71.39164
1154.025, 67.85762
1154.507, 64.59639
1154.989, 60.76447
1155.471, 56.09307
1155.953, 51.34339
1156.435, 46.16595
1156.917, 41.60918
1157.399, 38.32246
1157.881, 35.44286
1158.364, 32.23507
1158.846, 29.08510
1159.328, 26.75024
1159.810, 25.27402
1160.292, 23.71618
1160.774, 22.07315
1161.256, 20.35908
1161.738, 18.27670
1162.220, 16.65159
1162.703, 16.15548
1163.185, 15.71991
1163.667, 14.16739
1164.149, 11.91197
1164.631, 10.44865
1165.113, 9.906147
1165.595, 9.524738
1166.077, 9.401859
1166.560, 9.347862
1167.042, 9.354645
1167.524, 8.909128
1168.006, 7.699160
1168.488, 6.208069
1168.970, 4.998533
1169.452, 4.065504
1169.934, 3.771843
1170.417, 4.065750
1170.899, 3.905285
1171.381, 3.252451
1171.863, 2.872572
1172.345, 2.974072
1172.827, 3.022104
1173.309, 2.555746
1173.791, 1.931581
1174.273, 1.624409
1174.755, 1.666536
1175.238, 2.378712
1175.720, 3.452553
1176.202, 4.063030
1176.684, 4.100445
1177.166, 3.767590
1177.648, 3.157114
1178.130, 2.547806
1178.612, 2.158682
1179.095, 1.897905
1179.577, 1.728937
1180.059, 1.587154
1180.541, 1.396679
1181.023, 1.168348
1181.505, 0.8925500
1181.987, 0.6029130
1182.469, 0.4784810
1182.952, 0.6824280
1183.434, 0.8004490
1183.916, 0.3554840
1184.398, 0.1270480
1184.880, 0.9030910
1185.362, 1.796394
1185.844, 1.926941
1186.326, 1.480553
1186.808, 0.9314210
1187.291, 0.2571700
1187.773, 0.1279980
1188.255, 1.340958
1188.737, 1.947678
1189.219, 1.256554
1189.701, 0.6226840
1190.183, 0.7350120
1190.665, 1.036798
1191.147, 0.9231610
1191.630, 0.4940930
1192.112, 0.1688520
1192.594, 4.2862002E-02
1193.076, 0.2113550
1193.558, 0.3569850
1194.040, 0.3314060
1194.522, 7.1882002E-02
1195.004, 0.2210180
1195.487, 0.4601150
1195.969, 0.4699570
1196.451, 0.1402590
1196.933, 1.048630
1197.415, 0.7887460
1197.897, 0.3487830
1198.379, 0.6057280
1198.861, 1.1856000E-02
1199.344, 0.5398900
1199.826, 0.6696280
1200.308, 0.4100690
1200.790, 0.2905940
1201.272, 1.001566
1201.754, 1.146683
1202.236, 1.030161
1202.718, 0.9750290
1203.200, 1.033522
1203.682, 1.401585
1204.165, 1.923098
1204.647, 2.160753
1205.129, 1.998089
1205.611, 1.671560
1206.093, 1.003353
1206.575, 0.7051200
1207.057, 1.664631
1207.539, 2.565578
1208.022, 2.032848
1208.504, 1.211298
1208.986, 1.821585
1209.468, 3.409298
1209.950, 3.925840
1210.432, 2.791803
1210.914, 2.079931
1211.396, 2.225714
1211.879, 2.356495
1212.361, 2.314314
1212.843, 2.304430
1213.325, 2.478035
1213.807, 2.684309
1214.289, 2.683434
1214.771, 2.526695
1215.253, 2.414146
1215.735, 2.379335
1216.218, 1.939970
1216.700, 1.006317
1217.182, 0.9370500
1217.664, 2.096863
1218.146, 2.726656
1218.628, 1.722519
1219.110, 0.5132240
1219.592, 1.066866
1220.074, 2.654163
1220.557, 3.777969
1221.039, 4.443470
1221.521, 4.579624
1222.003, 4.288979
1222.485, 3.719303
1222.967, 3.022411
1223.449, 2.719416
1223.931, 3.151354
1224.414, 3.653946
1224.896, 3.615454
1225.378, 3.567917
1225.860, 4.145073
1226.342, 4.696327
1226.824, 4.216679
1227.306, 3.295107
1227.788, 3.242346
1228.271, 4.178619
1228.753, 4.989645
1229.235, 5.614672
1229.717, 5.802746
1230.199, 5.234858
1230.681, 4.592112
1231.163, 3.585867
1231.645, 3.234253
1232.127, 4.767632
1232.609, 6.972927
1233.092, 7.434010
1233.574, 6.161160
1234.056, 5.696087
1234.538, 6.099358
1235.020, 6.386278
1235.502, 6.524012
1235.984, 6.341896
1236.466, 5.679945
1236.949, 5.314062
1237.431, 5.803169
1237.913, 6.581511
1238.395, 6.986839
1238.877, 7.023529
1239.359, 6.221462
1239.841, 4.745211
1240.323, 3.373446
1240.806, 2.379229
1241.288, 2.038301
1241.770, 2.625700
1242.252, 3.536243
1242.734, 4.602039
1243.216, 5.084381
1243.698, 3.938679
1244.180, 2.695980
1244.662, 2.562752
1245.145, 2.780117
1245.627, 2.286596
1246.109, 1.458191
1246.591, 1.300463
1247.073, 1.950071
1247.555, 2.346426
1248.037, 2.107002
1248.519, 2.248135
1249.001, 3.138988
1249.484, 3.726774
1249.966, 3.575447
1250.448, 3.222626
1250.930, 2.974220
1251.412, 2.753853
1251.894, 2.192825
1252.376, 1.425423
1252.858, 1.685345
1253.341, 2.865692
1253.823, 4.321442
1254.305, 5.809391
1254.787, 6.090149
1255.269, 4.910141
1255.751, 3.704720
1256.233, 3.453522
1256.715, 3.338596
1257.198, 2.140450
1257.680, 0.9532050
1258.162, 1.305862
1258.644, 2.191664
1259.126, 2.324324
1259.608, 1.902969
1260.090, 1.536520
1260.572, 1.370323
1261.054, 1.521494
1261.536, 2.410551
1262.019, 2.754559
1262.501, 1.849243
1262.983, 0.9958570
1263.465, 0.6192110
1263.947, 0.3634030
1264.429, 8.2351997E-02
1264.911, 0.4272100
1265.393, 0.1963100
1265.876, 0.5270710
1266.358, 1.299978
1266.840, 2.159079
1267.322, 2.148552
1267.804, 1.238945
1268.286, 0.5424480
1268.768, 0.3200470
1269.250, 0.3333360
1269.733, 0.4540390
1270.215, 0.4951760
1270.697, 0.1147000
1271.179, 0.2586170
1271.661, 0.1424790
1272.143, 0.8238770
1272.625, 1.090963
1273.107, 1.087315
1273.589, 1.020998
1274.072, 0.8261470
1274.554, 1.271414
1275.036, 2.311518
1275.518, 2.763796
1276.000, 1.637791
1276.482, 0.7896230
1276.964, 0.6570970
1277.446, 0.8945830
1277.929, 1.169601
1278.411, 1.277269
1278.893, 0.9041290
1279.375, 0.2939090
1279.857, 0.2285670
1280.339, 0.7389180
1280.821, 0.7971310
1281.303, 0.4101090
1281.786, 0.1056310
1282.268, 0.0000000E+00
##END=



