##NAMES=Eosphorite
##RRUFFID=R130480
##IDEAL CHEMISTRY=Mn^2+^AlPO_4_(OH)_2_&#183;H_2_O
##LOCALITY=Taraqual, Minas Gerais, Brazil
##OWNER=RRUFF
##SOURCE=Rock Currier
##DESCRIPTION=Sprays of tan colored bladed crystals
##STATUS=The identification of this mineral has been confirmed only by single crystal X-ray diffraction.
##URL=rruff.info/R130480
8.813672e+001, 3.678782e+003
8.861884e+001, 3.728023e+003
8.910095e+001, 3.775352e+003
8.958307e+001, 3.833207e+003
9.006519e+001, 3.901238e+003
9.054730e+001, 3.969816e+003
9.102942e+001, 4.045717e+003
9.151154e+001, 4.114948e+003
9.199365e+001, 4.159163e+003
9.247577e+001, 4.182797e+003
9.295789e+001, 4.202762e+003
9.344000e+001, 4.231217e+003
9.392212e+001, 4.261800e+003
9.440424e+001, 4.286998e+003
9.488635e+001, 4.310822e+003
9.536847e+001, 4.334976e+003
9.585059e+001, 4.359784e+003
9.633270e+001, 4.384779e+003
9.681482e+001, 4.411806e+003
9.729694e+001, 4.441340e+003
9.777905e+001, 4.473409e+003
9.826117e+001, 4.510786e+003
9.874329e+001, 4.555545e+003
9.922540e+001, 4.606081e+003
9.970752e+001, 4.653458e+003
1.001896e+002, 4.696740e+003
1.006718e+002, 4.736806e+003
1.011539e+002, 4.774057e+003
1.016360e+002, 4.808167e+003
1.021181e+002, 4.841934e+003
1.026002e+002, 4.875622e+003
1.030823e+002, 4.908906e+003
1.035645e+002, 4.944321e+003
1.040466e+002, 4.982019e+003
1.045287e+002, 5.022252e+003
1.050108e+002, 5.066448e+003
1.054929e+002, 5.114875e+003
1.059750e+002, 5.167107e+003
1.064572e+002, 5.224123e+003
1.069393e+002, 5.296265e+003
1.074214e+002, 5.355281e+003
1.079035e+002, 5.395858e+003
1.083856e+002, 5.423513e+003
1.088677e+002, 5.455256e+003
1.093499e+002, 5.492261e+003
1.098320e+002, 5.533320e+003
1.103141e+002, 5.577878e+003
1.107962e+002, 5.629389e+003
1.112783e+002, 5.681563e+003
1.117604e+002, 5.734411e+003
1.122426e+002, 5.788377e+003
1.127247e+002, 5.842532e+003
1.132068e+002, 5.894360e+003
1.136889e+002, 5.947798e+003
1.141710e+002, 6.005018e+003
1.146531e+002, 6.074815e+003
1.151353e+002, 6.140290e+003
1.156174e+002, 6.196057e+003
1.160995e+002, 6.241711e+003
1.165816e+002, 6.286263e+003
1.170637e+002, 6.334629e+003
1.175458e+002, 6.382703e+003
1.180280e+002, 6.426641e+003
1.185101e+002, 6.461413e+003
1.189922e+002, 6.493443e+003
1.194743e+002, 6.524806e+003
1.199564e+002, 6.555345e+003
1.204385e+002, 6.588376e+003
1.209207e+002, 6.624156e+003
1.214028e+002, 6.663808e+003
1.218849e+002, 6.709153e+003
1.223670e+002, 6.770150e+003
1.228491e+002, 6.833854e+003
1.233312e+002, 6.885645e+003
1.238134e+002, 6.922619e+003
1.242955e+002, 6.953348e+003
1.247776e+002, 6.982194e+003
1.252597e+002, 7.010417e+003
1.257418e+002, 7.042190e+003
1.262239e+002, 7.081683e+003
1.267061e+002, 7.126720e+003
1.271882e+002, 7.171849e+003
1.276703e+002, 7.216719e+003
1.281524e+002, 7.261794e+003
1.286345e+002, 7.307625e+003
1.291166e+002, 7.354174e+003
1.295988e+002, 7.401379e+003
1.300809e+002, 7.450533e+003
1.305630e+002, 7.500608e+003
1.310451e+002, 7.547222e+003
1.315272e+002, 7.587422e+003
1.320093e+002, 7.624374e+003
1.324915e+002, 7.666716e+003
1.329736e+002, 7.714728e+003
1.334557e+002, 7.763871e+003
1.339378e+002, 7.808745e+003
1.344199e+002, 7.849410e+003
1.349020e+002, 7.890849e+003
1.353842e+002, 7.933513e+003
1.358663e+002, 7.977103e+003
1.363484e+002, 8.026425e+003
1.368305e+002, 8.083054e+003
1.373126e+002, 8.140206e+003
1.377947e+002, 8.191683e+003
1.382769e+002, 8.238409e+003
1.387590e+002, 8.274351e+003
1.392411e+002, 8.295018e+003
1.397232e+002, 8.300334e+003
1.402053e+002, 8.307576e+003
1.406874e+002, 8.317891e+003
1.411696e+002, 8.329229e+003
1.416517e+002, 8.338861e+003
1.421338e+002, 8.347033e+003
1.426159e+002, 8.354093e+003
1.430980e+002, 8.360263e+003
1.435801e+002, 8.365568e+003
1.440623e+002, 8.371807e+003
1.445444e+002, 8.380703e+003
1.450265e+002, 8.390232e+003
1.455086e+002, 8.396465e+003
1.459907e+002, 8.397723e+003
1.464728e+002, 8.398615e+003
1.469550e+002, 8.400553e+003
1.474371e+002, 8.403354e+003
1.479192e+002, 8.407998e+003
1.484013e+002, 8.416206e+003
1.488834e+002, 8.426055e+003
1.493655e+002, 8.433369e+003
1.498477e+002, 8.432480e+003
1.503298e+002, 8.433783e+003
1.508119e+002, 8.441401e+003
1.512940e+002, 8.463641e+003
1.517761e+002, 8.479813e+003
1.522583e+002, 8.486053e+003
1.527404e+002, 8.485201e+003
1.532225e+002, 8.485306e+003
1.537046e+002, 8.486738e+003
1.541867e+002, 8.489396e+003
1.546688e+002, 8.493311e+003
1.551510e+002, 8.501176e+003
1.556331e+002, 8.507092e+003
1.561152e+002, 8.507122e+003
1.565973e+002, 8.503558e+003
1.570794e+002, 8.505400e+003
1.575615e+002, 8.520988e+003
1.580437e+002, 8.538814e+003
1.585258e+002, 8.551799e+003
1.590079e+002, 8.555386e+003
1.594900e+002, 8.557190e+003
1.599721e+002, 8.556794e+003
1.604542e+002, 8.555213e+003
1.609364e+002, 8.558350e+003
1.614185e+002, 8.570932e+003
1.619006e+002, 8.587846e+003
1.623827e+002, 8.604968e+003
1.628648e+002, 8.624967e+003
1.633469e+002, 8.641471e+003
1.638291e+002, 8.648858e+003
1.643112e+002, 8.648108e+003
1.647933e+002, 8.650020e+003
1.652754e+002, 8.663479e+003
1.657575e+002, 8.681041e+003
1.662396e+002, 8.694878e+003
1.667218e+002, 8.698161e+003
1.672039e+002, 8.699872e+003
1.676860e+002, 8.705385e+003
1.681681e+002, 8.714698e+003
1.686502e+002, 8.726081e+003
1.691323e+002, 8.740758e+003
1.696145e+002, 8.756310e+003
1.700966e+002, 8.769314e+003
1.705787e+002, 8.776379e+003
1.710608e+002, 8.781589e+003
1.715429e+002, 8.788824e+003
1.720250e+002, 8.798365e+003
1.725072e+002, 8.807412e+003
1.729893e+002, 8.814537e+003
1.734714e+002, 8.819833e+003
1.739535e+002, 8.823432e+003
1.744356e+002, 8.821440e+003
1.749177e+002, 8.819536e+003
1.753999e+002, 8.826420e+003
1.758820e+002, 8.843311e+003
1.763641e+002, 8.860083e+003
1.768462e+002, 8.866451e+003
1.773283e+002, 8.865357e+003
1.778104e+002, 8.864491e+003
1.782926e+002, 8.866689e+003
1.787747e+002, 8.871461e+003
1.792568e+002, 8.879188e+003
1.797389e+002, 8.890262e+003
1.802210e+002, 8.900749e+003
1.807031e+002, 8.904720e+003
1.811853e+002, 8.903701e+003
1.816674e+002, 8.903268e+003
1.821495e+002, 8.906776e+003
1.826316e+002, 8.912918e+003
1.831137e+002, 8.918911e+003
1.835958e+002, 8.924971e+003
1.840780e+002, 8.930113e+003
1.845601e+002, 8.931975e+003
1.850422e+002, 8.931279e+003
1.855243e+002, 8.932279e+003
1.860064e+002, 8.938705e+003
1.864885e+002, 8.949129e+003
1.869707e+002, 8.957689e+003
1.874528e+002, 8.963904e+003
1.879349e+002, 8.969205e+003
1.884170e+002, 8.975678e+003
1.888991e+002, 8.983279e+003
1.893812e+002, 8.991114e+003
1.898634e+002, 8.998935e+003
1.903455e+002, 9.006599e+003
1.908276e+002, 9.013446e+003
1.913097e+002, 9.019061e+003
1.917918e+002, 9.024452e+003
1.922739e+002, 9.031644e+003
1.927561e+002, 9.040689e+003
1.932382e+002, 9.049778e+003
1.937203e+002, 9.057352e+003
1.942024e+002, 9.063543e+003
1.946845e+002, 9.072018e+003
1.951666e+002, 9.083807e+003
1.956488e+002, 9.096602e+003
1.961309e+002, 9.105047e+003
1.966130e+002, 9.108683e+003
1.970951e+002, 9.112936e+003
1.975772e+002, 9.121978e+003
1.980593e+002, 9.135934e+003
1.985415e+002, 9.147047e+003
1.990236e+002, 9.153931e+003
1.995057e+002, 9.158820e+003
1.999878e+002, 9.167006e+003
2.004699e+002, 9.179188e+003
2.009520e+002, 9.191284e+003
2.014342e+002, 9.200281e+003
2.019163e+002, 9.205842e+003
2.023984e+002, 9.213215e+003
2.028805e+002, 9.223400e+003
2.033626e+002, 9.234982e+003
2.038447e+002, 9.244652e+003
2.043269e+002, 9.252392e+003
2.048090e+002, 9.258197e+003
2.052911e+002, 9.261372e+003
2.057732e+002, 9.261375e+003
2.062553e+002, 9.262640e+003
2.067374e+002, 9.266084e+003
2.072196e+002, 9.270568e+003
2.077017e+002, 9.272589e+003
2.081838e+002, 9.271279e+003
2.086659e+002, 9.270004e+003
2.091480e+002, 9.270732e+003
2.096301e+002, 9.273865e+003
2.101123e+002, 9.277459e+003
2.105944e+002, 9.281739e+003
2.110765e+002, 9.286320e+003
2.115586e+002, 9.289588e+003
2.120407e+002, 9.290352e+003
2.125228e+002, 9.292571e+003
2.130050e+002, 9.299383e+003
2.134871e+002, 9.312902e+003
2.139692e+002, 9.322771e+003
2.144513e+002, 9.327450e+003
2.149334e+002, 9.328364e+003
2.154155e+002, 9.329990e+003
2.158977e+002, 9.332658e+003
2.163798e+002, 9.335105e+003
2.168619e+002, 9.336055e+003
2.173440e+002, 9.333939e+003
2.178261e+002, 9.334905e+003
2.183082e+002, 9.339884e+003
2.187904e+002, 9.347759e+003
2.192725e+002, 9.355521e+003
2.197546e+002, 9.363520e+003
2.202367e+002, 9.370608e+003
2.207188e+002, 9.375939e+003
2.212009e+002, 9.378795e+003
2.216831e+002, 9.382057e+003
2.221652e+002, 9.385144e+003
2.226473e+002, 9.389107e+003
2.231294e+002, 9.397066e+003
2.236115e+002, 9.411104e+003
2.240936e+002, 9.426250e+003
2.245758e+002, 9.441145e+003
2.250579e+002, 9.458122e+003
2.255400e+002, 9.468594e+003
2.260221e+002, 9.468667e+003
2.265042e+002, 9.463346e+003
2.269863e+002, 9.467360e+003
2.274685e+002, 9.487807e+003
2.279506e+002, 9.506633e+003
2.284327e+002, 9.514631e+003
2.289148e+002, 9.504716e+003
2.293969e+002, 9.500445e+003
2.298790e+002, 9.503654e+003
2.303612e+002, 9.511917e+003
2.308433e+002, 9.519360e+003
2.313254e+002, 9.526010e+003
2.318075e+002, 9.531597e+003
2.322896e+002, 9.535592e+003
2.327717e+002, 9.536320e+003
2.332539e+002, 9.539269e+003
2.337360e+002, 9.545146e+003
2.342181e+002, 9.552747e+003
2.347002e+002, 9.559557e+003
2.351823e+002, 9.565306e+003
2.356644e+002, 9.570315e+003
2.361466e+002, 9.574679e+003
2.366287e+002, 9.578372e+003
2.371108e+002, 9.581159e+003
2.375929e+002, 9.582508e+003
2.380750e+002, 9.583115e+003
2.385571e+002, 9.584508e+003
2.390393e+002, 9.587438e+003
2.395214e+002, 9.590110e+003
2.400035e+002, 9.592076e+003
2.404856e+002, 9.593707e+003
2.409677e+002, 9.593859e+003
2.414498e+002, 9.591429e+003
2.419320e+002, 9.588400e+003
2.424141e+002, 9.588656e+003
2.428962e+002, 9.595573e+003
2.433783e+002, 9.600685e+003
2.438604e+002, 9.600174e+003
2.443425e+002, 9.591127e+003
2.448247e+002, 9.588045e+003
2.453068e+002, 9.593398e+003
2.457889e+002, 9.603282e+003
2.462710e+002, 9.611600e+003
2.467531e+002, 9.617514e+003
2.472352e+002, 9.623193e+003
2.477174e+002, 9.629568e+003
2.481995e+002, 9.637081e+003
2.486816e+002, 9.641987e+003
2.491637e+002, 9.642474e+003
2.496458e+002, 9.641516e+003
2.501279e+002, 9.643198e+003
2.506101e+002, 9.647576e+003
2.510922e+002, 9.654392e+003
2.515743e+002, 9.664734e+003
2.520564e+002, 9.679760e+003
2.525385e+002, 9.689253e+003
2.530206e+002, 9.691091e+003
2.535028e+002, 9.689339e+003
2.539849e+002, 9.688512e+003
2.544670e+002, 9.687826e+003
2.549491e+002, 9.689955e+003
2.554312e+002, 9.697243e+003
2.559133e+002, 9.710279e+003
2.563955e+002, 9.716743e+003
2.568776e+002, 9.713585e+003
2.573597e+002, 9.707237e+003
2.578418e+002, 9.704402e+003
2.583239e+002, 9.706065e+003
2.588061e+002, 9.708753e+003
2.592882e+002, 9.712342e+003
2.597703e+002, 9.716778e+003
2.602524e+002, 9.719013e+003
2.607345e+002, 9.718318e+003
2.612166e+002, 9.716482e+003
2.616988e+002, 9.715072e+003
2.621809e+002, 9.714367e+003
2.626630e+002, 9.713728e+003
2.631451e+002, 9.714214e+003
2.636272e+002, 9.715208e+003
2.641093e+002, 9.709339e+003
2.645915e+002, 9.692278e+003
2.650736e+002, 9.676100e+003
2.655557e+002, 9.672240e+003
2.660378e+002, 9.686139e+003
2.665199e+002, 9.693335e+003
2.670020e+002, 9.688951e+003
2.674842e+002, 9.675269e+003
2.679663e+002, 9.663375e+003
2.684484e+002, 9.652782e+003
2.689305e+002, 9.644986e+003
2.694126e+002, 9.641595e+003
2.698947e+002, 9.643396e+003
2.703769e+002, 9.645772e+003
2.708590e+002, 9.648411e+003
2.713411e+002, 9.651201e+003
2.718232e+002, 9.653960e+003
2.723053e+002, 9.656908e+003
2.727874e+002, 9.659009e+003
2.732696e+002, 9.659438e+003
2.737517e+002, 9.657906e+003
2.742338e+002, 9.655598e+003
2.747159e+002, 9.650858e+003
2.751980e+002, 9.647092e+003
2.756801e+002, 9.654549e+003
2.761623e+002, 9.676087e+003
2.766444e+002, 9.696400e+003
2.771265e+002, 9.706305e+003
2.776086e+002, 9.704976e+003
2.780907e+002, 9.707564e+003
2.785728e+002, 9.715859e+003
2.790550e+002, 9.726105e+003
2.795371e+002, 9.730816e+003
2.800192e+002, 9.729204e+003
2.805013e+002, 9.728393e+003
2.809834e+002, 9.729709e+003
2.814655e+002, 9.733261e+003
2.819477e+002, 9.747475e+003
2.824298e+002, 9.775171e+003
2.829119e+002, 9.805389e+003
2.833940e+002, 9.820643e+003
2.838761e+002, 9.820416e+003
2.843582e+002, 9.821825e+003
2.848404e+002, 9.831510e+003
2.853225e+002, 9.848261e+003
2.858046e+002, 9.866705e+003
2.862867e+002, 9.887381e+003
2.867688e+002, 9.906021e+003
2.872509e+002, 9.915863e+003
2.877331e+002, 9.917623e+003
2.882152e+002, 9.921346e+003
2.886973e+002, 9.931936e+003
2.891794e+002, 9.946517e+003
2.896615e+002, 9.954000e+003
2.901436e+002, 9.953972e+003
2.906258e+002, 9.954279e+003
2.911079e+002, 9.962412e+003
2.915900e+002, 9.977571e+003
2.920721e+002, 9.995489e+003
2.925542e+002, 1.001684e+004
2.930363e+002, 1.003879e+004
2.935185e+002, 1.005466e+004
2.940006e+002, 1.006465e+004
2.944827e+002, 1.007284e+004
2.949648e+002, 1.008094e+004
2.954469e+002, 1.008974e+004
2.959290e+002, 1.010190e+004
2.964112e+002, 1.011912e+004
2.968933e+002, 1.013781e+004
2.973754e+002, 1.015162e+004
2.978575e+002, 1.016110e+004
2.983396e+002, 1.017071e+004
2.988217e+002, 1.018255e+004
2.993039e+002, 1.019646e+004
2.997860e+002, 1.021234e+004
3.002681e+002, 1.023069e+004
3.007502e+002, 1.024939e+004
3.012323e+002, 1.026606e+004
3.017144e+002, 1.028102e+004
3.021966e+002, 1.029459e+004
3.026787e+002, 1.030899e+004
3.031608e+002, 1.032158e+004
3.036429e+002, 1.032762e+004
3.041250e+002, 1.032591e+004
3.046071e+002, 1.032345e+004
3.050893e+002, 1.032604e+004
3.055714e+002, 1.033258e+004
3.060535e+002, 1.034062e+004
3.065356e+002, 1.035154e+004
3.070177e+002, 1.036207e+004
3.074998e+002, 1.036967e+004
3.079820e+002, 1.037435e+004
3.084641e+002, 1.037460e+004
3.089462e+002, 1.036436e+004
3.094283e+002, 1.035033e+004
3.099104e+002, 1.034174e+004
3.103925e+002, 1.034971e+004
3.108747e+002, 1.035848e+004
3.113568e+002, 1.035609e+004
3.118389e+002, 1.034391e+004
3.123210e+002, 1.033165e+004
3.128031e+002, 1.032370e+004
3.132852e+002, 1.031862e+004
3.137674e+002, 1.031509e+004
3.142495e+002, 1.031362e+004
3.147316e+002, 1.031255e+004
3.152137e+002, 1.031201e+004
3.156958e+002, 1.031139e+004
3.161779e+002, 1.030875e+004
3.166601e+002, 1.030199e+004
3.171422e+002, 1.029357e+004
3.176243e+002, 1.028441e+004
3.181064e+002, 1.027262e+004
3.185885e+002, 1.026440e+004
3.190706e+002, 1.026526e+004
3.195528e+002, 1.027081e+004
3.200349e+002, 1.027261e+004
3.205170e+002, 1.026583e+004
3.209991e+002, 1.025670e+004
3.214812e+002, 1.024688e+004
3.219633e+002, 1.023532e+004
3.224455e+002, 1.022770e+004
3.229276e+002, 1.022825e+004
3.234097e+002, 1.023233e+004
3.238918e+002, 1.023425e+004
3.243739e+002, 1.023107e+004
3.248560e+002, 1.022783e+004
3.253382e+002, 1.022591e+004
3.258203e+002, 1.022554e+004
3.263024e+002, 1.022539e+004
3.267845e+002, 1.022455e+004
3.272666e+002, 1.022449e+004
3.277487e+002, 1.022643e+004
3.282309e+002, 1.023542e+004
3.287130e+002, 1.024045e+004
3.291951e+002, 1.023833e+004
3.296772e+002, 1.023002e+004
3.301593e+002, 1.022530e+004
3.306414e+002, 1.022566e+004
3.311236e+002, 1.022811e+004
3.316057e+002, 1.023105e+004
3.320878e+002, 1.023404e+004
3.325699e+002, 1.023810e+004
3.330520e+002, 1.024422e+004
3.335341e+002, 1.025105e+004
3.340163e+002, 1.025458e+004
3.344984e+002, 1.025282e+004
3.349805e+002, 1.025091e+004
3.354626e+002, 1.025059e+004
3.359447e+002, 1.025150e+004
3.364268e+002, 1.025619e+004
3.369090e+002, 1.026709e+004
3.373911e+002, 1.027950e+004
3.378732e+002, 1.028534e+004
3.383553e+002, 1.028316e+004
3.388374e+002, 1.027985e+004
3.393195e+002, 1.027690e+004
3.398017e+002, 1.027449e+004
3.402838e+002, 1.027556e+004
3.407659e+002, 1.028152e+004
3.412480e+002, 1.028771e+004
3.417301e+002, 1.028899e+004
3.422122e+002, 1.028506e+004
3.426944e+002, 1.028014e+004
3.431765e+002, 1.027381e+004
3.436586e+002, 1.026768e+004
3.441407e+002, 1.026871e+004
3.446228e+002, 1.027737e+004
3.451049e+002, 1.028680e+004
3.455871e+002, 1.029075e+004
3.460692e+002, 1.029023e+004
3.465513e+002, 1.029259e+004
3.470334e+002, 1.029983e+004
3.475155e+002, 1.030810e+004
3.479977e+002, 1.030936e+004
3.484798e+002, 1.030454e+004
3.489619e+002, 1.030138e+004
3.494440e+002, 1.030614e+004
3.499261e+002, 1.031558e+004
3.504082e+002, 1.032273e+004
3.508904e+002, 1.032716e+004
3.513725e+002, 1.032929e+004
3.518546e+002, 1.032623e+004
3.523367e+002, 1.032085e+004
3.528188e+002, 1.032061e+004
3.533009e+002, 1.033630e+004
3.537831e+002, 1.035485e+004
3.542652e+002, 1.035759e+004
3.547473e+002, 1.034527e+004
3.552294e+002, 1.033482e+004
3.557115e+002, 1.034311e+004
3.561936e+002, 1.035929e+004
3.566758e+002, 1.036891e+004
3.571579e+002, 1.036458e+004
3.576400e+002, 1.035673e+004
3.581221e+002, 1.035175e+004
3.586042e+002, 1.034931e+004
3.590863e+002, 1.034794e+004
3.595685e+002, 1.034622e+004
3.600506e+002, 1.034581e+004
3.605327e+002, 1.034846e+004
3.610148e+002, 1.035595e+004
3.614969e+002, 1.036271e+004
3.619790e+002, 1.036459e+004
3.624612e+002, 1.036451e+004
3.629433e+002, 1.036740e+004
3.634254e+002, 1.037845e+004
3.639075e+002, 1.038941e+004
3.643896e+002, 1.039672e+004
3.648717e+002, 1.039964e+004
3.653539e+002, 1.040205e+004
3.658360e+002, 1.040346e+004
3.663181e+002, 1.040514e+004
3.668002e+002, 1.040831e+004
3.672823e+002, 1.041674e+004
3.677644e+002, 1.042247e+004
3.682466e+002, 1.042162e+004
3.687287e+002, 1.041515e+004
3.692108e+002, 1.041468e+004
3.696929e+002, 1.042738e+004
3.701750e+002, 1.043988e+004
3.706571e+002, 1.044520e+004
3.711393e+002, 1.043851e+004
3.716214e+002, 1.043316e+004
3.721035e+002, 1.042843e+004
3.725856e+002, 1.042545e+004
3.730677e+002, 1.042700e+004
3.735498e+002, 1.043501e+004
3.740320e+002, 1.044413e+004
3.745141e+002, 1.045272e+004
3.749962e+002, 1.046082e+004
3.754783e+002, 1.046812e+004
3.759604e+002, 1.047463e+004
3.764425e+002, 1.048018e+004
3.769247e+002, 1.048445e+004
3.774068e+002, 1.048735e+004
3.778889e+002, 1.048887e+004
3.783710e+002, 1.048750e+004
3.788531e+002, 1.048495e+004
3.793352e+002, 1.048951e+004
3.798174e+002, 1.050194e+004
3.802995e+002, 1.051596e+004
3.807816e+002, 1.052697e+004
3.812637e+002, 1.053525e+004
3.817458e+002, 1.054190e+004
3.822279e+002, 1.054650e+004
3.827101e+002, 1.055096e+004
3.831922e+002, 1.055951e+004
3.836743e+002, 1.057154e+004
3.841564e+002, 1.058215e+004
3.846385e+002, 1.058605e+004
3.851206e+002, 1.058730e+004
3.856028e+002, 1.059562e+004
3.860849e+002, 1.061204e+004
3.865670e+002, 1.062814e+004
3.870491e+002, 1.063464e+004
3.875312e+002, 1.063530e+004
3.880133e+002, 1.063765e+004
3.884955e+002, 1.064440e+004
3.889776e+002, 1.065399e+004
3.894597e+002, 1.066688e+004
3.899418e+002, 1.068218e+004
3.904239e+002, 1.069470e+004
3.909060e+002, 1.069810e+004
3.913882e+002, 1.069894e+004
3.918703e+002, 1.070314e+004
3.923524e+002, 1.071267e+004
3.928345e+002, 1.072427e+004
3.933166e+002, 1.073899e+004
3.937987e+002, 1.075462e+004
3.942809e+002, 1.076653e+004
3.947630e+002, 1.077089e+004
3.952451e+002, 1.077328e+004
3.957272e+002, 1.077632e+004
3.962093e+002, 1.078054e+004
3.966914e+002, 1.078285e+004
3.971736e+002, 1.077921e+004
3.976557e+002, 1.077486e+004
3.981378e+002, 1.077460e+004
3.986199e+002, 1.078555e+004
3.991020e+002, 1.079288e+004
3.995841e+002, 1.079373e+004
4.000663e+002, 1.078887e+004
4.005484e+002, 1.078374e+004
4.010305e+002, 1.077904e+004
4.015126e+002, 1.077337e+004
4.019947e+002, 1.076605e+004
4.024768e+002, 1.075695e+004
4.029590e+002, 1.074705e+004
4.034411e+002, 1.073635e+004
4.039232e+002, 1.072514e+004
4.044053e+002, 1.071373e+004
4.048874e+002, 1.070203e+004
4.053695e+002, 1.069078e+004
4.058517e+002, 1.067952e+004
4.063338e+002, 1.066866e+004
4.068159e+002, 1.066241e+004
4.072980e+002, 1.066176e+004
4.077801e+002, 1.066252e+004
4.082622e+002, 1.065980e+004
4.087444e+002, 1.065380e+004
4.092265e+002, 1.065139e+004
4.097086e+002, 1.065549e+004
4.101907e+002, 1.066140e+004
4.106728e+002, 1.065807e+004
4.111549e+002, 1.064619e+004
4.116371e+002, 1.063473e+004
4.121192e+002, 1.062881e+004
4.126013e+002, 1.062721e+004
4.130834e+002, 1.062886e+004
4.135655e+002, 1.063419e+004
4.140476e+002, 1.063821e+004
4.145298e+002, 1.063439e+004
4.150119e+002, 1.062579e+004
4.154940e+002, 1.061854e+004
4.159761e+002, 1.061505e+004
4.164582e+002, 1.061407e+004
4.169403e+002, 1.061608e+004
4.174225e+002, 1.062052e+004
4.179046e+002, 1.062358e+004
4.183867e+002, 1.062231e+004
4.188688e+002, 1.061927e+004
4.193509e+002, 1.061675e+004
4.198330e+002, 1.061614e+004
4.203152e+002, 1.061432e+004
4.207973e+002, 1.060838e+004
4.212794e+002, 1.060076e+004
4.217615e+002, 1.059573e+004
4.222436e+002, 1.059387e+004
4.227257e+002, 1.059545e+004
4.232079e+002, 1.060245e+004
4.236900e+002, 1.061612e+004
4.241721e+002, 1.062549e+004
4.246542e+002, 1.062719e+004
4.251363e+002, 1.062587e+004
4.256184e+002, 1.062457e+004
4.261006e+002, 1.061955e+004
4.265827e+002, 1.062034e+004
4.270648e+002, 1.063002e+004
4.275469e+002, 1.064572e+004
4.280290e+002, 1.065722e+004
4.285111e+002, 1.066263e+004
4.289933e+002, 1.066701e+004
4.294754e+002, 1.067230e+004
4.299575e+002, 1.067853e+004
4.304396e+002, 1.068454e+004
4.309217e+002, 1.069021e+004
4.314038e+002, 1.069562e+004
4.318860e+002, 1.070102e+004
4.323681e+002, 1.070648e+004
4.328502e+002, 1.071095e+004
4.333323e+002, 1.071403e+004
4.338144e+002, 1.071631e+004
4.342965e+002, 1.071939e+004
4.347787e+002, 1.072340e+004
4.352608e+002, 1.072748e+004
4.357429e+002, 1.073157e+004
4.362250e+002, 1.073545e+004
4.367071e+002, 1.073716e+004
4.371892e+002, 1.073553e+004
4.376714e+002, 1.073651e+004
4.381535e+002, 1.074746e+004
4.386356e+002, 1.076586e+004
4.391177e+002, 1.078605e+004
4.395998e+002, 1.080814e+004
4.400819e+002, 1.082899e+004
4.405641e+002, 1.084451e+004
4.410462e+002, 1.085513e+004
4.415283e+002, 1.086667e+004
4.420104e+002, 1.088189e+004
4.424925e+002, 1.089927e+004
4.429746e+002, 1.091731e+004
4.434568e+002, 1.093578e+004
4.439389e+002, 1.095463e+004
4.444210e+002, 1.097325e+004
4.449031e+002, 1.099222e+004
4.453852e+002, 1.101279e+004
4.458673e+002, 1.103630e+004
4.463495e+002, 1.106019e+004
4.468316e+002, 1.108383e+004
4.473137e+002, 1.110715e+004
4.477958e+002, 1.113154e+004
4.482779e+002, 1.115789e+004
4.487600e+002, 1.118458e+004
4.492422e+002, 1.120964e+004
4.497243e+002, 1.122900e+004
4.502064e+002, 1.125655e+004
4.506885e+002, 1.129743e+004
4.511706e+002, 1.134587e+004
4.516527e+002, 1.138422e+004
4.521349e+002, 1.140974e+004
4.526170e+002, 1.143547e+004
4.530991e+002, 1.146558e+004
4.535812e+002, 1.150045e+004
4.540633e+002, 1.154319e+004
4.545454e+002, 1.159568e+004
4.550276e+002, 1.164847e+004
4.555097e+002, 1.168877e+004
4.559918e+002, 1.171908e+004
4.564739e+002, 1.175240e+004
4.569560e+002, 1.179361e+004
4.574381e+002, 1.183722e+004
4.579203e+002, 1.187396e+004
4.584024e+002, 1.190504e+004
4.588845e+002, 1.193715e+004
4.593666e+002, 1.197890e+004
4.598488e+002, 1.202156e+004
4.603309e+002, 1.205115e+004
4.608130e+002, 1.206531e+004
4.612951e+002, 1.208149e+004
4.617772e+002, 1.211957e+004
4.622593e+002, 1.216354e+004
4.627415e+002, 1.219379e+004
4.632236e+002, 1.219417e+004
4.637057e+002, 1.218982e+004
4.641878e+002, 1.219143e+004
4.646699e+002, 1.219650e+004
4.651520e+002, 1.219601e+004
4.656342e+002, 1.218183e+004
4.661163e+002, 1.216659e+004
4.665984e+002, 1.215643e+004
4.670805e+002, 1.215529e+004
4.675626e+002, 1.214944e+004
4.680447e+002, 1.213846e+004
4.685269e+002, 1.212293e+004
4.690090e+002, 1.210242e+004
4.694911e+002, 1.207209e+004
4.699732e+002, 1.204646e+004
4.704553e+002, 1.202995e+004
4.709374e+002, 1.201946e+004
4.714196e+002, 1.200055e+004
4.719017e+002, 1.197119e+004
4.723838e+002, 1.193938e+004
4.728659e+002, 1.190885e+004
4.733480e+002, 1.187936e+004
4.738301e+002, 1.185094e+004
4.743123e+002, 1.182369e+004
4.747944e+002, 1.179600e+004
4.752765e+002, 1.176653e+004
4.757586e+002, 1.173511e+004
4.762407e+002, 1.170028e+004
4.767228e+002, 1.165846e+004
4.772050e+002, 1.161652e+004
4.776871e+002, 1.158816e+004
4.781692e+002, 1.157085e+004
4.786513e+002, 1.155264e+004
4.791334e+002, 1.152645e+004
4.796155e+002, 1.149550e+004
4.800977e+002, 1.146145e+004
4.805798e+002, 1.142373e+004
4.810619e+002, 1.138990e+004
4.815440e+002, 1.136625e+004
4.820261e+002, 1.134890e+004
4.825082e+002, 1.133312e+004
4.829904e+002, 1.131961e+004
4.834725e+002, 1.130535e+004
4.839546e+002, 1.128867e+004
4.844367e+002, 1.127012e+004
4.849188e+002, 1.125265e+004
4.854009e+002, 1.123187e+004
4.858831e+002, 1.121622e+004
4.863652e+002, 1.121025e+004
4.868473e+002, 1.121840e+004
4.873294e+002, 1.121928e+004
4.878115e+002, 1.120923e+004
4.882936e+002, 1.119490e+004
4.887758e+002, 1.118239e+004
4.892579e+002, 1.117102e+004
4.897400e+002, 1.116365e+004
4.902221e+002, 1.116268e+004
4.907042e+002, 1.116468e+004
4.911863e+002, 1.115831e+004
4.916685e+002, 1.114279e+004
4.921506e+002, 1.112704e+004
4.926327e+002, 1.111684e+004
4.931148e+002, 1.111091e+004
4.935969e+002, 1.110293e+004
4.940790e+002, 1.109256e+004
4.945612e+002, 1.108350e+004
4.950433e+002, 1.108224e+004
4.955254e+002, 1.108498e+004
4.960075e+002, 1.108248e+004
4.964896e+002, 1.106869e+004
4.969717e+002, 1.105459e+004
4.974539e+002, 1.105115e+004
4.979360e+002, 1.105581e+004
4.984181e+002, 1.106210e+004
4.989002e+002, 1.106725e+004
4.993823e+002, 1.107268e+004
4.998644e+002, 1.108010e+004
5.003466e+002, 1.108985e+004
5.008287e+002, 1.109660e+004
5.013108e+002, 1.109582e+004
5.017929e+002, 1.109274e+004
5.022750e+002, 1.109130e+004
5.027571e+002, 1.109377e+004
5.032393e+002, 1.109516e+004
5.037214e+002, 1.109432e+004
5.042035e+002, 1.109233e+004
5.046856e+002, 1.109167e+004
5.051677e+002, 1.109363e+004
5.056498e+002, 1.109453e+004
5.061320e+002, 1.109260e+004
5.066141e+002, 1.108814e+004
5.070962e+002, 1.108756e+004
5.075783e+002, 1.109206e+004
5.080604e+002, 1.109702e+004
5.085425e+002, 1.109876e+004
5.090247e+002, 1.109760e+004
5.095068e+002, 1.109567e+004
5.099889e+002, 1.109315e+004
5.104710e+002, 1.109061e+004
5.109531e+002, 1.108833e+004
5.114352e+002, 1.108658e+004
5.119174e+002, 1.108620e+004
5.123995e+002, 1.108770e+004
5.128816e+002, 1.109061e+004
5.133637e+002, 1.109472e+004
5.138458e+002, 1.109979e+004
5.143279e+002, 1.110481e+004
5.148101e+002, 1.111053e+004
5.152922e+002, 1.111479e+004
5.157743e+002, 1.111472e+004
5.162564e+002, 1.110781e+004
5.167385e+002, 1.110343e+004
5.172206e+002, 1.110783e+004
5.177028e+002, 1.111515e+004
5.181849e+002, 1.111877e+004
5.186670e+002, 1.111270e+004
5.191491e+002, 1.110874e+004
5.196312e+002, 1.111028e+004
5.201133e+002, 1.111575e+004
5.205955e+002, 1.111811e+004
5.210776e+002, 1.111638e+004
5.215597e+002, 1.111371e+004
5.220418e+002, 1.111101e+004
5.225239e+002, 1.110821e+004
5.230060e+002, 1.110873e+004
5.234882e+002, 1.111346e+004
5.239703e+002, 1.111967e+004
5.244524e+002, 1.112495e+004
5.249345e+002, 1.112928e+004
5.254166e+002, 1.113216e+004
5.258987e+002, 1.113267e+004
5.263809e+002, 1.113314e+004
5.268630e+002, 1.113759e+004
5.273451e+002, 1.114528e+004
5.278272e+002, 1.115324e+004
5.283093e+002, 1.115957e+004
5.287914e+002, 1.116540e+004
5.292736e+002, 1.117151e+004
5.297557e+002, 1.117789e+004
5.302378e+002, 1.118533e+004
5.307199e+002, 1.119567e+004
5.312020e+002, 1.120638e+004
5.316841e+002, 1.121542e+004
5.321663e+002, 1.122276e+004
5.326484e+002, 1.122780e+004
5.331305e+002, 1.122978e+004
5.336126e+002, 1.122975e+004
5.340947e+002, 1.122924e+004
5.345768e+002, 1.122553e+004
5.350590e+002, 1.122528e+004
5.355411e+002, 1.123106e+004
5.360232e+002, 1.124184e+004
5.365053e+002, 1.125074e+004
5.369874e+002, 1.125777e+004
5.374695e+002, 1.126329e+004
5.379517e+002, 1.126654e+004
5.384338e+002, 1.126733e+004
5.389159e+002, 1.127175e+004
5.393980e+002, 1.128018e+004
5.398801e+002, 1.129060e+004
5.403622e+002, 1.130050e+004
5.408444e+002, 1.131016e+004
5.413265e+002, 1.132137e+004
5.418086e+002, 1.133459e+004
5.422907e+002, 1.134938e+004
5.427728e+002, 1.136438e+004
5.432549e+002, 1.138042e+004
5.437371e+002, 1.139966e+004
5.442192e+002, 1.142653e+004
5.447013e+002, 1.145445e+004
5.451834e+002, 1.147840e+004
5.456655e+002, 1.149868e+004
5.461476e+002, 1.151876e+004
5.466298e+002, 1.153861e+004
5.471119e+002, 1.156002e+004
5.475940e+002, 1.158456e+004
5.480761e+002, 1.161508e+004
5.485582e+002, 1.164375e+004
5.490403e+002, 1.166824e+004
5.495225e+002, 1.169183e+004
5.500046e+002, 1.171779e+004
5.504867e+002, 1.174537e+004
5.509688e+002, 1.177716e+004
5.514509e+002, 1.181529e+004
5.519330e+002, 1.185752e+004
5.524152e+002, 1.189405e+004
5.528973e+002, 1.192385e+004
5.533794e+002, 1.195431e+004
5.538615e+002, 1.198940e+004
5.543436e+002, 1.202831e+004
5.548257e+002, 1.206829e+004
5.553079e+002, 1.210911e+004
5.557900e+002, 1.214769e+004
5.562721e+002, 1.218158e+004
5.567542e+002, 1.221074e+004
5.572363e+002, 1.223512e+004
5.577184e+002, 1.225525e+004
5.582006e+002, 1.226927e+004
5.586827e+002, 1.227689e+004
5.591648e+002, 1.227733e+004
5.596469e+002, 1.226935e+004
5.601290e+002, 1.225412e+004
5.606111e+002, 1.222898e+004
5.610933e+002, 1.218974e+004
5.615754e+002, 1.213825e+004
5.620575e+002, 1.208708e+004
5.625396e+002, 1.203578e+004
5.630217e+002, 1.198716e+004
5.635038e+002, 1.194252e+004
5.639860e+002, 1.190281e+004
5.644681e+002, 1.186057e+004
5.649502e+002, 1.181200e+004
5.654323e+002, 1.176676e+004
5.659144e+002, 1.173720e+004
5.663965e+002, 1.172473e+004
5.668787e+002, 1.170834e+004
5.673608e+002, 1.168354e+004
5.678429e+002, 1.165712e+004
5.683250e+002, 1.164175e+004
5.688071e+002, 1.163612e+004
5.692892e+002, 1.163421e+004
5.697714e+002, 1.163440e+004
5.702535e+002, 1.163621e+004
5.707356e+002, 1.163983e+004
5.712177e+002, 1.164486e+004
5.716998e+002, 1.164878e+004
5.721819e+002, 1.164711e+004
5.726641e+002, 1.164574e+004
5.731462e+002, 1.164977e+004
5.736283e+002, 1.166071e+004
5.741104e+002, 1.167159e+004
5.745925e+002, 1.168045e+004
5.750746e+002, 1.168812e+004
5.755568e+002, 1.169544e+004
5.760389e+002, 1.169983e+004
5.765210e+002, 1.170743e+004
5.770031e+002, 1.172048e+004
5.774852e+002, 1.173615e+004
5.779673e+002, 1.174914e+004
5.784495e+002, 1.176000e+004
5.789316e+002, 1.176667e+004
5.794137e+002, 1.176581e+004
5.798958e+002, 1.176092e+004
5.803779e+002, 1.176929e+004
5.808600e+002, 1.179151e+004
5.813422e+002, 1.181395e+004
5.818243e+002, 1.182447e+004
5.823064e+002, 1.182885e+004
5.827885e+002, 1.184022e+004
5.832706e+002, 1.185979e+004
5.837527e+002, 1.188260e+004
5.842349e+002, 1.190762e+004
5.847170e+002, 1.193244e+004
5.851991e+002, 1.195378e+004
5.856812e+002, 1.196948e+004
5.861633e+002, 1.198393e+004
5.866454e+002, 1.199613e+004
5.871276e+002, 1.200865e+004
5.876097e+002, 1.202605e+004
5.880918e+002, 1.205476e+004
5.885739e+002, 1.208220e+004
5.890560e+002, 1.210599e+004
5.895381e+002, 1.212634e+004
5.900203e+002, 1.214494e+004
5.905024e+002, 1.216304e+004
5.909845e+002, 1.217722e+004
5.914666e+002, 1.218472e+004
5.919487e+002, 1.218565e+004
5.924308e+002, 1.218876e+004
5.929130e+002, 1.219492e+004
5.933951e+002, 1.219967e+004
5.938772e+002, 1.219747e+004
5.943593e+002, 1.219022e+004
5.948414e+002, 1.218408e+004
5.953235e+002, 1.218052e+004
5.958057e+002, 1.217734e+004
5.962878e+002, 1.217409e+004
5.967699e+002, 1.216930e+004
5.972520e+002, 1.216034e+004
5.977341e+002, 1.214043e+004
5.982162e+002, 1.212137e+004
5.986984e+002, 1.210969e+004
5.991805e+002, 1.210380e+004
5.996626e+002, 1.209703e+004
6.001447e+002, 1.208404e+004
6.006268e+002, 1.207335e+004
6.011089e+002, 1.206879e+004
6.015911e+002, 1.207090e+004
6.020732e+002, 1.207183e+004
6.025553e+002, 1.207217e+004
6.030374e+002, 1.207045e+004
6.035195e+002, 1.206366e+004
6.040016e+002, 1.205086e+004
6.044838e+002, 1.204708e+004
6.049659e+002, 1.205485e+004
6.054480e+002, 1.206638e+004
6.059301e+002, 1.207233e+004
6.064122e+002, 1.207358e+004
6.068943e+002, 1.207384e+004
6.073765e+002, 1.207425e+004
6.078586e+002, 1.207385e+004
6.083407e+002, 1.206952e+004
6.088228e+002, 1.206339e+004
6.093049e+002, 1.206076e+004
6.097870e+002, 1.206844e+004
6.102692e+002, 1.207624e+004
6.107513e+002, 1.207788e+004
6.112334e+002, 1.207375e+004
6.117155e+002, 1.207059e+004
6.121976e+002, 1.207174e+004
6.126797e+002, 1.207236e+004
6.131619e+002, 1.207011e+004
6.136440e+002, 1.206424e+004
6.141261e+002, 1.205919e+004
6.146082e+002, 1.205513e+004
6.150903e+002, 1.205167e+004
6.155724e+002, 1.204938e+004
6.160546e+002, 1.204851e+004
6.165367e+002, 1.204249e+004
6.170188e+002, 1.202893e+004
6.175009e+002, 1.201442e+004
6.179830e+002, 1.201056e+004
6.184651e+002, 1.201426e+004
6.189473e+002, 1.201464e+004
6.194294e+002, 1.200561e+004
6.199115e+002, 1.199405e+004
6.203936e+002, 1.198698e+004
6.208757e+002, 1.198283e+004
6.213578e+002, 1.197701e+004
6.218400e+002, 1.196505e+004
6.223221e+002, 1.195296e+004
6.228042e+002, 1.194448e+004
6.232863e+002, 1.193980e+004
6.237684e+002, 1.193379e+004
6.242505e+002, 1.192627e+004
6.247327e+002, 1.191707e+004
6.252148e+002, 1.190514e+004
6.256969e+002, 1.188824e+004
6.261790e+002, 1.187910e+004
6.266611e+002, 1.188061e+004
6.271432e+002, 1.188413e+004
6.276254e+002, 1.187911e+004
6.281075e+002, 1.186627e+004
6.285896e+002, 1.185754e+004
6.290717e+002, 1.185575e+004
6.295538e+002, 1.185630e+004
6.300359e+002, 1.185302e+004
6.305181e+002, 1.184716e+004
6.310002e+002, 1.184191e+004
6.314823e+002, 1.184012e+004
6.319644e+002, 1.183772e+004
6.324465e+002, 1.182964e+004
6.329286e+002, 1.181815e+004
6.334108e+002, 1.181061e+004
6.338929e+002, 1.181568e+004
6.343750e+002, 1.181922e+004
6.348571e+002, 1.181378e+004
6.353392e+002, 1.179864e+004
6.358214e+002, 1.178876e+004
6.363035e+002, 1.178667e+004
6.367856e+002, 1.178640e+004
6.372677e+002, 1.178537e+004
6.377498e+002, 1.178397e+004
6.382319e+002, 1.177877e+004
6.387141e+002, 1.176872e+004
6.391962e+002, 1.175925e+004
6.396783e+002, 1.175690e+004
6.401604e+002, 1.176010e+004
6.406425e+002, 1.176263e+004
6.411246e+002, 1.176333e+004
6.416068e+002, 1.176342e+004
6.420889e+002, 1.176411e+004
6.425710e+002, 1.176506e+004
6.430531e+002, 1.176567e+004
6.435352e+002, 1.176476e+004
6.440173e+002, 1.176431e+004
6.444995e+002, 1.176594e+004
6.449816e+002, 1.176860e+004
6.454637e+002, 1.176946e+004
6.459458e+002, 1.176504e+004
6.464279e+002, 1.176192e+004
6.469100e+002, 1.176130e+004
6.473922e+002, 1.176318e+004
6.478743e+002, 1.176871e+004
6.483564e+002, 1.178014e+004
6.488385e+002, 1.178850e+004
6.493206e+002, 1.178649e+004
6.498027e+002, 1.177554e+004
6.502849e+002, 1.176888e+004
6.507670e+002, 1.176667e+004
6.512491e+002, 1.176720e+004
6.517312e+002, 1.176969e+004
6.522133e+002, 1.177373e+004
6.526954e+002, 1.177966e+004
6.531776e+002, 1.178865e+004
6.536597e+002, 1.179470e+004
6.541418e+002, 1.179118e+004
6.546239e+002, 1.178402e+004
6.551060e+002, 1.178011e+004
6.555881e+002, 1.178154e+004
6.560703e+002, 1.178585e+004
6.565524e+002, 1.179705e+004
6.570345e+002, 1.180974e+004
6.575166e+002, 1.181391e+004
6.579987e+002, 1.180713e+004
6.584808e+002, 1.179732e+004
6.589630e+002, 1.178312e+004
6.594451e+002, 1.176861e+004
6.599272e+002, 1.177159e+004
6.604093e+002, 1.179212e+004
6.608914e+002, 1.180914e+004
6.613735e+002, 1.180749e+004
6.618557e+002, 1.179626e+004
6.623378e+002, 1.179225e+004
6.628199e+002, 1.179492e+004
6.633020e+002, 1.179797e+004
6.637841e+002, 1.179775e+004
6.642662e+002, 1.179619e+004
6.647484e+002, 1.179432e+004
6.652305e+002, 1.179200e+004
6.657126e+002, 1.179157e+004
6.661947e+002, 1.179225e+004
6.666768e+002, 1.179606e+004
6.671589e+002, 1.180496e+004
6.676411e+002, 1.182494e+004
6.681232e+002, 1.183591e+004
6.686053e+002, 1.183422e+004
6.690874e+002, 1.182814e+004
6.695695e+002, 1.182849e+004
6.700516e+002, 1.183510e+004
6.705338e+002, 1.184093e+004
6.710159e+002, 1.184466e+004
6.714980e+002, 1.184681e+004
6.719801e+002, 1.184672e+004
6.724622e+002, 1.184562e+004
6.729443e+002, 1.184691e+004
6.734265e+002, 1.185614e+004
6.739086e+002, 1.186445e+004
6.743907e+002, 1.186485e+004
6.748728e+002, 1.185947e+004
6.753549e+002, 1.185471e+004
6.758370e+002, 1.185060e+004
6.763192e+002, 1.184955e+004
6.768013e+002, 1.185404e+004
6.772834e+002, 1.186350e+004
6.777655e+002, 1.186954e+004
6.782476e+002, 1.186959e+004
6.787297e+002, 1.187156e+004
6.792119e+002, 1.188107e+004
6.796940e+002, 1.189749e+004
6.801761e+002, 1.190769e+004
6.806582e+002, 1.191129e+004
6.811403e+002, 1.191135e+004
6.816224e+002, 1.190755e+004
6.821046e+002, 1.190264e+004
6.825867e+002, 1.190217e+004
6.830688e+002, 1.190705e+004
6.835509e+002, 1.191396e+004
6.840330e+002, 1.192312e+004
6.845151e+002, 1.193192e+004
6.849973e+002, 1.193758e+004
6.854794e+002, 1.193623e+004
6.859615e+002, 1.193729e+004
6.864436e+002, 1.194541e+004
6.869257e+002, 1.195529e+004
6.874078e+002, 1.196012e+004
6.878900e+002, 1.195675e+004
6.883721e+002, 1.195789e+004
6.888542e+002, 1.196725e+004
6.893363e+002, 1.197989e+004
6.898184e+002, 1.198478e+004
6.903005e+002, 1.198250e+004
6.907827e+002, 1.197996e+004
6.912648e+002, 1.197919e+004
6.917469e+002, 1.198019e+004
6.922290e+002, 1.198359e+004
6.927111e+002, 1.198885e+004
6.931932e+002, 1.199418e+004
6.936754e+002, 1.199481e+004
6.941575e+002, 1.199850e+004
6.946396e+002, 1.201334e+004
6.951217e+002, 1.203784e+004
6.956038e+002, 1.205413e+004
6.960859e+002, 1.205504e+004
6.965681e+002, 1.205119e+004
6.970502e+002, 1.204485e+004
6.975323e+002, 1.203574e+004
6.980144e+002, 1.203161e+004
6.984965e+002, 1.203326e+004
6.989786e+002, 1.203727e+004
6.994608e+002, 1.204228e+004
6.999429e+002, 1.204784e+004
7.004250e+002, 1.205148e+004
7.009071e+002, 1.205309e+004
7.013892e+002, 1.205384e+004
7.018713e+002, 1.205346e+004
7.023535e+002, 1.205343e+004
7.028356e+002, 1.205579e+004
7.033177e+002, 1.206158e+004
7.037998e+002, 1.206784e+004
7.042819e+002, 1.207470e+004
7.047640e+002, 1.208085e+004
7.052462e+002, 1.208477e+004
7.057283e+002, 1.208471e+004
7.062104e+002, 1.208486e+004
7.066925e+002, 1.208420e+004
7.071746e+002, 1.208477e+004
7.076567e+002, 1.209170e+004
7.081389e+002, 1.210558e+004
7.086210e+002, 1.211412e+004
7.091031e+002, 1.211321e+004
7.095852e+002, 1.210803e+004
7.100673e+002, 1.210590e+004
7.105494e+002, 1.210660e+004
7.110316e+002, 1.210942e+004
7.115137e+002, 1.211651e+004
7.119958e+002, 1.212342e+004
7.124779e+002, 1.212529e+004
7.129600e+002, 1.212444e+004
7.134421e+002, 1.212790e+004
7.139243e+002, 1.214718e+004
7.144064e+002, 1.216054e+004
7.148885e+002, 1.215758e+004
7.153706e+002, 1.214136e+004
7.158527e+002, 1.213703e+004
7.163348e+002, 1.214758e+004
7.168170e+002, 1.216102e+004
7.172991e+002, 1.217307e+004
7.177812e+002, 1.218327e+004
7.182633e+002, 1.218728e+004
7.187454e+002, 1.218527e+004
7.192275e+002, 1.218373e+004
7.197097e+002, 1.218889e+004
7.201918e+002, 1.219625e+004
7.206739e+002, 1.220010e+004
7.211560e+002, 1.219996e+004
7.216381e+002, 1.220029e+004
7.221202e+002, 1.220433e+004
7.226024e+002, 1.220884e+004
7.230845e+002, 1.221141e+004
7.235666e+002, 1.221085e+004
7.240487e+002, 1.221168e+004
7.245308e+002, 1.221397e+004
7.250129e+002, 1.221773e+004
7.254951e+002, 1.222383e+004
7.259772e+002, 1.223257e+004
7.264593e+002, 1.223839e+004
7.269414e+002, 1.224052e+004
7.274235e+002, 1.224117e+004
7.279056e+002, 1.224164e+004
7.283878e+002, 1.224260e+004
7.288699e+002, 1.224525e+004
7.293520e+002, 1.224938e+004
7.298341e+002, 1.225662e+004
7.303162e+002, 1.227256e+004
7.307983e+002, 1.229053e+004
7.312805e+002, 1.230239e+004
7.317626e+002, 1.229935e+004
7.322447e+002, 1.229928e+004
7.327268e+002, 1.230747e+004
7.332089e+002, 1.231765e+004
7.336910e+002, 1.231770e+004
7.341732e+002, 1.230397e+004
7.346553e+002, 1.229733e+004
7.351374e+002, 1.230348e+004
7.356195e+002, 1.231703e+004
7.361016e+002, 1.232914e+004
7.365837e+002, 1.233973e+004
7.370659e+002, 1.234852e+004
7.375480e+002, 1.235471e+004
7.380301e+002, 1.235959e+004
7.385122e+002, 1.236364e+004
7.389943e+002, 1.236714e+004
7.394764e+002, 1.237091e+004
7.399586e+002, 1.237585e+004
7.404407e+002, 1.238033e+004
7.409228e+002, 1.238392e+004
7.414049e+002, 1.238661e+004
7.418870e+002, 1.238779e+004
7.423691e+002, 1.238619e+004
7.428513e+002, 1.238653e+004
7.433334e+002, 1.239140e+004
7.438155e+002, 1.239959e+004
7.442976e+002, 1.240633e+004
7.447797e+002, 1.241169e+004
7.452618e+002, 1.241508e+004
7.457440e+002, 1.241498e+004
7.462261e+002, 1.241353e+004
7.467082e+002, 1.241267e+004
7.471903e+002, 1.241257e+004
7.476724e+002, 1.241381e+004
7.481545e+002, 1.241494e+004
7.486367e+002, 1.241892e+004
7.491188e+002, 1.243040e+004
7.496009e+002, 1.245125e+004
7.500830e+002, 1.245858e+004
7.505651e+002, 1.244528e+004
7.510472e+002, 1.243145e+004
7.515294e+002, 1.243026e+004
7.520115e+002, 1.244115e+004
7.524936e+002, 1.244768e+004
7.529757e+002, 1.244967e+004
7.534578e+002, 1.245081e+004
7.539399e+002, 1.245429e+004
7.544221e+002, 1.245898e+004
7.549042e+002, 1.246376e+004
7.553863e+002, 1.246876e+004
7.558684e+002, 1.247181e+004
7.563505e+002, 1.247000e+004
7.568326e+002, 1.246720e+004
7.573148e+002, 1.246644e+004
7.577969e+002, 1.246870e+004
7.582790e+002, 1.247133e+004
7.587611e+002, 1.247339e+004
7.592432e+002, 1.247716e+004
7.597253e+002, 1.248566e+004
7.602075e+002, 1.249907e+004
7.606896e+002, 1.250912e+004
7.611717e+002, 1.251477e+004
7.616538e+002, 1.251901e+004
7.621359e+002, 1.252617e+004
7.626180e+002, 1.253400e+004
7.631002e+002, 1.253767e+004
7.635823e+002, 1.253472e+004
7.640644e+002, 1.253267e+004
7.645465e+002, 1.253818e+004
7.650286e+002, 1.254565e+004
7.655107e+002, 1.254893e+004
7.659929e+002, 1.253875e+004
7.664750e+002, 1.253794e+004
7.669571e+002, 1.255040e+004
7.674392e+002, 1.256862e+004
7.679213e+002, 1.258421e+004
7.684034e+002, 1.259724e+004
7.688856e+002, 1.260547e+004
7.693677e+002, 1.260679e+004
7.698498e+002, 1.260847e+004
7.703319e+002, 1.262241e+004
7.708140e+002, 1.264329e+004
7.712961e+002, 1.266017e+004
7.717783e+002, 1.266876e+004
7.722604e+002, 1.267400e+004
7.727425e+002, 1.267881e+004
7.732246e+002, 1.268167e+004
7.737067e+002, 1.268010e+004
7.741888e+002, 1.266553e+004
7.746710e+002, 1.265955e+004
7.751531e+002, 1.266684e+004
7.756352e+002, 1.268136e+004
7.761173e+002, 1.269337e+004
7.765994e+002, 1.270285e+004
7.770815e+002, 1.270879e+004
7.775637e+002, 1.270992e+004
7.780458e+002, 1.270970e+004
7.785279e+002, 1.271307e+004
7.790100e+002, 1.271892e+004
7.794921e+002, 1.272471e+004
7.799742e+002, 1.272860e+004
7.804564e+002, 1.273297e+004
7.809385e+002, 1.273971e+004
7.814206e+002, 1.274748e+004
7.819027e+002, 1.275326e+004
7.823848e+002, 1.275479e+004
7.828669e+002, 1.275815e+004
7.833491e+002, 1.276634e+004
7.838312e+002, 1.277557e+004
7.843133e+002, 1.277403e+004
7.847954e+002, 1.276217e+004
7.852775e+002, 1.275552e+004
7.857596e+002, 1.276156e+004
7.862418e+002, 1.277249e+004
7.867239e+002, 1.277781e+004
7.872060e+002, 1.277940e+004
7.876881e+002, 1.278197e+004
7.881702e+002, 1.278891e+004
7.886523e+002, 1.279566e+004
7.891345e+002, 1.279938e+004
7.896166e+002, 1.280143e+004
7.900987e+002, 1.280576e+004
7.905808e+002, 1.281135e+004
7.910629e+002, 1.282176e+004
7.915450e+002, 1.284057e+004
7.920272e+002, 1.286259e+004
7.925093e+002, 1.287106e+004
7.929914e+002, 1.286706e+004
7.934735e+002, 1.286213e+004
7.939556e+002, 1.285956e+004
7.944377e+002, 1.286001e+004
7.949199e+002, 1.286616e+004
7.954020e+002, 1.287613e+004
7.958841e+002, 1.288477e+004
7.963662e+002, 1.288900e+004
7.968483e+002, 1.289280e+004
7.973304e+002, 1.289665e+004
7.978126e+002, 1.290110e+004
7.982947e+002, 1.290827e+004
7.987768e+002, 1.292014e+004
7.992589e+002, 1.292927e+004
7.997410e+002, 1.293354e+004
8.002231e+002, 1.293383e+004
8.007053e+002, 1.293046e+004
8.011874e+002, 1.292443e+004
8.016695e+002, 1.292116e+004
8.021516e+002, 1.292481e+004
8.026337e+002, 1.293112e+004
8.031158e+002, 1.293689e+004
8.035980e+002, 1.294228e+004
8.040801e+002, 1.294795e+004
8.045622e+002, 1.295393e+004
8.050443e+002, 1.296032e+004
8.055264e+002, 1.296773e+004
8.060085e+002, 1.297539e+004
8.064907e+002, 1.298076e+004
8.069728e+002, 1.298359e+004
8.074549e+002, 1.298488e+004
8.079370e+002, 1.298426e+004
8.084191e+002, 1.298303e+004
8.089012e+002, 1.298426e+004
8.093834e+002, 1.298735e+004
8.098655e+002, 1.299029e+004
8.103476e+002, 1.299025e+004
8.108297e+002, 1.299155e+004
8.113118e+002, 1.299903e+004
8.117939e+002, 1.301019e+004
8.122761e+002, 1.301730e+004
8.127582e+002, 1.301334e+004
8.132403e+002, 1.301421e+004
8.137224e+002, 1.302633e+004
8.142045e+002, 1.304390e+004
8.146866e+002, 1.304753e+004
8.151688e+002, 1.303696e+004
8.156509e+002, 1.302964e+004
8.161330e+002, 1.303288e+004
8.166151e+002, 1.304150e+004
8.170972e+002, 1.304944e+004
8.175793e+002, 1.305658e+004
8.180615e+002, 1.306298e+004
8.185436e+002, 1.306815e+004
8.190257e+002, 1.307286e+004
8.195078e+002, 1.307798e+004
8.199899e+002, 1.308263e+004
8.204720e+002, 1.308460e+004
8.209542e+002, 1.308319e+004
8.214363e+002, 1.308021e+004
8.219184e+002, 1.307501e+004
8.224005e+002, 1.306960e+004
8.228826e+002, 1.306848e+004
8.233647e+002, 1.307137e+004
8.238469e+002, 1.307718e+004
8.243290e+002, 1.308992e+004
8.248111e+002, 1.309940e+004
8.252932e+002, 1.309041e+004
8.257753e+002, 1.307233e+004
8.262574e+002, 1.306384e+004
8.267396e+002, 1.308000e+004
8.272217e+002, 1.309415e+004
8.277038e+002, 1.310170e+004
8.281859e+002, 1.310476e+004
8.286681e+002, 1.310677e+004
8.291502e+002, 1.310737e+004
8.296323e+002, 1.310967e+004
8.301144e+002, 1.311516e+004
8.305966e+002, 1.312075e+004
8.310787e+002, 1.311978e+004
8.315608e+002, 1.311534e+004
8.320429e+002, 1.311523e+004
8.325250e+002, 1.312526e+004
8.330071e+002, 1.313507e+004
8.334893e+002, 1.313946e+004
8.339714e+002, 1.314035e+004
8.344535e+002, 1.314081e+004
8.349356e+002, 1.314124e+004
8.354177e+002, 1.314068e+004
8.358998e+002, 1.313782e+004
8.363820e+002, 1.313560e+004
8.368641e+002, 1.313859e+004
8.373462e+002, 1.314642e+004
8.378283e+002, 1.315685e+004
8.383104e+002, 1.317030e+004
8.387925e+002, 1.318243e+004
8.392747e+002, 1.319084e+004
8.397568e+002, 1.319457e+004
8.402389e+002, 1.319151e+004
8.407210e+002, 1.317328e+004
8.412031e+002, 1.316269e+004
8.416852e+002, 1.317195e+004
8.421674e+002, 1.318542e+004
8.426495e+002, 1.318733e+004
8.431316e+002, 1.317468e+004
8.436137e+002, 1.316974e+004
8.440958e+002, 1.317556e+004
8.445779e+002, 1.318406e+004
8.450601e+002, 1.318550e+004
8.455422e+002, 1.318281e+004
8.460243e+002, 1.318178e+004
8.465064e+002, 1.318328e+004
8.469885e+002, 1.318716e+004
8.474706e+002, 1.319526e+004
8.479528e+002, 1.320430e+004
8.484349e+002, 1.321126e+004
8.489170e+002, 1.321492e+004
8.493991e+002, 1.321879e+004
8.498812e+002, 1.322260e+004
8.503633e+002, 1.322658e+004
8.508455e+002, 1.323162e+004
8.513276e+002, 1.323719e+004
8.518097e+002, 1.323948e+004
8.522918e+002, 1.323830e+004
8.527739e+002, 1.323656e+004
8.532560e+002, 1.323704e+004
8.537382e+002, 1.323806e+004
8.542203e+002, 1.323760e+004
8.547024e+002, 1.323535e+004
8.551845e+002, 1.323505e+004
8.556666e+002, 1.324055e+004
8.561487e+002, 1.324511e+004
8.566309e+002, 1.324432e+004
8.571130e+002, 1.323836e+004
8.575951e+002, 1.323983e+004
8.580772e+002, 1.324926e+004
8.585593e+002, 1.325956e+004
8.590414e+002, 1.326575e+004
8.595236e+002, 1.326986e+004
8.600057e+002, 1.327464e+004
8.604878e+002, 1.328010e+004
8.609699e+002, 1.328622e+004
8.614520e+002, 1.329641e+004
8.619341e+002, 1.330385e+004
8.624163e+002, 1.330157e+004
8.628984e+002, 1.329212e+004
8.633805e+002, 1.329473e+004
8.638626e+002, 1.331404e+004
8.643447e+002, 1.332996e+004
8.648268e+002, 1.333351e+004
8.653090e+002, 1.332943e+004
8.657911e+002, 1.332644e+004
8.662732e+002, 1.332541e+004
8.667553e+002, 1.333018e+004
8.672374e+002, 1.335102e+004
8.677195e+002, 1.336997e+004
8.682017e+002, 1.337271e+004
8.686838e+002, 1.336472e+004
8.691659e+002, 1.336210e+004
8.696480e+002, 1.336974e+004
8.701301e+002, 1.337596e+004
8.706122e+002, 1.337909e+004
8.710944e+002, 1.337924e+004
8.715765e+002, 1.337531e+004
8.720586e+002, 1.336809e+004
8.725407e+002, 1.336306e+004
8.730228e+002, 1.336332e+004
8.735049e+002, 1.336380e+004
8.739871e+002, 1.335795e+004
8.744692e+002, 1.334997e+004
8.749513e+002, 1.334610e+004
8.754334e+002, 1.335542e+004
8.759155e+002, 1.335889e+004
8.763976e+002, 1.335124e+004
8.768798e+002, 1.334095e+004
8.773619e+002, 1.333722e+004
8.778440e+002, 1.334012e+004
8.783261e+002, 1.334916e+004
8.788082e+002, 1.336572e+004
8.792903e+002, 1.338006e+004
8.797725e+002, 1.337698e+004
8.802546e+002, 1.336674e+004
8.807367e+002, 1.336506e+004
8.812188e+002, 1.337634e+004
8.817009e+002, 1.338725e+004
8.821830e+002, 1.339277e+004
8.826652e+002, 1.339626e+004
8.831473e+002, 1.340072e+004
8.836294e+002, 1.340720e+004
8.841115e+002, 1.340672e+004
8.845936e+002, 1.339786e+004
8.850757e+002, 1.338962e+004
8.855579e+002, 1.338959e+004
8.860400e+002, 1.339508e+004
8.865221e+002, 1.340245e+004
8.870042e+002, 1.341115e+004
8.874863e+002, 1.341633e+004
8.879684e+002, 1.341021e+004
8.884506e+002, 1.340476e+004
8.889327e+002, 1.340851e+004
8.894148e+002, 1.342079e+004
8.898969e+002, 1.342813e+004
8.903790e+002, 1.342898e+004
8.908611e+002, 1.342883e+004
8.913433e+002, 1.342819e+004
8.918254e+002, 1.342899e+004
8.923075e+002, 1.343853e+004
8.927896e+002, 1.345471e+004
8.932717e+002, 1.346871e+004
8.937538e+002, 1.347665e+004
8.942360e+002, 1.348032e+004
8.947181e+002, 1.347763e+004
8.952002e+002, 1.347132e+004
8.956823e+002, 1.346843e+004
8.961644e+002, 1.346797e+004
8.966465e+002, 1.347445e+004
8.971287e+002, 1.349200e+004
8.976108e+002, 1.351203e+004
8.980929e+002, 1.351664e+004
8.985750e+002, 1.350903e+004
8.990571e+002, 1.350415e+004
8.995392e+002, 1.350684e+004
9.000214e+002, 1.351047e+004
9.005035e+002, 1.350943e+004
9.009856e+002, 1.350661e+004
9.014677e+002, 1.350525e+004
9.019498e+002, 1.350504e+004
9.024319e+002, 1.350914e+004
9.029141e+002, 1.352125e+004
9.033962e+002, 1.353228e+004
9.038783e+002, 1.353203e+004
9.043604e+002, 1.352189e+004
9.048425e+002, 1.351577e+004
9.053246e+002, 1.351452e+004
9.058068e+002, 1.351592e+004
9.062889e+002, 1.351813e+004
9.067710e+002, 1.352196e+004
9.072531e+002, 1.352951e+004
9.077352e+002, 1.354129e+004
9.082173e+002, 1.354926e+004
9.086995e+002, 1.355193e+004
9.091816e+002, 1.355116e+004
9.096637e+002, 1.354626e+004
9.101458e+002, 1.353836e+004
9.106279e+002, 1.353563e+004
9.111100e+002, 1.353793e+004
9.115922e+002, 1.354134e+004
9.120743e+002, 1.354514e+004
9.125564e+002, 1.354800e+004
9.130385e+002, 1.354635e+004
9.135206e+002, 1.354253e+004
9.140027e+002, 1.354343e+004
9.144849e+002, 1.355746e+004
9.149670e+002, 1.356810e+004
9.154491e+002, 1.357083e+004
9.159312e+002, 1.356960e+004
9.164133e+002, 1.357273e+004
9.168954e+002, 1.358014e+004
9.173776e+002, 1.358817e+004
9.178597e+002, 1.359638e+004
9.183418e+002, 1.360358e+004
9.188239e+002, 1.360840e+004
9.193060e+002, 1.361131e+004
9.197881e+002, 1.361259e+004
9.202703e+002, 1.360973e+004
9.207524e+002, 1.361059e+004
9.212345e+002, 1.361782e+004
9.217166e+002, 1.362724e+004
9.221987e+002, 1.363538e+004
9.226808e+002, 1.364210e+004
9.231630e+002, 1.365121e+004
9.236451e+002, 1.366319e+004
9.241272e+002, 1.367326e+004
9.246093e+002, 1.367361e+004
9.250914e+002, 1.367204e+004
9.255735e+002, 1.368010e+004
9.260557e+002, 1.369816e+004
9.265378e+002, 1.370932e+004
9.270199e+002, 1.370087e+004
9.275020e+002, 1.369323e+004
9.279841e+002, 1.369376e+004
9.284662e+002, 1.370113e+004
9.289484e+002, 1.370850e+004
9.294305e+002, 1.371588e+004
9.299126e+002, 1.371945e+004
9.303947e+002, 1.371427e+004
9.308768e+002, 1.370779e+004
9.313589e+002, 1.370951e+004
9.318411e+002, 1.371676e+004
9.323232e+002, 1.372349e+004
9.328053e+002, 1.372870e+004
9.332874e+002, 1.373220e+004
9.337695e+002, 1.373243e+004
9.342516e+002, 1.373252e+004
9.347338e+002, 1.373741e+004
9.352159e+002, 1.374714e+004
9.356980e+002, 1.375778e+004
9.361801e+002, 1.376892e+004
9.366622e+002, 1.377970e+004
9.371443e+002, 1.379008e+004
9.376265e+002, 1.379904e+004
9.381086e+002, 1.380391e+004
9.385907e+002, 1.380188e+004
9.390728e+002, 1.380550e+004
9.395549e+002, 1.381734e+004
9.400370e+002, 1.383408e+004
9.405192e+002, 1.385627e+004
9.410013e+002, 1.388311e+004
9.414834e+002, 1.389819e+004
9.419655e+002, 1.390182e+004
9.424476e+002, 1.390638e+004
9.429297e+002, 1.392089e+004
9.434119e+002, 1.393973e+004
9.438940e+002, 1.395975e+004
9.443761e+002, 1.397983e+004
9.448582e+002, 1.399565e+004
9.453403e+002, 1.400182e+004
9.458224e+002, 1.400980e+004
9.463046e+002, 1.402178e+004
9.467867e+002, 1.403714e+004
9.472688e+002, 1.405459e+004
9.477509e+002, 1.407411e+004
9.482330e+002, 1.409445e+004
9.487151e+002, 1.411536e+004
9.491973e+002, 1.413703e+004
9.496794e+002, 1.415732e+004
9.501615e+002, 1.417964e+004
9.506436e+002, 1.420831e+004
9.511257e+002, 1.424612e+004
9.516078e+002, 1.428671e+004
9.520900e+002, 1.432943e+004
9.525721e+002, 1.437595e+004
9.530542e+002, 1.442718e+004
9.535363e+002, 1.448330e+004
9.540184e+002, 1.454588e+004
9.545005e+002, 1.461437e+004
9.549827e+002, 1.468781e+004
9.554648e+002, 1.476615e+004
9.559469e+002, 1.484827e+004
9.564290e+002, 1.493123e+004
9.569111e+002, 1.501611e+004
9.573932e+002, 1.511273e+004
9.578754e+002, 1.522695e+004
9.583575e+002, 1.533956e+004
9.588396e+002, 1.544054e+004
9.593217e+002, 1.553898e+004
9.598038e+002, 1.565485e+004
9.602859e+002, 1.578521e+004
9.607681e+002, 1.591851e+004
9.612502e+002, 1.604980e+004
9.617323e+002, 1.618493e+004
9.622144e+002, 1.633360e+004
9.626965e+002, 1.648512e+004
9.631786e+002, 1.662550e+004
9.636608e+002, 1.675065e+004
9.641429e+002, 1.687303e+004
9.646250e+002, 1.699234e+004
9.651071e+002, 1.710859e+004
9.655892e+002, 1.722891e+004
9.660714e+002, 1.734340e+004
9.665535e+002, 1.743696e+004
9.670356e+002, 1.750760e+004
9.675177e+002, 1.755694e+004
9.679998e+002, 1.758363e+004
9.684819e+002, 1.759066e+004
9.689641e+002, 1.757903e+004
9.694462e+002, 1.754975e+004
9.699283e+002, 1.750339e+004
9.704104e+002, 1.743892e+004
9.708925e+002, 1.736388e+004
9.713746e+002, 1.727959e+004
9.718568e+002, 1.718702e+004
9.723389e+002, 1.707820e+004
9.728210e+002, 1.696197e+004
9.733031e+002, 1.685648e+004
9.737852e+002, 1.677740e+004
9.742673e+002, 1.669718e+004
9.747495e+002, 1.660815e+004
9.752316e+002, 1.651660e+004
9.757137e+002, 1.642743e+004
9.761958e+002, 1.633974e+004
9.766779e+002, 1.626285e+004
9.771600e+002, 1.619801e+004
9.776422e+002, 1.613644e+004
9.781243e+002, 1.606910e+004
9.786064e+002, 1.600024e+004
9.790885e+002, 1.593159e+004
9.795706e+002, 1.586369e+004
9.800527e+002, 1.580722e+004
9.805349e+002, 1.576954e+004
9.810170e+002, 1.573533e+004
9.814991e+002, 1.569993e+004
9.819812e+002, 1.566329e+004
9.824633e+002, 1.562248e+004
9.829454e+002, 1.557908e+004
9.834276e+002, 1.554385e+004
9.839097e+002, 1.552465e+004
9.843918e+002, 1.550926e+004
9.848739e+002, 1.548830e+004
9.853560e+002, 1.546529e+004
9.858381e+002, 1.544586e+004
9.863203e+002, 1.543114e+004
9.868024e+002, 1.541841e+004
9.872845e+002, 1.540798e+004
9.877666e+002, 1.539903e+004
9.882487e+002, 1.539004e+004
9.887308e+002, 1.538216e+004
9.892130e+002, 1.537917e+004
9.896951e+002, 1.538125e+004
9.901772e+002, 1.538194e+004
9.906593e+002, 1.537178e+004
9.911414e+002, 1.536490e+004
9.916235e+002, 1.537129e+004
9.921057e+002, 1.538802e+004
9.925878e+002, 1.539938e+004
9.930699e+002, 1.540442e+004
9.935520e+002, 1.540967e+004
9.940341e+002, 1.541646e+004
9.945162e+002, 1.542600e+004
9.949984e+002, 1.543999e+004
9.954805e+002, 1.545814e+004
9.959626e+002, 1.548018e+004
9.964447e+002, 1.551034e+004
9.969268e+002, 1.553798e+004
9.974089e+002, 1.556059e+004
9.978911e+002, 1.558162e+004
9.983732e+002, 1.560399e+004
9.988553e+002, 1.562772e+004
9.993374e+002, 1.565184e+004
9.998195e+002, 1.567633e+004
1.000302e+003, 1.570366e+004
1.000784e+003, 1.573732e+004
1.001266e+003, 1.577348e+004
1.001748e+003, 1.580859e+004
1.002230e+003, 1.584297e+004
1.002712e+003, 1.588158e+004
1.003194e+003, 1.592684e+004
1.003676e+003, 1.596979e+004
1.004159e+003, 1.600708e+004
1.004641e+003, 1.604211e+004
1.005123e+003, 1.608680e+004
1.005605e+003, 1.613598e+004
1.006087e+003, 1.617346e+004
1.006569e+003, 1.619076e+004
1.007051e+003, 1.620713e+004
1.007533e+003, 1.623415e+004
1.008016e+003, 1.626399e+004
1.008498e+003, 1.629058e+004
1.008980e+003, 1.631419e+004
1.009462e+003, 1.633414e+004
1.009944e+003, 1.635114e+004
1.010426e+003, 1.636156e+004
1.010908e+003, 1.635883e+004
1.011390e+003, 1.635028e+004
1.011872e+003, 1.634587e+004
1.012355e+003, 1.634446e+004
1.012837e+003, 1.634034e+004
1.013319e+003, 1.633408e+004
1.013801e+003, 1.632063e+004
1.014283e+003, 1.629833e+004
1.014765e+003, 1.626876e+004
1.015247e+003, 1.623330e+004
1.015729e+003, 1.619220e+004
1.016211e+003, 1.615063e+004
1.016694e+003, 1.611004e+004
1.017176e+003, 1.606696e+004
1.017658e+003, 1.601943e+004
1.018140e+003, 1.596799e+004
1.018622e+003, 1.591051e+004
1.019104e+003, 1.584493e+004
1.019586e+003, 1.579066e+004
1.020068e+003, 1.575132e+004
1.020551e+003, 1.571217e+004
1.021033e+003, 1.566412e+004
1.021515e+003, 1.561155e+004
1.021997e+003, 1.556318e+004
1.022479e+003, 1.551892e+004
1.022961e+003, 1.547916e+004
1.023443e+003, 1.544456e+004
1.023925e+003, 1.541375e+004
1.024407e+003, 1.538478e+004
1.024890e+003, 1.536017e+004
1.025372e+003, 1.534662e+004
1.025854e+003, 1.534475e+004
1.026336e+003, 1.532893e+004
1.026818e+003, 1.529525e+004
1.027300e+003, 1.526222e+004
1.027782e+003, 1.524816e+004
1.028264e+003, 1.524087e+004
1.028746e+003, 1.522955e+004
1.029229e+003, 1.521315e+004
1.029711e+003, 1.519404e+004
1.030193e+003, 1.516991e+004
1.030675e+003, 1.514828e+004
1.031157e+003, 1.513089e+004
1.031639e+003, 1.511837e+004
1.032121e+003, 1.511731e+004
1.032603e+003, 1.512231e+004
1.033086e+003, 1.511557e+004
1.033568e+003, 1.508503e+004
1.034050e+003, 1.505610e+004
1.034532e+003, 1.504186e+004
1.035014e+003, 1.503378e+004
1.035496e+003, 1.502488e+004
1.035978e+003, 1.501553e+004
1.036460e+003, 1.500327e+004
1.036943e+003, 1.498816e+004
1.037425e+003, 1.497320e+004
1.037907e+003, 1.495944e+004
1.038389e+003, 1.494802e+004
1.038871e+003, 1.494152e+004
1.039353e+003, 1.493869e+004
1.039835e+003, 1.493489e+004
1.040317e+003, 1.492799e+004
1.040799e+003, 1.492164e+004
1.041281e+003, 1.491607e+004
1.041764e+003, 1.491124e+004
1.042246e+003, 1.490543e+004
1.042728e+003, 1.490022e+004
1.043210e+003, 1.490419e+004
1.043692e+003, 1.492091e+004
1.044174e+003, 1.492895e+004
1.044656e+003, 1.490498e+004
1.045138e+003, 1.487839e+004
1.045621e+003, 1.486891e+004
1.046103e+003, 1.487538e+004
1.046585e+003, 1.488155e+004
1.047067e+003, 1.488767e+004
1.047549e+003, 1.488902e+004
1.048031e+003, 1.487991e+004
1.048513e+003, 1.486992e+004
1.048995e+003, 1.487017e+004
1.049478e+003, 1.487774e+004
1.049960e+003, 1.488762e+004
1.050442e+003, 1.490644e+004
1.050924e+003, 1.491451e+004
1.051406e+003, 1.490794e+004
1.051888e+003, 1.489759e+004
1.052370e+003, 1.489090e+004
1.052852e+003, 1.488883e+004
1.053334e+003, 1.489727e+004
1.053817e+003, 1.491528e+004
1.054299e+003, 1.493137e+004
1.054781e+003, 1.493998e+004
1.055263e+003, 1.494437e+004
1.055745e+003, 1.494391e+004
1.056227e+003, 1.494104e+004
1.056709e+003, 1.494130e+004
1.057191e+003, 1.494476e+004
1.057673e+003, 1.494834e+004
1.058156e+003, 1.495106e+004
1.058638e+003, 1.495484e+004
1.059120e+003, 1.496335e+004
1.059602e+003, 1.497289e+004
1.060084e+003, 1.497910e+004
1.060566e+003, 1.498065e+004
1.061048e+003, 1.498354e+004
1.061530e+003, 1.499021e+004
1.062013e+003, 1.499310e+004
1.062495e+003, 1.498801e+004
1.062977e+003, 1.497723e+004
1.063459e+003, 1.496429e+004
1.063941e+003, 1.495041e+004
1.064423e+003, 1.493885e+004
1.064905e+003, 1.493386e+004
1.065387e+003, 1.492718e+004
1.065870e+003, 1.491042e+004
1.066352e+003, 1.489570e+004
1.066834e+003, 1.489690e+004
1.067316e+003, 1.491424e+004
1.067798e+003, 1.492085e+004
1.068280e+003, 1.491585e+004
1.068762e+003, 1.490777e+004
1.069244e+003, 1.490094e+004
1.069726e+003, 1.489519e+004
1.070208e+003, 1.489033e+004
1.070691e+003, 1.488653e+004
1.071173e+003, 1.488456e+004
1.071655e+003, 1.488474e+004
1.072137e+003, 1.488593e+004
1.072619e+003, 1.488852e+004
1.073101e+003, 1.489005e+004
1.073583e+003, 1.488578e+004
1.074065e+003, 1.487873e+004
1.074548e+003, 1.487459e+004
1.075030e+003, 1.487495e+004
1.075512e+003, 1.487177e+004
1.075994e+003, 1.485700e+004
1.076476e+003, 1.484654e+004
1.076958e+003, 1.485003e+004
1.077440e+003, 1.486156e+004
1.077922e+003, 1.485412e+004
1.078405e+003, 1.483298e+004
1.078887e+003, 1.482470e+004
1.079369e+003, 1.484983e+004
1.079851e+003, 1.487220e+004
1.080333e+003, 1.486762e+004
1.080815e+003, 1.485218e+004
1.081297e+003, 1.484395e+004
1.081779e+003, 1.484453e+004
1.082261e+003, 1.484207e+004
1.082744e+003, 1.483587e+004
1.083226e+003, 1.483525e+004
1.083708e+003, 1.485424e+004
1.084190e+003, 1.487644e+004
1.084672e+003, 1.488290e+004
1.085154e+003, 1.487765e+004
1.085636e+003, 1.487584e+004
1.086118e+003, 1.488333e+004
1.086601e+003, 1.488590e+004
1.087083e+003, 1.488002e+004
1.087565e+003, 1.487326e+004
1.088047e+003, 1.487660e+004
1.088529e+003, 1.488580e+004
1.089011e+003, 1.489274e+004
1.089493e+003, 1.489642e+004
1.089975e+003, 1.489699e+004
1.090458e+003, 1.488710e+004
1.090940e+003, 1.488309e+004
1.091422e+003, 1.489417e+004
1.091904e+003, 1.491328e+004
1.092386e+003, 1.491642e+004
1.092868e+003, 1.490622e+004
1.093350e+003, 1.489964e+004
1.093832e+003, 1.490244e+004
1.094314e+003, 1.490701e+004
1.094797e+003, 1.490938e+004
1.095279e+003, 1.491033e+004
1.095761e+003, 1.490993e+004
1.096243e+003, 1.490811e+004
1.096725e+003, 1.491058e+004
1.097207e+003, 1.491794e+004
1.097689e+003, 1.492452e+004
1.098171e+003, 1.492678e+004
1.098653e+003, 1.492722e+004
1.099136e+003, 1.492794e+004
1.099618e+003, 1.492914e+004
1.100100e+003, 1.493113e+004
1.100582e+003, 1.493279e+004
1.101064e+003, 1.493725e+004
1.101546e+003, 1.494504e+004
1.102028e+003, 1.495400e+004
1.102510e+003, 1.496269e+004
1.102993e+003, 1.497081e+004
1.103475e+003, 1.497927e+004
1.103957e+003, 1.498726e+004
1.104439e+003, 1.499005e+004
1.104921e+003, 1.497439e+004
1.105403e+003, 1.496872e+004
1.105885e+003, 1.498439e+004
1.106367e+003, 1.500892e+004
1.106849e+003, 1.502069e+004
1.107332e+003, 1.502160e+004
1.107814e+003, 1.501960e+004
1.108296e+003, 1.501547e+004
1.108778e+003, 1.501565e+004
1.109260e+003, 1.502957e+004
1.109742e+003, 1.504431e+004
1.110224e+003, 1.505171e+004
1.110706e+003, 1.505267e+004
1.111188e+003, 1.505157e+004
1.111671e+003, 1.504814e+004
1.112153e+003, 1.504781e+004
1.112635e+003, 1.505287e+004
1.113117e+003, 1.505969e+004
1.113599e+003, 1.506677e+004
1.114081e+003, 1.507235e+004
1.114563e+003, 1.507358e+004
1.115045e+003, 1.506902e+004
1.115528e+003, 1.506675e+004
1.116010e+003, 1.506751e+004
1.116492e+003, 1.506745e+004
1.116974e+003, 1.506318e+004
1.117456e+003, 1.505810e+004
1.117938e+003, 1.506079e+004
1.118420e+003, 1.506664e+004
1.118902e+003, 1.506560e+004
1.119385e+003, 1.504579e+004
1.119867e+003, 1.503309e+004
1.120349e+003, 1.503065e+004
1.120831e+003, 1.503193e+004
1.121313e+003, 1.503176e+004
1.121795e+003, 1.503047e+004
1.122277e+003, 1.502814e+004
1.122759e+003, 1.502517e+004
1.123241e+003, 1.502384e+004
1.123724e+003, 1.502379e+004
1.124206e+003, 1.502735e+004
1.124688e+003, 1.503601e+004
1.125170e+003, 1.504710e+004
1.125652e+003, 1.505695e+004
1.126134e+003, 1.506547e+004
1.126616e+003, 1.507271e+004
1.127098e+003, 1.507868e+004
1.127580e+003, 1.508225e+004
1.128063e+003, 1.508058e+004
1.128545e+003, 1.507836e+004
1.129027e+003, 1.507814e+004
1.129509e+003, 1.508001e+004
1.129991e+003, 1.508552e+004
1.130473e+003, 1.509498e+004
1.130955e+003, 1.509942e+004
1.131437e+003, 1.509482e+004
1.131920e+003, 1.509196e+004
1.132402e+003, 1.510456e+004
1.132884e+003, 1.512160e+004
1.133366e+003, 1.513102e+004
1.133848e+003, 1.513111e+004
1.134330e+003, 1.513778e+004
1.134812e+003, 1.515146e+004
1.135294e+003, 1.516971e+004
1.135776e+003, 1.519464e+004
1.136259e+003, 1.521787e+004
1.136741e+003, 1.522416e+004
1.137223e+003, 1.522251e+004
1.137705e+003, 1.522763e+004
1.138187e+003, 1.524772e+004
1.138669e+003, 1.526210e+004
1.139151e+003, 1.526861e+004
1.139633e+003, 1.527427e+004
1.140115e+003, 1.528656e+004
1.140598e+003, 1.529985e+004
1.141080e+003, 1.530033e+004
1.141562e+003, 1.529190e+004
1.142044e+003, 1.528551e+004
1.142526e+003, 1.528397e+004
1.143008e+003, 1.528800e+004
1.143490e+003, 1.530239e+004
1.143972e+003, 1.531467e+004
1.144455e+003, 1.530916e+004
1.144937e+003, 1.529178e+004
1.145419e+003, 1.528170e+004
1.145901e+003, 1.527917e+004
1.146383e+003, 1.527837e+004
1.146865e+003, 1.527438e+004
1.147347e+003, 1.527478e+004
1.147829e+003, 1.528396e+004
1.148312e+003, 1.529624e+004
1.148794e+003, 1.530225e+004
1.149276e+003, 1.530302e+004
1.149758e+003, 1.530601e+004
1.150240e+003, 1.531210e+004
1.150722e+003, 1.531599e+004
1.151204e+003, 1.530955e+004
1.151686e+003, 1.530471e+004
1.152168e+003, 1.530960e+004
1.152651e+003, 1.532060e+004
1.153133e+003, 1.532745e+004
1.153615e+003, 1.533026e+004
1.154097e+003, 1.533362e+004
1.154579e+003, 1.533864e+004
1.155061e+003, 1.534349e+004
1.155543e+003, 1.534651e+004
1.156025e+003, 1.534879e+004
1.156507e+003, 1.535117e+004
1.156990e+003, 1.535367e+004
1.157472e+003, 1.535596e+004
1.157954e+003, 1.535795e+004
1.158436e+003, 1.536273e+004
1.158918e+003, 1.537293e+004
1.159400e+003, 1.538286e+004
1.159882e+003, 1.538502e+004
1.160364e+003, 1.538479e+004
1.160847e+003, 1.538893e+004
1.161329e+003, 1.539895e+004
1.161811e+003, 1.540668e+004
1.162293e+003, 1.541170e+004
1.162775e+003, 1.541650e+004
1.163257e+003, 1.542166e+004
1.163739e+003, 1.542798e+004
1.164221e+003, 1.543954e+004
1.164703e+003, 1.545189e+004
1.165186e+003, 1.545689e+004
1.165668e+003, 1.544590e+004
1.166150e+003, 1.544500e+004
1.166632e+003, 1.545686e+004
1.167114e+003, 1.546852e+004
1.167596e+003, 1.546891e+004
1.168078e+003, 1.546423e+004
1.168560e+003, 1.546440e+004
1.169042e+003, 1.546801e+004
1.169525e+003, 1.547098e+004
1.170007e+003, 1.547206e+004
1.170489e+003, 1.547306e+004
1.170971e+003, 1.547396e+004
1.171453e+003, 1.547556e+004
1.171935e+003, 1.548058e+004
1.172417e+003, 1.548614e+004
1.172899e+003, 1.548355e+004
1.173382e+003, 1.547526e+004
1.173864e+003, 1.547428e+004
1.174346e+003, 1.549491e+004
1.174828e+003, 1.550848e+004
1.175310e+003, 1.550912e+004
1.175792e+003, 1.550508e+004
1.176274e+003, 1.550567e+004
1.176756e+003, 1.551013e+004
1.177239e+003, 1.551697e+004
1.177721e+003, 1.552590e+004
1.178203e+003, 1.553663e+004
1.178685e+003, 1.555217e+004
1.179167e+003, 1.556514e+004
1.179649e+003, 1.557454e+004
1.180131e+003, 1.557946e+004
1.180613e+003, 1.557406e+004
1.181095e+003, 1.556332e+004
1.181578e+003, 1.556415e+004
1.182060e+003, 1.557971e+004
1.182542e+003, 1.559194e+004
1.183024e+003, 1.558570e+004
1.183506e+003, 1.558398e+004
1.183988e+003, 1.559711e+004
1.184470e+003, 1.561841e+004
1.184952e+003, 1.563140e+004
1.185434e+003, 1.563777e+004
1.185917e+003, 1.564413e+004
1.186399e+003, 1.565291e+004
1.186881e+003, 1.565678e+004
1.187363e+003, 1.564311e+004
1.187845e+003, 1.563370e+004
1.188327e+003, 1.564003e+004
1.188809e+003, 1.565803e+004
1.189291e+003, 1.567465e+004
1.189774e+003, 1.568948e+004
1.190256e+003, 1.570127e+004
1.190738e+003, 1.570953e+004
1.191220e+003, 1.571453e+004
1.191702e+003, 1.571439e+004
1.192184e+003, 1.571259e+004
1.192666e+003, 1.570917e+004
1.193148e+003, 1.570587e+004
1.193630e+003, 1.571893e+004
1.194113e+003, 1.574474e+004
1.194595e+003, 1.576129e+004
1.195077e+003, 1.575256e+004
1.195559e+003, 1.574562e+004
1.196041e+003, 1.576057e+004
1.196523e+003, 1.577715e+004
1.197005e+003, 1.577818e+004
1.197487e+003, 1.576493e+004
1.197969e+003, 1.575758e+004
1.198452e+003, 1.575591e+004
1.198934e+003, 1.575740e+004
1.199416e+003, 1.576271e+004
1.199898e+003, 1.576846e+004
1.200380e+003, 1.577325e+004
1.200862e+003, 1.577763e+004
1.201344e+003, 1.578278e+004
1.201826e+003, 1.578869e+004
1.202309e+003, 1.578801e+004
1.202791e+003, 1.578171e+004
1.203273e+003, 1.578098e+004
1.203755e+003, 1.579877e+004
1.204237e+003, 1.581646e+004
1.204719e+003, 1.582360e+004
1.205201e+003, 1.582574e+004
1.205683e+003, 1.582886e+004
1.206166e+003, 1.583282e+004
1.206648e+003, 1.583755e+004
1.207130e+003, 1.584289e+004
1.207612e+003, 1.584790e+004
1.208094e+003, 1.585028e+004
1.208576e+003, 1.585385e+004
1.209058e+003, 1.586307e+004
1.209540e+003, 1.587335e+004
1.210022e+003, 1.587757e+004
1.210505e+003, 1.587605e+004
1.210987e+003, 1.587729e+004
1.211469e+003, 1.588183e+004
1.211951e+003, 1.588354e+004
1.212433e+003, 1.587181e+004
1.212915e+003, 1.586333e+004
1.213397e+003, 1.587101e+004
1.213879e+003, 1.588643e+004
1.214361e+003, 1.589653e+004
1.214844e+003, 1.590154e+004
1.215326e+003, 1.590293e+004
1.215808e+003, 1.590083e+004
1.216290e+003, 1.589913e+004
1.216772e+003, 1.589579e+004
1.217254e+003, 1.589879e+004
1.217736e+003, 1.591808e+004
1.218218e+003, 1.594344e+004
1.218701e+003, 1.595221e+004
1.219183e+003, 1.594592e+004
1.219665e+003, 1.594382e+004
1.220147e+003, 1.594878e+004
1.220629e+003, 1.595601e+004
1.221111e+003, 1.596587e+004
1.221593e+003, 1.597311e+004
1.222075e+003, 1.597279e+004
1.222557e+003, 1.596904e+004
1.223040e+003, 1.597347e+004
1.223522e+003, 1.598496e+004
1.224004e+003, 1.599390e+004
1.224486e+003, 1.599851e+004
1.224968e+003, 1.600271e+004
1.225450e+003, 1.601049e+004
1.225932e+003, 1.601696e+004
1.226414e+003, 1.601936e+004
1.226896e+003, 1.601919e+004
1.227379e+003, 1.602156e+004
1.227861e+003, 1.602564e+004
1.228343e+003, 1.602580e+004
1.228825e+003, 1.602000e+004
1.229307e+003, 1.601582e+004
1.229789e+003, 1.601822e+004
1.230271e+003, 1.602242e+004
1.230753e+003, 1.602601e+004
1.231236e+003, 1.602915e+004
1.231718e+003, 1.603222e+004
1.232200e+003, 1.603533e+004
1.232682e+003, 1.603973e+004
1.233164e+003, 1.604641e+004
1.233646e+003, 1.605089e+004
1.234128e+003, 1.604649e+004
1.234610e+003, 1.604493e+004
1.235093e+003, 1.605406e+004
1.235575e+003, 1.606858e+004
1.236057e+003, 1.606873e+004
1.236539e+003, 1.605932e+004
1.237021e+003, 1.605663e+004
1.237503e+003, 1.606733e+004
1.237985e+003, 1.607725e+004
1.238467e+003, 1.608110e+004
1.238949e+003, 1.608289e+004
1.239432e+003, 1.608383e+004
1.239914e+003, 1.608410e+004
1.240396e+003, 1.608257e+004
1.240878e+003, 1.608095e+004
1.241360e+003, 1.608492e+004
1.241842e+003, 1.609869e+004
1.242324e+003, 1.610947e+004
1.242806e+003, 1.611233e+004
1.243288e+003, 1.611524e+004
1.243771e+003, 1.612172e+004
1.244253e+003, 1.613143e+004
1.244735e+003, 1.614587e+004
1.245217e+003, 1.616267e+004
1.245699e+003, 1.617644e+004
1.246181e+003, 1.618609e+004
1.246663e+003, 1.619089e+004
1.247145e+003, 1.618898e+004
1.247628e+003, 1.618710e+004
1.248110e+003, 1.618778e+004
1.248592e+003, 1.619196e+004
1.249074e+003, 1.620585e+004
1.249556e+003, 1.622354e+004
1.250038e+003, 1.623351e+004
1.250520e+003, 1.622896e+004
1.251002e+003, 1.622518e+004
1.251484e+003, 1.622199e+004
1.251967e+003, 1.622218e+004
1.252449e+003, 1.622842e+004
1.252931e+003, 1.623780e+004
1.253413e+003, 1.624755e+004
1.253895e+003, 1.625647e+004
1.254377e+003, 1.626175e+004
1.254859e+003, 1.625948e+004
1.255341e+003, 1.626352e+004
1.255823e+003, 1.627502e+004
1.256306e+003, 1.628694e+004
1.256788e+003, 1.629577e+004
1.257270e+003, 1.630195e+004
1.257752e+003, 1.630411e+004
1.258234e+003, 1.630482e+004
1.258716e+003, 1.630906e+004
1.259198e+003, 1.632016e+004
1.259680e+003, 1.632264e+004
1.260163e+003, 1.631588e+004
1.260645e+003, 1.630869e+004
1.261127e+003, 1.630497e+004
1.261609e+003, 1.630461e+004
1.262091e+003, 1.631023e+004
1.262573e+003, 1.631776e+004
1.263055e+003, 1.632130e+004
1.263537e+003, 1.632004e+004
1.264020e+003, 1.631795e+004
1.264502e+003, 1.631497e+004
1.264984e+003, 1.631869e+004
1.265466e+003, 1.633888e+004
1.265948e+003, 1.635997e+004
1.266430e+003, 1.637295e+004
1.266912e+003, 1.637994e+004
1.267394e+003, 1.638345e+004
1.267876e+003, 1.638331e+004
1.268359e+003, 1.638067e+004
1.268841e+003, 1.637627e+004
1.269323e+003, 1.637711e+004
1.269805e+003, 1.639573e+004
1.270287e+003, 1.640887e+004
1.270769e+003, 1.639857e+004
1.271251e+003, 1.638517e+004
1.271733e+003, 1.638524e+004
1.272215e+003, 1.639718e+004
1.272698e+003, 1.640909e+004
1.273180e+003, 1.642020e+004
1.273662e+003, 1.642613e+004
1.274144e+003, 1.642098e+004
1.274626e+003, 1.641609e+004
1.275108e+003, 1.641271e+004
1.275590e+003, 1.641197e+004
1.276072e+003, 1.641489e+004
1.276555e+003, 1.642110e+004
1.277037e+003, 1.643118e+004
1.277519e+003, 1.644334e+004
1.278001e+003, 1.645260e+004
1.278483e+003, 1.645600e+004
1.278965e+003, 1.645633e+004
1.279447e+003, 1.645130e+004
1.279929e+003, 1.644911e+004
1.280411e+003, 1.646060e+004
1.280894e+003, 1.647633e+004
1.281376e+003, 1.647489e+004
1.281858e+003, 1.646453e+004
1.282340e+003, 1.646445e+004
1.282822e+003, 1.648620e+004
1.283304e+003, 1.650391e+004
1.283786e+003, 1.651789e+004
1.284268e+003, 1.652679e+004
1.284750e+003, 1.652528e+004
1.285233e+003, 1.652235e+004
1.285715e+003, 1.652991e+004
1.286197e+003, 1.654290e+004
1.286679e+003, 1.655198e+004
1.287161e+003, 1.655413e+004
1.287643e+003, 1.656399e+004
1.288125e+003, 1.658183e+004
1.288607e+003, 1.659679e+004
1.289090e+003, 1.659965e+004
1.289572e+003, 1.659936e+004
1.290054e+003, 1.660012e+004
1.290536e+003, 1.660249e+004
1.291018e+003, 1.660658e+004
1.291500e+003, 1.661227e+004
1.291982e+003, 1.662443e+004
1.292464e+003, 1.664177e+004
1.292947e+003, 1.665326e+004
1.293429e+003, 1.665272e+004
1.293911e+003, 1.664613e+004
1.294393e+003, 1.663017e+004
1.294875e+003, 1.661544e+004
1.295357e+003, 1.661031e+004
1.295839e+003, 1.661315e+004
1.296321e+003, 1.661761e+004
1.296803e+003, 1.662380e+004
1.297286e+003, 1.663069e+004
1.297768e+003, 1.664031e+004
1.298250e+003, 1.664621e+004
1.298732e+003, 1.664510e+004
1.299214e+003, 1.664613e+004
1.299696e+003, 1.665580e+004
1.300178e+003, 1.667021e+004
1.300660e+003, 1.668859e+004
##END=



