##NAMES=Eosphorite
##RRUFFID=R130480
##IDEAL CHEMISTRY=Mn^2+^AlPO_4_(OH)_2_&#183;H_2_O
##LOCALITY=Taraqual, Minas Gerais, Brazil
##OWNER=RRUFF
##SOURCE=Rock Currier
##DESCRIPTION=Sprays of tan colored bladed crystals
##STATUS=The identification of this mineral has been confirmed only by single crystal X-ray diffraction.
##URL=rruff.info/R130480
134.3477, 0.0000000E+00
134.8298, 1.6845999E-02
135.3119, 0.6263430
135.7940, 1.657349
136.2761, 2.706543
136.7582, 3.444946
137.2404, 3.890015
137.7225, 4.863159
138.2046, 7.854980
138.6867, 10.27161
139.1688, 10.50854
139.6509, 9.186401
140.1331, 7.840210
140.6152, 6.375122
141.0973, 6.046997
141.5794, 5.385864
142.0615, 3.779907
142.5436, 2.365601
143.0258, 2.069702
143.5079, 3.048218
143.9900, 4.444336
144.4721, 4.231934
144.9542, 1.058716
145.4363, 0.4189450
145.9185, 1.624146
146.4006, 5.955322
146.8827, 8.488403
147.3648, 9.128662
147.8469, 10.17371
148.3290, 8.978638
148.8112, 7.477051
149.2933, 6.172729
149.7754, 5.060303
150.2575, 4.238525
150.7396, 3.636230
151.2217, 3.375854
151.7039, 3.168945
152.1860, 2.609619
152.6681, 1.641113
153.1502, 0.7808840
153.6323, 0.4259030
154.1144, 0.5958250
154.5966, 1.001709
155.0787, 2.053101
155.5608, 3.028931
156.0429, 3.419922
156.5250, 3.122192
157.0071, 2.360352
157.4893, 1.248535
157.9714, 0.6414790
158.4535, 1.674927
158.9356, 0.6976320
159.4177, 0.6463620
159.8998, 0.7978520
160.3820, 0.8164060
160.8641, 3.125244
161.3462, 3.429688
161.8283, 0.7241210
162.3104, 3.473267
162.7925, 3.199463
163.2747, 1.729858
163.7568, 1.140015
164.2389, 2.493042
164.7210, 5.212158
165.2031, 6.879272
165.6852, 6.306763
166.1674, 6.058350
166.6495, 6.831665
167.1316, 8.195435
167.6137, 9.309204
168.0958, 9.623657
168.5779, 9.355591
169.0601, 9.881836
169.5422, 11.82227
170.0243, 13.74329
170.5064, 15.09692
170.9885, 15.94153
171.4706, 16.58167
171.9528, 17.25537
172.4349, 17.81128
172.9170, 17.83911
173.3991, 16.64172
173.8812, 15.46191
174.3633, 15.42822
174.8455, 16.56372
175.3276, 17.64783
175.8097, 17.86279
176.2918, 17.51074
176.7739, 17.09912
177.2560, 16.58313
177.7382, 16.17383
178.2203, 16.23718
178.7024, 16.90552
179.1845, 17.64319
179.6666, 18.27991
180.1487, 18.79370
180.6309, 19.12500
181.1130, 19.20325
181.5951, 19.10657
182.0772, 18.98193
182.5593, 18.65942
183.0414, 18.63220
183.5236, 19.39124
184.0057, 20.43530
184.4878, 20.98474
184.9699, 20.44043
185.4520, 19.05127
185.9341, 18.43921
186.4163, 19.11548
186.8984, 20.09290
187.3805, 21.34058
187.8626, 22.70154
188.3447, 23.98962
188.8268, 25.10791
189.3090, 26.05151
189.7911, 26.56531
190.2732, 26.26807
190.7553, 25.95044
191.2374, 25.55286
191.7195, 25.29236
192.2017, 25.72461
192.6838, 27.19897
193.1659, 29.79944
193.6480, 31.50671
194.1301, 32.02612
194.6122, 32.17859
195.0944, 31.98767
195.5765, 31.64551
196.0586, 31.59839
196.5407, 32.15857
197.0228, 33.38660
197.5049, 35.38159
197.9871, 39.46667
198.4692, 43.15796
198.9513, 44.45996
199.4334, 43.49487
199.9155, 42.33728
200.3976, 42.51147
200.8798, 44.08423
201.3619, 46.13379
201.8440, 49.22693
202.3261, 52.41443
202.8082, 54.99634
203.2903, 56.91797
203.7725, 58.08911
204.2546, 57.63916
204.7367, 56.20471
205.2188, 55.64966
205.7009, 57.01196
206.1830, 59.15601
206.6652, 60.76440
207.1473, 61.91809
207.6294, 62.16028
208.1115, 60.18359
208.5936, 57.19055
209.0757, 55.10291
209.5579, 55.36218
210.0400, 56.66406
210.5221, 56.09766
211.0042, 52.69336
211.4863, 49.59888
211.9685, 48.51379
212.4506, 48.68433
212.9327, 49.35266
213.4148, 50.05493
213.8969, 50.44177
214.3790, 50.38831
214.8612, 50.18774
215.3433, 49.40637
215.8254, 46.92297
216.3075, 43.94104
216.7896, 42.35571
217.2717, 43.39575
217.7539, 46.29370
218.2360, 48.10327
218.7181, 48.51440
219.2002, 48.14880
219.6823, 46.25037
220.1644, 43.99512
220.6466, 43.46948
221.1287, 46.13953
221.6108, 51.26990
222.0929, 54.47791
222.5750, 54.42407
223.0571, 53.65796
223.5393, 51.56897
224.0214, 49.23035
224.5035, 48.22400
224.9856, 49.58582
225.4677, 52.86487
225.9498, 55.19788
226.4320, 55.33032
226.9141, 55.86987
227.3962, 58.10474
227.8783, 60.89771
228.3604, 62.40906
228.8425, 61.51147
229.3247, 58.62012
229.8068, 56.08521
230.2889, 54.08630
230.7710, 52.20154
231.2531, 50.16321
231.7352, 48.19495
232.2174, 46.72888
232.6995, 46.02820
233.1816, 45.92346
233.6637, 45.70618
234.1458, 46.08484
234.6279, 45.58069
235.1101, 42.74463
235.5922, 38.79175
236.0743, 36.36499
236.5564, 37.04358
237.0385, 39.60413
237.5206, 39.93884
238.0028, 36.41980
238.4849, 33.71692
238.9670, 34.09802
239.4491, 36.47546
239.9312, 38.45679
240.4133, 39.10339
240.8955, 38.66431
241.3776, 37.51624
241.8597, 35.12634
242.3418, 33.43750
242.8239, 33.80090
243.3060, 35.56360
243.7882, 36.97827
244.2703, 37.49512
244.7524, 37.26807
245.2345, 36.40125
245.7166, 34.69360
246.1987, 33.40796
246.6809, 33.49048
247.1630, 34.55237
247.6451, 35.30920
248.1272, 35.40527
248.6093, 35.05261
249.0914, 34.47974
249.5736, 33.68872
250.0557, 32.91064
250.5378, 32.34924
251.0199, 31.93066
251.5020, 31.29688
251.9841, 30.15283
252.4663, 29.10071
252.9484, 28.83728
253.4305, 29.26099
253.9126, 29.40942
254.3947, 28.18274
254.8768, 26.02698
255.3590, 25.24597
255.8411, 26.91614
256.3232, 28.88220
256.8053, 29.72034
257.2874, 29.59387
257.7695, 29.07568
258.2516, 28.62952
258.7338, 28.12659
259.2159, 26.75281
259.6980, 23.54846
260.1801, 20.86633
260.6622, 20.40674
261.1443, 21.35156
261.6265, 21.85205
262.1086, 20.48901
262.5907, 17.75171
263.0728, 15.99377
263.5549, 15.76013
264.0370, 15.70264
264.5192, 15.51245
265.0013, 15.05835
265.4834, 14.12561
265.9655, 12.53027
266.4476, 10.40698
266.9297, 8.066162
267.4119, 4.904419
267.8940, 2.615112
268.3761, 2.439331
268.8582, 3.067749
269.3403, 2.673706
269.8224, 0.1671140
270.3046, 3.337280
270.7867, 4.539307
271.2688, 1.539673
271.7509, 0.4130860
272.2330, 0.3677980
272.7151, 2.285889
273.1973, 3.876099
273.6794, 4.566895
274.1615, 4.524536
274.6436, 4.017944
275.1257, 2.675537
275.6078, 1.617310
276.0900, 1.115601
276.5721, 0.8405760
277.0542, 0.6718750
277.5363, 0.5404050
278.0184, 0.1942140
278.5005, 0.9537350
278.9827, 3.694946
279.4648, 5.420532
279.9469, 5.579224
280.4290, 5.171021
280.9111, 4.602173
281.3932, 4.071411
281.8754, 3.846680
282.3575, 4.330078
282.8396, 5.770752
283.3217, 7.244385
283.8038, 9.098389
284.2859, 10.71448
284.7681, 11.51074
285.2502, 11.62903
285.7323, 11.78564
286.2144, 12.74719
286.6965, 14.67102
287.1786, 16.52698
287.6608, 18.28113
288.1429, 20.01440
288.6250, 22.01880
289.1071, 24.07434
289.5892, 25.53516
290.0714, 25.71399
290.5535, 24.57397
291.0356, 24.86011
291.5177, 28.20959
291.9998, 31.26904
292.4819, 32.90967
292.9641, 33.60938
293.4462, 34.38232
293.9283, 35.88635
294.4104, 38.00659
294.8925, 39.97583
295.3746, 41.13855
295.8568, 42.88831
296.3389, 46.16907
296.8210, 49.95996
297.3031, 52.80310
297.7852, 53.99548
298.2673, 54.03699
298.7495, 54.41882
299.2316, 55.20044
299.7137, 56.28845
300.1958, 57.65564
300.6779, 59.31897
301.1600, 61.41272
301.6422, 63.95361
302.1243, 66.64673
302.6064, 68.96692
303.0885, 70.87817
303.5706, 72.38879
304.0527, 73.68347
304.5349, 74.50024
305.0170, 74.25647
305.4991, 73.04456
305.9812, 71.95740
306.4633, 72.45630
306.9454, 75.15833
307.4276, 76.76147
307.9097, 77.30359
308.3918, 77.09387
308.8739, 75.96436
309.3560, 74.13306
309.8381, 72.21985
310.3203, 70.72266
310.8024, 69.67578
311.2845, 68.83716
311.7666, 69.13782
312.2487, 68.68445
312.7308, 66.02625
313.2130, 62.08032
313.6951, 58.96143
314.1772, 58.13574
314.6593, 59.18396
315.1414, 58.95349
315.6235, 55.61731
316.1057, 52.78064
316.5878, 51.69128
317.0699, 51.45959
317.5520, 50.65308
318.0341, 48.49658
318.5162, 45.41895
318.9984, 42.90979
319.4805, 41.94458
319.9626, 40.48767
320.4447, 38.12805
320.9268, 35.40625
321.4089, 32.82385
321.8911, 30.52844
322.3732, 28.55713
322.8553, 26.91199
323.3374, 25.49585
323.8195, 24.80591
324.3016, 25.70105
324.7838, 26.56128
325.2659, 26.24963
325.7480, 24.78809
326.2301, 23.06677
326.7122, 22.00330
327.1943, 21.77905
327.6765, 20.63757
328.1586, 16.58569
328.6407, 13.41516
329.1228, 13.62671
329.6049, 16.00964
330.0870, 17.63574
330.5692, 16.41003
331.0513, 12.85852
331.5334, 10.99158
332.0155, 12.87134
332.4976, 14.32605
332.9797, 14.62915
333.4619, 14.27722
333.9440, 13.98450
334.4261, 14.07825
334.9082, 14.24390
335.3904, 13.68176
335.8725, 11.68567
336.3546, 10.12500
336.8367, 9.131592
337.3188, 8.488647
337.8009, 8.129761
338.2831, 7.993164
338.7652, 7.892822
339.2473, 7.514771
339.7294, 6.573975
340.2115, 6.266357
340.6936, 7.360962
341.1758, 8.309204
341.6579, 8.025513
342.1400, 6.793091
342.6221, 5.796875
343.1042, 6.156860
343.5863, 7.863159
344.0685, 8.743896
344.5506, 7.635864
345.0327, 6.817871
345.5148, 6.944580
345.9969, 7.658325
346.4790, 8.413330
346.9612, 8.938843
347.4433, 9.201538
347.9254, 9.056519
348.4075, 8.202637
348.8896, 7.420288
349.3717, 6.451294
349.8539, 5.799316
350.3360, 6.173828
350.8181, 7.718750
351.3002, 9.495850
351.7823, 9.899292
352.2644, 8.213135
352.7466, 7.524292
353.2287, 8.985596
353.7108, 10.66333
354.1929, 11.77856
354.6750, 12.20593
355.1571, 12.03784
355.6393, 11.14600
356.1214, 9.537354
356.6035, 8.517456
357.0856, 8.692627
357.5677, 8.778564
358.0498, 8.333862
358.5320, 7.497681
359.0141, 6.479614
359.4962, 5.352783
359.9783, 4.242188
360.4604, 3.534180
360.9425, 3.413452
361.4247, 3.248291
361.9068, 3.064453
362.3889, 2.641968
362.8710, 1.481934
363.3531, 0.5977780
363.8352, 2.447388
364.3174, 2.470947
364.7995, 0.4638670
365.2816, 1.328125
365.7637, 2.347168
366.2458, 3.180664
366.7279, 4.584473
367.2101, 6.355835
367.6922, 7.233398
368.1743, 5.528442
368.6564, 1.988037
369.1385, 0.2269290
369.6206, 1.145996
370.1028, 2.342773
370.5849, 2.555664
371.0670, 2.023193
371.5491, 1.028076
372.0312, 0.8007810
372.5133, 2.584351
372.9955, 2.685059
373.4776, 0.8494870
373.9597, 0.1759030
374.4418, 1.714478
374.9239, 4.483032
375.4060, 5.429443
375.8882, 4.001953
376.3703, 2.197998
376.8524, 1.515869
377.3345, 1.649780
377.8166, 1.245483
378.2987, 0.2460940
378.7809, 1.910889
379.2630, 2.739014
379.7451, 2.830688
380.2272, 2.708862
380.7093, 2.298340
381.1914, 1.882202
381.6736, 1.922729
382.1557, 2.475464
382.6378, 3.017822
383.1199, 2.981567
383.6020, 2.641846
384.0841, 3.130493
384.5663, 5.486450
385.0484, 7.651001
385.5305, 8.067017
386.0126, 7.251587
386.4947, 6.907837
386.9768, 7.833008
387.4590, 9.392700
387.9411, 10.12292
388.4232, 9.551392
388.9053, 9.682373
389.3874, 11.36035
389.8695, 13.73486
390.3517, 15.93201
390.8338, 17.78149
391.3159, 19.38110
391.7980, 20.87549
392.2801, 22.28442
392.7622, 23.14734
393.2444, 23.38489
393.7265, 23.21313
394.2086, 22.30603
394.6907, 21.05408
395.1728, 20.39856
395.6549, 20.94067
396.1371, 22.38733
396.6192, 23.57227
397.1013, 24.99268
397.5834, 25.50171
398.0655, 24.11011
398.5476, 22.22302
399.0298, 21.34521
399.5119, 21.83203
399.9940, 22.82263
400.4761, 23.14258
400.9582, 22.53809
401.4403, 22.14783
401.9225, 22.07239
402.4046, 22.08545
402.8867, 22.35413
403.3688, 22.63660
403.8509, 22.40112
404.3330, 21.21924
404.8152, 19.24927
405.2973, 17.36182
405.7794, 15.07410
406.2615, 13.64673
406.7436, 14.18860
407.2257, 15.16687
407.7079, 14.84778
408.1900, 12.72913
408.6721, 10.08093
409.1542, 8.731445
409.6363, 8.931396
410.1184, 8.920654
410.6006, 8.612061
411.0827, 7.957764
411.5648, 6.692017
412.0469, 5.007446
412.5290, 3.531982
413.0111, 2.798828
413.4933, 2.567993
413.9754, 1.994019
414.4575, 0.8944090
414.9396, 2.8687000E-02
415.4217, 0.6342770
415.9038, 0.7944340
416.3860, 0.1563720
416.8681, 1.557251
417.3502, 3.410767
417.8323, 4.663452
418.3144, 5.314087
418.7965, 5.261963
419.2787, 4.166260
419.7608, 2.789185
420.2429, 1.992676
420.7250, 1.723389
421.2071, 1.388306
421.6892, 0.4329830
422.1714, 0.5240480
422.6535, 0.4779050
423.1356, 0.5659180
423.6177, 1.479126
424.0998, 1.334961
424.5819, 0.5019530
425.0641, 0.6146240
425.5462, 2.703491
426.0283, 4.434814
426.5104, 4.295654
426.9925, 3.173584
427.4746, 2.918213
427.9568, 4.204956
428.4389, 6.064453
428.9210, 7.068115
429.4031, 6.940430
429.8852, 6.538208
430.3673, 5.148682
430.8495, 4.056152
431.3316, 4.526733
431.8137, 6.230469
432.2958, 7.681274
432.7779, 7.805420
433.2600, 6.874023
433.7422, 6.476440
434.2243, 6.626831
434.7064, 7.286865
435.1885, 9.106201
435.6706, 11.09607
436.1527, 11.86108
436.6349, 11.03467
437.1170, 10.02673
437.5991, 11.03210
438.0812, 14.79712
438.5633, 17.80664
439.0454, 19.81335
439.5276, 21.25659
440.0097, 21.91638
440.4918, 22.13953
440.9739, 22.57800
441.4560, 23.60693
441.9381, 25.16821
442.4203, 27.23718
442.9024, 30.14441
443.3845, 32.67517
443.8666, 33.93823
444.3487, 35.00159
444.8308, 36.86243
445.3130, 39.68884
445.7951, 42.55750
446.2772, 44.38940
446.7593, 45.49670
447.2414, 47.56860
447.7235, 51.00769
448.2057, 54.96924
448.6878, 58.99292
449.1699, 63.05713
449.6520, 67.04346
450.1341, 70.95544
450.6162, 74.76135
451.0984, 78.08203
451.5805, 81.09863
452.0626, 85.15161
452.5447, 91.16589
453.0268, 97.95044
453.5089, 103.0094
453.9911, 105.9926
454.4732, 109.4100
454.9553, 113.8058
455.4374, 118.9078
455.9195, 124.5411
456.4016, 130.6578
456.8838, 137.0664
457.3659, 143.7268
457.8480, 150.5493
458.3301, 157.0352
458.8122, 162.4077
459.2943, 168.4454
459.7765, 176.6353
460.2586, 185.4174
460.7407, 192.6327
461.2228, 197.5463
461.7049, 201.2120
462.1870, 205.3492
462.6692, 210.6863
463.1513, 214.1108
463.6334, 214.5526
464.1155, 214.4122
464.5976, 214.6274
465.0797, 214.9102
465.5619, 214.6139
466.0440, 213.3677
466.5261, 211.2902
467.0082, 208.7513
467.4903, 205.8827
467.9724, 202.3508
468.4546, 197.1383
468.9367, 191.7007
469.4188, 187.3140
469.9009, 184.0403
470.3830, 180.8066
470.8651, 176.6218
471.3473, 171.7205
471.8294, 167.1471
472.3115, 163.1448
472.7936, 159.0302
473.2757, 154.0374
473.7578, 148.6123
474.2400, 143.7465
474.7221, 139.9080
475.2042, 136.1072
475.6863, 131.6418
476.1684, 126.6685
476.6505, 121.6655
477.1327, 116.7374
477.6148, 111.8521
478.0969, 106.7928
478.5790, 101.5118
479.0611, 96.84143
479.5432, 93.42065
480.0254, 90.13879
480.5075, 86.18115
480.9896, 81.75171
481.4717, 77.55103
481.9538, 73.96936
482.4359, 70.85242
482.9181, 67.77039
483.4002, 64.86230
483.8823, 61.74585
484.3644, 57.86938
484.8465, 54.19568
485.3286, 51.35791
485.8108, 49.41797
486.2929, 48.20898
486.7750, 47.78760
487.2571, 47.97913
487.7392, 47.18469
488.2213, 44.98889
488.7035, 42.41528
489.1856, 39.07092
489.6677, 35.87524
490.1498, 33.95691
490.6319, 33.57947
491.1140, 33.56799
491.5962, 32.62854
492.0783, 30.91431
492.5604, 29.95532
493.0425, 30.49744
493.5246, 30.64465
494.0067, 28.28979
494.4889, 24.50879
494.9710, 21.68933
495.4531, 20.69885
495.9352, 20.46399
496.4173, 20.63916
496.8994, 20.95093
497.3816, 20.16968
497.8637, 17.65698
498.3458, 14.67993
498.8279, 13.07190
499.3100, 13.08765
499.7921, 13.29309
500.2743, 14.11914
500.7564, 14.68005
501.2385, 14.18677
501.7206, 12.89111
502.2027, 11.61328
502.6848, 10.80823
503.1670, 10.35791
503.6491, 9.930298
504.1312, 9.377319
504.6133, 9.098145
505.0954, 9.434814
505.5775, 9.762207
506.0597, 9.521118
506.5418, 8.809937
507.0239, 8.260376
507.5060, 8.531616
507.9881, 9.305298
508.4702, 8.890869
508.9524, 6.569214
509.4345, 4.695190
509.9166, 4.192871
510.3987, 4.404175
510.8808, 4.928223
511.3629, 5.703125
511.8451, 6.430420
512.3271, 7.308594
512.8093, 7.960327
513.2914, 6.904785
513.7735, 3.630981
514.2556, 0.6746830
514.7377, 1.7212000E-02
515.2198, 1.085938
515.7020, 1.665405
516.1841, 1.536255
516.6662, 1.149902
517.1483, 0.4661870
517.6304, 0.2872310
518.1125, 0.7053220
518.5947, 0.6975100
519.0768, 0.4957280
519.5589, 0.2972410
520.0410, 6.1400998E-02
520.5231, 0.2924800
521.0052, 1.943481
521.4874, 2.918335
521.9695, 1.972534
522.4516, 0.1433110
522.9337, 1.155884
523.4158, 1.398560
523.8979, 0.9189450
524.3801, 4.2719999E-03
524.8622, 1.591187
525.3443, 2.378784
525.8264, 1.466553
526.3085, 0.6688230
526.7906, 1.005249
527.2728, 1.977051
527.7549, 2.546753
528.2370, 2.142456
528.7191, 1.525269
529.2012, 1.892822
529.6833, 3.152100
530.1655, 3.787720
530.6476, 3.309204
531.1297, 2.294312
531.6118, 1.148193
532.0939, 8.6425997E-02
532.5760, 0.9130860
533.0582, 0.9635010
533.5403, 0.8073730
534.0224, 0.8525390
534.5045, 1.062378
534.9866, 1.246704
535.4688, 1.315552
535.9509, 1.409058
536.4330, 1.818970
536.9151, 2.817627
537.3972, 3.498047
537.8793, 3.440674
538.3615, 3.489868
538.8436, 4.301880
539.3257, 5.593750
539.8078, 6.575928
540.2899, 6.755615
540.7720, 6.628174
541.2542, 7.487305
541.7363, 9.765137
542.2184, 11.52466
542.7005, 11.90674
543.1826, 12.14575
543.6647, 12.92419
544.1469, 14.18652
544.6290, 15.56738
545.1111, 17.01306
545.5932, 18.37500
546.0753, 19.15479
546.5574, 19.39526
547.0396, 20.46851
547.5217, 23.21497
548.0038, 26.59546
548.4859, 28.92114
548.9680, 30.11072
549.4501, 31.47974
549.9323, 33.05237
550.4144, 35.06567
550.8965, 38.12463
551.3786, 41.85815
551.8607, 44.95935
552.3428, 46.65540
552.8250, 47.68689
553.3071, 49.86829
553.7892, 53.53748
554.2713, 57.86328
554.7534, 63.55286
555.2355, 69.18213
555.7177, 74.03210
556.1998, 78.13098
556.6819, 81.76831
557.1640, 85.06848
557.6461, 88.08923
558.1282, 91.21362
558.6104, 94.71179
559.0925, 96.62952
559.5746, 96.37476
560.0567, 94.35681
560.5388, 90.68958
561.0209, 85.59680
561.5031, 80.53088
561.9852, 75.96436
562.4673, 71.75854
562.9494, 67.98547
563.4315, 64.50989
563.9136, 60.69019
564.3958, 56.19397
564.8779, 51.33557
565.3600, 46.50659
565.8421, 41.36963
566.3242, 37.48413
566.8063, 35.65735
567.2885, 34.26001
567.7706, 32.29065
568.2527, 30.04565
568.7348, 28.38428
569.2169, 27.73169
569.6990, 27.60376
570.1812, 26.95361
570.6633, 25.49097
571.1454, 24.71509
571.6275, 25.20483
572.1096, 25.94153
572.5917, 26.27039
573.0739, 26.49683
573.5560, 27.26111
574.0381, 29.01428
574.5202, 31.04358
575.0023, 32.65344
575.4844, 33.82495
575.9666, 34.43225
576.4487, 34.23425
576.9308, 34.29578
577.4129, 36.03992
577.8950, 39.50305
578.3771, 41.81775
578.8593, 42.02087
579.3414, 41.89612
579.8235, 41.98291
580.3056, 42.53992
580.7877, 43.79980
581.2698, 45.80432
581.7520, 48.32019
582.2341, 51.15906
582.7162, 54.38391
583.1984, 56.80457
583.6805, 57.99622
584.1626, 59.10510
584.6447, 60.24475
585.1268, 61.44299
585.6089, 62.75720
586.0911, 64.25671
586.5732, 66.08411
587.0553, 68.11133
587.5374, 70.43762
588.0195, 73.71265
588.5016, 78.14880
588.9838, 83.31091
589.4659, 89.69470
589.9480, 96.35547
590.4301, 100.5300
590.9122, 101.1012
591.3943, 101.4338
591.8765, 102.5222
592.3586, 103.9237
592.8407, 105.2556
593.3228, 106.4220
593.8049, 107.4172
594.2870, 108.2979
594.7692, 108.9542
595.2513, 108.7378
595.7334, 107.0957
596.2155, 105.4615
596.6976, 104.0824
597.1797, 102.7045
597.6619, 101.3323
598.1440, 99.83142
598.6261, 97.76782
599.1082, 94.63037
599.5903, 90.99609
600.0724, 87.84705
600.5546, 85.17822
601.0367, 82.83533
601.5188, 80.86926
602.0009, 79.03918
602.4830, 77.01965
602.9651, 74.81238
603.4473, 72.60571
603.9294, 70.15503
604.4115, 67.99683
604.8936, 66.63306
605.3757, 65.83801
605.8578, 65.28882
606.3400, 64.78235
606.8221, 64.07544
607.3042, 62.88550
607.7863, 61.19482
608.2684, 60.53430
608.7505, 62.78369
609.2327, 63.86340
609.7148, 61.47656
610.1969, 57.79175
610.6790, 55.61194
611.1611, 55.72144
611.6432, 56.47668
612.1254, 56.49597
612.6075, 55.99365
613.0896, 55.78918
613.5717, 56.00159
614.0538, 55.66309
614.5359, 53.80713
615.0181, 51.19678
615.5002, 50.19312
615.9823, 51.62598
616.4644, 52.54004
616.9465, 52.12561
617.4286, 51.10864
617.9108, 49.95874
618.3929, 48.77136
618.8750, 47.51428
619.3571, 46.15002
619.8392, 44.90039
620.3214, 44.49622
620.8035, 45.40234
621.2856, 45.73779
621.7677, 45.30298
622.2498, 44.23950
622.7319, 42.02295
623.2141, 39.24646
623.6962, 37.45618
624.1783, 37.76196
624.6604, 38.31311
625.1425, 36.72681
625.6246, 33.83020
626.1068, 32.80420
626.5889, 34.54382
627.0710, 36.33997
627.5531, 35.59070
628.0352, 32.42017
628.5173, 29.56628
628.9995, 26.07007
629.4816, 24.07422
629.9637, 25.45227
630.4458, 27.62732
630.9279, 27.91333
631.4100, 26.14148
631.8922, 24.11841
632.3743, 23.39966
632.8564, 23.51331
633.3385, 22.51538
633.8206, 19.96240
634.3027, 18.10571
634.7849, 17.94861
635.2670, 18.39221
635.7491, 18.50049
636.2312, 18.27429
636.7133, 17.70557
637.1954, 16.43347
637.6776, 15.12976
638.1597, 14.50061
638.6418, 14.26294
639.1239, 13.63464
639.6060, 12.37170
640.0881, 10.96240
640.5703, 10.05786
641.0524, 9.735229
641.5345, 9.177368
642.0166, 8.174438
642.4987, 7.210083
642.9808, 6.348633
643.4630, 5.625122
643.9451, 5.051392
644.4272, 4.597046
644.9093, 4.152100
645.3914, 3.629395
645.8735, 3.084473
646.3557, 2.522705
646.8378, 1.922363
647.3199, 1.857544
647.8020, 2.844971
648.2841, 4.076904
648.7662, 4.143433
649.2484, 2.794678
649.7305, 1.704956
650.2126, 1.186768
650.6947, 0.7954100
651.1768, 0.2050780
651.6589, 0.5045170
652.1411, 0.9559330
652.6232, 1.014282
653.1053, 0.5974120
653.5874, 0.5498050
654.0695, 2.435669
654.5516, 3.375122
655.0338, 3.089355
655.5159, 2.423950
655.9980, 1.295898
656.4801, 0.2031250
656.9622, 0.2583010
657.4443, 1.3430000E-03
657.9265, 0.4407960
658.4086, 0.9760740
658.8907, 1.489136
659.3728, 1.956299
659.8549, 2.298462
660.3370, 2.236572
660.8192, 1.628540
661.3013, 0.6428220
661.7834, 0.4399410
662.2655, 1.667725
662.7476, 2.609619
663.2297, 4.238647
663.7119, 4.846313
664.1940, 2.827759
664.6761, 0.1517330
665.1582, 1.828369
665.6403, 1.510498
666.1224, 0.6124270
666.6046, 0.1571040
667.0867, 0.1022950
667.5688, 0.1182860
668.0509, 0.1334230
668.5330, 0.2205810
669.0151, 0.5006100
669.4973, 0.8278810
669.9794, 0.8078610
670.4615, 0.1677250
670.9436, 0.2353520
671.4257, 1.887939
671.9078, 3.392578
672.3900, 3.669434
672.8721, 3.224487
673.3542, 3.036743
673.8363, 3.444214
674.3184, 3.922852
674.8005, 3.559692
675.2827, 2.526611
675.7648, 2.825195
676.2469, 5.045654
676.7290, 6.592163
677.2111, 5.768799
677.6932, 3.878418
678.1754, 3.109863
678.6575, 3.722900
679.1396, 3.982422
679.6217, 2.918701
680.1038, 1.859009
680.5859, 1.876465
681.0681, 2.705688
681.5502, 3.767822
682.0323, 4.807373
682.5144, 5.515015
682.9965, 5.332886
683.4786, 4.198730
683.9608, 3.248901
684.4429, 2.358154
684.9250, 1.883423
685.4071, 2.177979
685.8892, 2.846802
686.3713, 3.584961
686.8535, 4.372070
687.3356, 4.898193
687.8177, 5.013428
688.2998, 4.802368
688.7819, 4.145508
689.2640, 3.218994
689.7462, 2.578857
690.2283, 2.431519
690.7104, 2.552368
691.1925, 2.596313
691.6746, 2.510376
692.1567, 2.863403
692.6389, 4.554443
693.1210, 5.434814
693.6031, 4.296875
694.0852, 2.549683
694.5673, 1.598877
695.0494, 1.611572
695.5316, 1.905151
696.0137, 2.208740
696.4958, 2.492798
696.9779, 2.812134
697.4600, 3.103882
697.9421, 3.014648
698.4243, 2.396606
698.9064, 1.598511
699.3885, 1.050415
699.8706, 0.7864990
700.3527, 0.4975590
700.8348, 3.4912001E-02
701.3170, 0.2470700
701.7991, 5.5176001E-02
702.2812, 0.6669920
702.7633, 1.569824
703.2454, 2.656372
703.7275, 3.489990
704.2097, 3.735474
704.6918, 3.632202
705.1739, 3.466553
705.6560, 3.261230
706.1381, 3.287720
706.6202, 3.702393
707.1024, 3.848999
707.5845, 2.851318
708.0666, 0.7362060
708.5487, 0.1867680
709.0308, 1.383789
709.5129, 2.322998
709.9951, 1.353516
710.4772, 0.1876220
710.9593, 0.5102540
711.4414, 2.098267
711.9235, 3.436890
712.4056, 3.645874
712.8878, 3.178833
713.3699, 2.431763
713.8520, 1.525024
714.3341, 1.564209
714.8162, 2.968384
715.2983, 4.216064
715.7805, 4.026733
716.2626, 2.689819
716.7447, 1.816650
717.2268, 1.328491
717.7089, 1.415771
718.1910, 3.212036
718.6732, 4.586304
719.1553, 3.251709
719.6374, 0.2747800
720.1195, 1.363159
720.6016, 2.6489001E-02
721.0837, 2.075073
721.5659, 1.897949
722.0480, 7.4951001E-02
722.5301, 0.5749510
723.0122, 0.2459720
723.4943, 0.8365480
723.9764, 0.1186520
724.4586, 1.340820
724.9407, 2.076538
725.4228, 1.779053
725.9049, 1.555786
726.3870, 2.083496
726.8691, 2.094849
727.3513, 0.3908690
727.8334, 2.159302
728.3155, 4.116455
728.7976, 5.026123
729.2797, 5.304199
729.7618, 5.122925
730.2440, 4.633911
730.7261, 4.471313
731.2082, 4.689087
731.6903, 4.654785
732.1724, 3.968628
732.6545, 3.176147
733.1367, 3.270508
733.6188, 4.626465
734.1009, 4.632080
734.5830, 1.483887
735.0651, 0.8709720
735.5472, 0.4328610
736.0294, 1.136719
736.5115, 1.802002
736.9936, 1.355713
737.4757, 1.157959
737.9578, 2.518066
738.4399, 4.502441
738.9221, 5.044678
739.4042, 4.245361
739.8863, 3.781860
740.3684, 4.130859
740.8505, 4.629150
741.3326, 4.667847
741.8148, 4.286011
742.2969, 3.909790
742.7790, 3.637695
743.2611, 3.244385
743.7432, 2.452148
744.2253, 1.751221
744.7075, 1.509888
745.1896, 1.678223
745.6717, 2.043213
746.1538, 2.530640
746.6359, 3.066650
747.1180, 3.630249
747.6002, 4.175537
748.0823, 4.533569
748.5644, 4.686401
749.0465, 4.645020
749.5286, 4.397583
750.0107, 3.977295
750.4929, 3.415283
750.9750, 2.450073
751.4571, 1.983032
751.9392, 2.463867
752.4213, 2.900635
752.9034, 2.808472
753.3856, 2.478394
753.8677, 2.346924
754.3498, 2.506104
754.8319, 2.661255
755.3140, 2.753906
755.7961, 2.616943
756.2783, 1.554810
756.7604, 0.1480710
757.2425, 0.7438960
757.7246, 0.4245610
758.2067, 2.134644
758.6888, 3.001343
759.1710, 3.042847
759.6531, 2.755859
760.1352, 1.317261
760.6173, 0.8437500
761.0994, 2.589844
761.5815, 4.515869
762.0637, 4.805542
762.5458, 3.885620
763.0279, 3.731567
763.5100, 5.753296
763.9921, 7.571655
764.4742, 6.749634
764.9564, 4.525879
765.4385, 3.094482
765.9206, 2.693115
766.4027, 2.754272
766.8848, 3.120239
767.3669, 3.480835
767.8491, 3.111450
768.3312, 1.609497
768.8133, 0.8294680
769.2954, 1.339111
769.7775, 1.832886
770.2596, 1.765381
770.7418, 1.332886
771.2239, 0.6147460
771.7060, 0.4581300
772.1881, 0.9825440
772.6702, 2.8687000E-02
773.1523, 1.140625
773.6345, 1.018921
774.1166, 0.1281740
774.5987, 0.6281740
775.0808, 0.9377440
775.5629, 0.6861570
776.0450, 0.4086910
776.5272, 2.077148
777.0093, 2.972046
777.4914, 2.924805
777.9735, 2.775391
778.4556, 3.132446
778.9377, 3.242432
779.4199, 1.930054
779.9020, 0.3552250
780.3841, 1.312256
780.8662, 0.4429930
781.3483, 1.771851
781.8304, 1.632813
782.3126, 0.9105220
782.7947, 9.4360001E-02
783.2768, 0.4777830
783.7589, 0.2889400
784.2410, 0.8721920
784.7231, 2.274902
785.2053, 3.318359
785.6874, 3.879761
786.1695, 3.359497
786.6516, 1.658447
787.1337, 0.4351810
787.6158, 0.3818360
788.0980, 1.309448
788.5801, 3.201294
789.0622, 6.427856
789.5443, 8.161377
790.0264, 7.638062
790.5085, 6.658569
790.9907, 4.715942
791.4728, 3.131470
791.9549, 3.355225
792.4370, 5.178711
792.9191, 7.083984
793.4012, 8.866821
793.8834, 9.902100
794.3655, 8.960205
794.8476, 6.902832
795.3297, 5.354614
795.8118, 4.625244
796.2939, 5.052490
796.7761, 7.027100
797.2582, 9.568237
797.7403, 10.15759
798.2224, 8.186768
798.7045, 6.859741
799.1866, 6.565063
799.6688, 6.420166
800.1509, 5.708252
800.6330, 5.100586
801.1151, 5.503906
801.5972, 7.029297
802.0793, 8.810303
802.5615, 11.20569
803.0436, 13.18445
803.5257, 13.80762
804.0078, 13.73975
804.4899, 13.97144
804.9720, 14.66443
805.4542, 15.34033
805.9363, 15.62402
806.4184, 15.64758
806.9005, 15.82483
807.3826, 16.11865
807.8647, 15.67407
808.3469, 14.15479
808.8290, 12.73083
809.3111, 12.19678
809.7932, 12.36694
810.2753, 12.68335
810.7574, 13.14282
811.2396, 13.75183
811.7217, 14.62402
812.2038, 15.52112
812.6859, 16.74194
813.1680, 17.74182
813.6501, 17.54077
814.1323, 16.03894
814.6144, 14.78748
815.0965, 15.03027
815.5786, 15.83740
816.0607, 16.08911
816.5428, 15.93909
817.0250, 15.90686
817.5071, 16.08630
817.9892, 16.03967
818.4713, 15.37146
818.9534, 14.24329
819.4355, 13.17151
819.9177, 12.08667
820.3998, 11.34448
820.8819, 11.07202
821.3640, 10.99792
821.8461, 11.14783
822.3282, 11.32678
822.8104, 11.05676
823.2925, 10.08862
823.7746, 9.627563
824.2567, 10.37073
824.7388, 11.20508
825.2209, 11.51013
825.7031, 11.50415
826.1852, 11.52759
826.6673, 11.65820
827.1494, 11.81409
827.6315, 11.97424
828.1136, 12.06238
828.5958, 11.89221
829.0779, 11.50916
829.5600, 11.10010
830.0421, 10.68945
830.5242, 10.38391
831.0063, 10.13721
831.4885, 10.09473
831.9706, 10.90076
832.4527, 13.47217
832.9348, 14.36072
833.4169, 12.04272
833.8990, 9.980835
834.3812, 9.398682
834.8633, 9.849487
835.3454, 11.17322
835.8275, 13.39270
836.3096, 14.65808
836.7917, 13.68762
837.2739, 12.30652
837.7560, 11.39587
838.2381, 10.87427
838.7202, 10.74475
839.2023, 10.90454
839.6844, 11.26135
840.1666, 11.81836
840.6487, 12.30530
841.1308, 12.18274
841.6129, 11.53308
842.0950, 10.73962
842.5771, 9.787842
843.0593, 9.377197
843.5414, 10.03711
844.0235, 11.15320
844.5056, 11.57593
844.9877, 11.16711
845.4698, 10.77405
845.9520, 10.83362
846.4341, 10.32910
846.9162, 7.973267
847.3983, 5.778931
847.8804, 5.933960
848.3625, 8.074585
848.8447, 9.649231
849.3268, 9.656616
849.8089, 9.126221
850.2910, 8.076660
850.7731, 7.189148
851.2552, 7.468689
851.7374, 8.663330
852.2195, 9.775818
852.7016, 10.34741
853.1837, 10.60266
853.6658, 10.79932
854.1479, 10.93213
854.6301, 10.71381
855.1122, 10.12469
855.5943, 10.78894
856.0764, 13.60205
856.5585, 16.61664
857.0406, 17.61694
857.5228, 16.67767
858.0049, 15.70837
858.4870, 14.84558
858.9691, 13.85199
859.4512, 12.25873
859.9333, 10.91528
860.4155, 10.28314
860.8976, 10.31073
861.3797, 10.90289
861.8618, 12.16260
862.3439, 13.13501
862.8260, 13.35327
863.3082, 13.12463
863.7903, 12.32446
864.2724, 11.42419
864.7545, 11.25720
865.2366, 11.93518
865.7188, 12.72113
866.2009, 13.18976
866.6830, 13.42303
867.1651, 13.38293
867.6472, 13.14996
868.1293, 13.56519
868.6115, 14.76855
869.0936, 15.42310
869.5757, 14.51349
870.0578, 13.18243
870.5399, 14.04742
871.0220, 18.03943
871.5042, 19.44666
871.9863, 16.26605
872.4684, 13.71826
872.9505, 14.08057
873.4326, 15.19550
873.9147, 15.22388
874.3969, 14.33008
874.8790, 13.73016
875.3611, 13.91791
875.8432, 14.02606
876.3253, 13.59259
876.8074, 13.13727
877.2896, 12.86188
877.7717, 13.07196
878.2538, 14.53101
878.7359, 17.44031
879.2180, 19.86719
879.7001, 19.56293
880.1823, 17.84851
880.6644, 17.09009
881.1465, 17.13428
881.6286, 17.09656
882.1107, 16.74585
882.5928, 16.65118
883.0750, 17.43854
883.5571, 18.61798
884.0392, 18.26746
884.5213, 15.94800
885.0034, 14.78656
885.4855, 15.66022
885.9677, 16.29779
886.4498, 15.41449
886.9319, 13.71802
887.4140, 12.36639
887.8961, 11.42255
888.3782, 10.48462
888.8604, 8.998108
889.3425, 8.246704
889.8246, 9.143066
890.3067, 10.48138
890.7888, 11.61871
891.2709, 12.24939
891.7531, 11.73260
892.2352, 9.533997
892.7173, 7.175720
893.1994, 5.405457
893.6815, 4.254639
894.1636, 3.702759
894.6458, 3.810486
895.1279, 5.125977
895.6100, 7.653992
896.0921, 9.776184
896.5742, 9.786804
897.0563, 8.400085
897.5385, 7.292297
898.0206, 6.484314
898.5027, 6.518311
898.9848, 7.582336
899.4669, 8.410278
899.9490, 8.135742
900.4312, 7.156494
900.9133, 6.303284
901.3954, 5.438354
901.8775, 5.422241
902.3596, 7.188354
902.8417, 8.205017
903.3239, 7.067993
903.8060, 5.355774
904.2881, 4.704224
904.7702, 4.897888
905.2523, 4.476746
905.7344, 2.399536
906.2166, 0.9866940
906.6987, 1.255737
907.1808, 1.933472
907.6629, 2.189575
908.1450, 2.148682
908.6271, 2.227478
909.1093, 2.525024
909.5914, 2.662476
910.0735, 2.296021
910.5556, 1.708374
911.0377, 1.184326
911.5198, 0.6837770
912.0020, 0.1267700
912.4841, 0.4980470
912.9662, 1.289429
913.4483, 2.389038
913.9304, 3.121277
914.4125, 1.781677
914.8947, 1.212891
915.3768, 2.249146
915.8589, 1.095093
916.3410, 1.5930001E-02
916.8231, 0.1258540
917.3052, 5.5358998E-02
917.7874, 0.6099850
918.2695, 1.700256
918.7516, 2.470337
919.2337, 2.938354
919.7158, 3.026794
920.1979, 2.468323
920.6801, 1.866089
921.1622, 1.557312
921.6443, 1.415344
922.1264, 1.185974
922.6085, 1.269409
923.0906, 0.7974850
923.5728, 1.643677
924.0549, 2.394592
924.5370, 2.859314
925.0191, 2.950317
925.5012, 2.423584
925.9833, 1.466553
926.4655, 0.5925290
926.9476, 3.6132999E-02
927.4297, 0.4113770
927.9118, 0.4949340
928.3939, 0.3459470
928.8760, 0.1970830
929.3582, 0.8678590
929.8403, 0.9779050
930.3224, 0.4331050
930.8045, 4.8950002E-02
931.2866, 0.1517940
931.7687, 0.6607060
932.2509, 0.7880860
932.7330, 0.5939940
933.2151, 0.2148440
933.6972, 0.3060910
934.1793, 0.1934200
934.6614, 1.022217
935.1436, 2.388367
935.6257, 2.458862
936.1078, 1.304565
936.5899, 0.3858640
937.0720, 0.2202760
937.5541, 0.8956300
938.0363, 1.773560
938.5184, 2.610962
939.0005, 3.332642
939.4826, 3.820374
939.9647, 3.650452
940.4468, 2.177185
940.9290, 1.799866
941.4111, 3.176575
941.8932, 4.758545
942.3753, 6.601990
942.8574, 8.083496
943.3395, 8.215271
943.8217, 7.366882
944.3038, 7.405762
944.7859, 9.189209
945.2680, 11.05359
945.7501, 12.55389
946.2322, 13.78162
946.7144, 14.48938
947.1965, 15.11060
947.6786, 16.42944
948.1607, 18.54175
948.6428, 20.65741
949.1249, 22.14484
949.6071, 23.57361
950.0892, 25.28943
950.5713, 27.44348
951.0534, 30.46246
951.5355, 34.19818
952.0176, 37.83154
952.4998, 41.01404
952.9819, 44.67993
953.4640, 50.25378
953.9461, 57.07422
954.4282, 63.56671
954.9103, 69.60187
955.3925, 73.43671
955.8746, 74.71344
956.3567, 77.25281
956.8388, 83.89990
957.3209, 92.86792
957.8030, 100.1666
958.2852, 105.5211
958.7673, 112.4503
959.2494, 121.1711
959.7315, 130.5468
960.2136, 140.3003
960.6957, 150.5010
961.1779, 160.9196
961.6600, 171.8552
962.1421, 184.7871
962.6242, 201.1328
963.1063, 216.6398
963.5884, 229.9067
964.0706, 243.9844
964.5527, 261.6318
965.0348, 279.6295
965.5169, 294.4292
965.9990, 306.0457
966.4811, 316.4120
966.9633, 325.9740
967.4454, 333.9538
967.9275, 340.8334
968.4096, 345.4463
968.8917, 347.1276
969.3738, 345.9766
969.8560, 342.0263
970.3381, 335.3115
970.8202, 326.8981
971.3023, 316.6562
971.7844, 305.5977
972.2665, 293.7863
972.7487, 282.2808
973.2308, 272.8813
973.7129, 264.6885
974.1950, 254.6638
974.6771, 241.7159
975.1592, 228.5987
975.6414, 217.8188
976.1235, 208.2641
976.6056, 197.9874
977.0877, 187.7531
977.5698, 179.8217
978.0519, 174.2214
978.5341, 168.5252
979.0162, 161.2564
979.4983, 153.6567
979.9804, 147.6858
980.4625, 141.4370
980.9446, 135.8164
981.4268, 131.1438
981.9089, 126.1285
982.3910, 122.8342
982.8731, 119.7008
983.3552, 115.4412
983.8373, 110.7834
984.3195, 107.6078
984.8016, 105.9796
985.2837, 104.1455
985.7658, 102.0393
986.2479, 99.60706
986.7300, 96.58478
987.2122, 93.84888
987.6943, 92.42944
988.1764, 92.08075
988.6585, 91.22241
989.1406, 89.58655
989.6227, 87.96960
990.1049, 86.15460
990.5870, 84.89996
991.0691, 84.59662
991.5512, 84.93085
992.0333, 85.73163
992.5154, 86.91241
992.9976, 87.45752
993.4797, 87.04749
993.9618, 86.77710
994.4439, 86.52197
994.9260, 86.52985
995.4081, 86.84271
995.8903, 87.53247
996.3724, 88.78046
996.8545, 90.58228
997.3366, 92.38684
997.8187, 94.37128
998.3008, 95.95361
998.7830, 96.52277
999.2651, 97.06488
999.7472, 98.11292
1000.229, 99.71143
1000.711, 101.9373
1001.194, 104.7816
1001.676, 107.7429
1002.158, 110.6225
1002.640, 113.5421
1003.122, 116.7158
1003.604, 119.8596
1004.086, 122.5713
1004.568, 125.0365
1005.050, 127.8929
1005.533, 131.3226
1006.015, 134.3725
1006.497, 135.8947
1006.979, 137.2100
1007.461, 139.8853
1007.943, 143.0670
1008.425, 145.2055
1008.907, 146.4982
1009.390, 148.3684
1009.872, 151.4207
1010.354, 154.3183
1010.836, 155.8091
1011.318, 156.2855
1011.800, 155.8794
1012.282, 155.0941
1012.764, 155.5090
1013.246, 157.0350
1013.729, 157.9268
1014.211, 157.2689
1014.693, 155.4561
1015.175, 153.0054
1015.657, 149.8110
1016.139, 145.0237
1016.621, 139.0946
1017.103, 134.5965
1017.586, 131.9086
1018.068, 128.8900
1018.550, 124.2189
1019.032, 118.7926
1019.514, 114.1880
1019.996, 110.2075
1020.478, 105.6625
1020.960, 100.5704
1021.442, 95.85742
1021.925, 91.73956
1022.407, 88.30585
1022.889, 85.76019
1023.371, 83.48755
1023.853, 80.13397
1024.335, 75.68494
1024.817, 71.54108
1025.299, 67.66272
1025.781, 64.49994
1026.264, 62.18054
1026.746, 60.29004
1027.228, 58.59528
1027.710, 57.08636
1028.192, 55.82025
1028.674, 54.96222
1029.156, 52.85999
1029.638, 48.87805
1030.120, 45.84814
1030.603, 44.63550
1031.085, 44.41821
1031.567, 44.68304
1032.049, 44.91040
1032.531, 43.95288
1033.013, 41.45264
1033.495, 39.57373
1033.977, 38.57941
1034.460, 37.70331
1034.942, 37.08734
1035.424, 36.10620
1035.906, 33.80151
1036.388, 30.78625
1036.870, 29.02570
1037.352, 28.98254
1037.834, 28.75751
1038.317, 28.62982
1038.799, 27.93787
1039.281, 25.82318
1039.763, 23.62390
1040.245, 22.38635
1040.727, 21.89551
1041.209, 21.46722
1041.691, 21.22522
1042.173, 20.48456
1042.656, 18.67133
1043.138, 17.03503
1043.620, 15.73688
1044.102, 14.92792
1044.584, 14.86908
1045.066, 15.20972
1045.548, 15.19727
1046.030, 14.76654
1046.512, 13.89301
1046.995, 12.20941
1047.477, 10.70636
1047.959, 9.503052
1048.441, 8.742310
1048.923, 8.822571
1049.405, 9.371399
1049.887, 9.396851
1050.369, 8.548767
1050.852, 8.446106
1051.334, 10.34961
1051.816, 11.79858
1052.298, 11.51025
1052.780, 10.83508
1053.262, 10.91431
1053.744, 11.47119
1054.226, 11.64331
1054.708, 11.20239
1055.191, 11.13019
1055.673, 11.87628
1056.155, 12.78912
1056.637, 13.96185
1057.119, 14.89874
1057.601, 15.32489
1058.083, 15.19696
1058.565, 14.05524
1059.047, 11.70502
1059.530, 10.77136
1060.012, 13.56268
1060.494, 15.92047
1060.976, 15.68219
1061.458, 14.66357
1061.940, 14.81635
1062.422, 15.40100
1062.904, 14.26001
1063.387, 11.03699
1063.869, 8.932739
1064.351, 10.30420
1064.833, 11.29724
1065.315, 9.641968
1065.797, 7.398499
1066.279, 6.432739
1066.761, 6.241943
1067.244, 5.410889
1067.726, 3.803162
1068.208, 3.207458
1068.690, 5.847961
1069.172, 7.661438
1069.654, 5.810608
1070.136, 3.228577
1070.618, 2.341309
1071.100, 2.506348
1071.583, 2.285217
1072.065, 1.524963
1072.547, 1.077087
1073.029, 1.534607
1073.511, 1.903076
1073.993, 1.772217
1074.475, 1.277100
1074.957, 0.3057250
1075.439, 0.7678220
1075.922, 1.612061
1076.404, 2.065186
1076.886, 1.716553
1077.368, 5.8655001E-02
1077.850, 1.589905
1078.332, 2.035950
1078.814, 2.022827
1079.297, 1.813477
1079.779, 1.543579
1080.261, 1.457214
1080.743, 1.471985
1081.225, 1.146606
1081.707, 0.2200930
1082.189, 0.6754760
1082.671, 1.522522
1083.153, 1.937805
1083.635, 1.636047
1084.118, 0.7811890
1084.600, 0.9689330
1085.082, 3.065613
1085.564, 3.787598
1086.046, 2.369690
1086.528, 1.143127
1087.010, 1.806213
1087.492, 2.082520
1087.975, 0.3121950
1088.457, 2.894897
1088.939, 2.862549
1089.421, 0.9372560
1089.903, 0.6375120
1090.385, 1.348511
1090.867, 1.731628
1091.349, 2.213013
1091.832, 2.122620
1092.314, 0.4408570
1092.796, 1.292664
1093.278, 1.592407
1093.760, 1.018127
1094.242, 0.7456050
1094.724, 0.9796140
1095.206, 1.347351
1095.688, 2.286133
1096.171, 2.570679
1096.653, 0.9028320
1097.135, 0.6623540
1097.617, 0.4436650
1098.099, 0.6595460
1098.581, 1.382629
1099.063, 1.551147
1099.545, 1.196777
1100.027, 0.4723510
1100.510, 1.304504
1100.992, 1.5991000E-02
1101.474, 1.429504
1101.956, 2.033813
1102.438, 1.976990
1102.920, 1.558594
1103.402, 0.7160030
1103.884, 1.047363
1104.367, 4.458008
1104.849, 7.156555
1105.331, 8.931213
1105.813, 9.665771
1106.295, 8.640198
1106.777, 7.133545
1107.259, 5.828003
1107.741, 5.028564
1108.224, 5.827026
1108.706, 9.270203
1109.188, 10.40289
1109.670, 6.320679
1110.152, 3.330200
1110.634, 3.789917
1111.116, 4.856934
1111.598, 4.771423
1112.080, 3.948730
1112.563, 3.155640
1113.045, 2.398743
1113.527, 1.729370
1114.009, 1.292053
1114.491, 0.6950070
1114.973, 0.5657350
1115.455, 1.339417
1115.937, 0.5432130
1116.419, 0.5611570
1116.902, 3.8268998E-02
1117.384, 0.6428220
1117.866, 1.036438
1118.348, 0.2551880
1118.830, 1.376892
1119.312, 0.2543950
1119.794, 0.5842900
1120.276, 8.0565996E-02
1120.759, 0.7944340
1121.241, 0.1011350
1121.723, 0.7371220
1122.205, 1.082825
1122.687, 0.7843020
1123.169, 1.867249
1123.651, 0.8795170
1124.133, 0.2324220
1124.615, 0.6690670
1125.098, 1.061218
1125.580, 0.5666500
1126.062, 0.3397220
1126.544, 0.8371580
1127.026, 0.9143680
1127.508, 0.2701420
1127.990, 3.051575
1128.472, 4.066895
1128.954, 2.554443
1129.437, 1.086121
1129.919, 0.9226070
1130.401, 1.351990
1130.883, 1.432007
1131.365, 1.417236
1131.847, 2.712158
1132.329, 2.838501
1132.811, 3.060669
1133.294, 4.352051
1133.776, 3.803711
1134.258, 5.143005
1134.740, 6.954895
1135.222, 8.144592
1135.704, 8.596069
1136.186, 7.441833
1136.668, 5.458313
1137.151, 6.473145
1137.633, 9.721313
1138.115, 10.66058
1138.597, 8.704773
1139.079, 7.173279
1139.561, 7.908569
1140.043, 9.560852
1140.525, 10.84485
1141.007, 11.70087
1141.490, 11.89478
1141.972, 11.62860
1142.454, 10.82959
1142.936, 9.953552
1143.418, 10.94635
1143.900, 14.17993
1144.382, 16.51770
1144.864, 15.12079
1145.346, 12.69928
1145.829, 12.05585
1146.311, 12.05182
1146.793, 11.54535
1147.275, 10.86176
1147.757, 10.63110
1148.239, 10.82825
1148.721, 10.77600
1149.203, 10.06842
1149.686, 9.580017
1150.168, 10.32373
1150.650, 10.94916
1151.132, 10.28540
1151.614, 9.289612
1152.096, 8.936707
1152.578, 9.104187
1153.060, 9.280151
1153.542, 9.320557
1154.025, 9.172913
1154.507, 8.534180
1154.989, 8.308289
1155.471, 9.301758
1155.953, 10.15027
1156.435, 9.657898
1156.917, 8.705688
1157.399, 8.765015
1157.881, 9.782043
1158.364, 9.925537
1158.846, 8.303284
1159.328, 7.055969
1159.810, 6.495911
1160.292, 6.261536
1160.774, 6.501587
1161.256, 6.814392
1161.738, 6.821838
1162.221, 6.645386
1162.703, 6.781189
1163.185, 7.344727
1163.667, 7.206848
1164.149, 5.872314
1164.631, 5.328247
1165.113, 6.018799
1165.595, 7.226379
1166.078, 8.956421
1166.560, 10.05243
1167.042, 8.808533
1167.524, 5.929688
1168.006, 4.808716
1168.488, 5.488586
1168.970, 6.578125
1169.452, 8.040161
1169.934, 8.610229
1170.417, 7.903259
1170.899, 7.040161
1171.381, 6.831238
1171.863, 6.567871
1172.345, 6.881165
1172.827, 6.660461
1173.309, 6.901123
1173.791, 7.406311
1174.273, 6.679565
1174.756, 4.806580
1175.238, 3.938416
1175.720, 4.813354
1176.202, 5.760986
1176.684, 5.381165
1177.166, 5.670898
1177.648, 4.526123
1178.130, 4.815430
1178.613, 4.261780
1179.095, 3.232666
1179.577, 2.858337
1180.059, 3.188049
1180.541, 3.540955
1181.023, 3.693115
1181.505, 3.839050
1181.987, 4.447754
1182.469, 4.796753
1182.952, 3.779480
1183.434, 2.703552
1183.916, 3.256653
1184.398, 4.640869
1184.880, 4.960815
1185.362, 4.055054
1185.844, 3.623169
1186.326, 4.552124
1186.808, 4.994995
1187.291, 3.924561
1187.773, 3.162048
1188.255, 4.033203
1188.737, 5.102966
1189.219, 4.803589
1189.701, 3.716980
1190.183, 3.622253
1190.665, 4.929810
1191.148, 4.775513
1191.630, 2.036377
1192.112, 1.202087
1192.594, 3.826904
1193.076, 6.036072
1193.558, 5.673523
1194.040, 4.337341
1194.522, 3.965881
1195.005, 4.235840
1195.487, 3.848389
1195.969, 2.873169
1196.451, 3.290039
1196.933, 5.098083
1197.415, 5.910828
1197.897, 5.161621
1198.379, 4.346741
1198.861, 4.392029
1199.344, 5.048340
1199.826, 6.357483
1200.308, 7.772339
1200.790, 8.128296
1201.272, 7.726440
1201.754, 7.022644
1202.236, 6.230713
1202.718, 5.820679
1203.200, 5.839600
1203.683, 5.543884
1204.165, 4.214722
1204.647, 3.212158
1205.129, 3.898560
1205.611, 4.987305
1206.093, 5.636353
1206.575, 5.854065
1207.057, 5.781067
1207.540, 5.344299
1208.022, 3.999573
1208.504, 1.478638
1208.986, 0.2730100
1209.468, 1.896606
1209.950, 3.497498
1210.432, 4.457886
1210.914, 5.224487
1211.396, 6.261780
1211.879, 7.018982
1212.361, 6.758972
1212.843, 5.757202
1213.325, 5.166443
1213.807, 5.175354
1214.289, 4.592773
1214.771, 3.082886
1215.253, 2.466370
1215.735, 3.311340
1216.218, 4.060059
1216.700, 3.852783
1217.182, 3.249451
1217.664, 2.876892
1218.146, 2.762817
1218.628, 3.003296
1219.110, 3.572754
1219.592, 4.552490
1220.075, 5.784424
1220.557, 6.378723
1221.039, 6.210693
1221.521, 5.926331
1222.003, 5.876648
1222.485, 5.810120
1222.967, 5.602905
1223.449, 5.117920
1223.932, 3.896912
1224.414, 2.529907
1224.896, 1.720032
1225.378, 1.449341
1225.860, 1.444092
1226.342, 1.632141
1226.824, 2.015381
1227.306, 2.854004
1227.788, 3.144592
1228.271, 1.549133
1228.753, 0.6380000
1229.235, 2.237183
1229.717, 4.253723
1230.199, 5.364197
1230.681, 5.511169
1231.163, 4.363403
1231.645, 1.989563
1232.127, 0.9398190
1232.610, 1.453186
1233.092, 2.782898
1233.574, 5.547729
1234.056, 6.783142
1234.538, 5.322937
1235.020, 3.315979
1235.502, 2.293274
1235.984, 1.838806
1236.467, 1.109436
1236.949, 1.157043
1237.431, 0.6141970
1237.913, 1.734253
1238.395, 2.850830
1238.877, 3.703796
1239.359, 3.396179
1239.841, 1.912170
1240.323, 1.111511
1240.806, 2.359009
1241.288, 3.681885
1241.770, 2.904785
1242.252, 1.549316
1242.734, 0.8814700
1243.216, 0.7003780
1243.698, 0.8796390
1244.180, 1.218872
1244.662, 1.254700
1245.145, 0.9552000
1245.627, 1.039063
1246.109, 2.376831
1246.591, 2.948914
1247.073, 1.435852
1247.555, 0.2896120
1248.037, 0.6755980
1248.519, 1.309326
1249.002, 1.351074
1249.484, 0.9834590
1249.966, 0.3855590
1250.448, 0.4238280
1250.930, 1.106934
1251.412, 1.739380
1251.894, 1.070801
1252.376, 1.056702
1252.859, 2.621826
1253.341, 3.007874
1253.823, 3.010864
1254.305, 3.196838
1254.787, 3.429321
1255.269, 3.257446
1255.751, 3.099915
1256.233, 4.336121
1256.715, 6.122375
1257.198, 7.047119
1257.680, 7.083069
1258.162, 6.503235
1258.644, 5.504272
1259.126, 4.859680
1259.608, 4.924011
1260.090, 5.303467
1260.572, 6.377258
1261.054, 7.148254
1261.537, 6.839905
1262.019, 6.303955
1262.501, 6.088684
1262.983, 5.911987
1263.465, 5.255798
1263.947, 4.252808
1264.429, 4.124878
1264.911, 5.232849
1265.394, 5.906250
1265.876, 6.417236
1266.358, 5.778503
1266.840, 3.126526
1267.322, 0.8420410
1267.804, 1.401245
1268.286, 2.806885
1268.768, 3.651367
1269.250, 4.089294
1269.733, 4.481506
1270.215, 4.805908
1270.697, 5.048157
1271.179, 5.242554
1271.661, 5.525085
1272.143, 5.851563
1272.625, 6.068054
1273.107, 6.120728
1273.589, 5.736755
1274.072, 3.923706
1274.554, 2.796936
1275.036, 4.542053
1275.518, 6.084839
1276.000, 4.899475
1276.482, 2.637390
1276.964, 0.8634640
1277.446, 0.1170650
1277.929, 0.1707150
1278.411, 1.970276
1278.893, 2.516846
1279.375, 1.305725
1279.857, 0.8151860
1280.339, 1.073486
1280.821, 1.329773
1281.303, 0.5360720
1281.786, 5.6150001E-03
1282.268, 0.0000000E+00
##END=



