##NAMES=Ernstite
##RRUFFID=R141205
##IDEAL CHEMISTRY=(Mn^2+^,Fe^3+^)AlPO_4_(OH,O)_2_
##LOCALITY=
##OWNER=Smithsonian
##SOURCE=Smithsonian
##DESCRIPTION=Type sample
##STATUS=The identification of this mineral is not yet confirmed.
##URL=rruff.info/R141205
89.01367, 233.6477
89.49579, 233.5751
89.97791, 233.6275
90.46002, 233.4769
90.94214, 234.2762
91.42426, 238.3157
91.90637, 245.1385
92.38849, 250.6953
92.87061, 251.5090
93.35272, 248.7191
93.83484, 245.1311
94.31696, 240.7850
94.79907, 236.4163
95.28119, 234.5127
95.76331, 235.5087
96.24542, 236.5482
96.72754, 234.2095
97.20966, 228.5974
97.69177, 223.6306
98.17389, 220.2431
98.65601, 218.3641
99.13812, 218.2080
99.62024, 220.2750
100.1024, 222.9500
100.5845, 223.8357
101.0666, 222.6248
101.5487, 221.0197
102.0308, 219.6276
102.5129, 218.5395
102.9951, 217.2854
103.4772, 215.5214
103.9593, 213.7644
104.4414, 213.2256
104.9235, 213.9313
105.4056, 215.6751
105.8878, 218.3624
106.3699, 221.8139
106.8520, 226.4444
107.3341, 233.7206
107.8162, 242.7229
108.2983, 248.2505
108.7805, 248.7779
109.2626, 247.1763
109.7447, 244.9928
110.2268, 241.0344
110.7089, 237.8597
111.1910, 235.7713
111.6732, 234.7387
112.1553, 234.3779
112.6374, 235.0308
113.1195, 236.1114
113.6016, 237.1576
114.0837, 237.4459
114.5659, 238.2473
115.0480, 240.2936
115.5301, 243.7691
116.0122, 246.7869
116.4943, 248.6060
116.9764, 249.6450
117.4586, 250.4307
117.9407, 251.6932
118.4228, 252.3989
118.9049, 251.6523
119.3870, 249.0668
119.8691, 246.3935
120.3513, 244.6153
120.8334, 243.5318
121.3155, 242.7707
121.7976, 241.6017
122.2797, 240.8829
122.7618, 241.7111
123.2440, 244.6889
123.7261, 248.1553
124.2082, 251.0936
124.6903, 253.3515
125.1724, 254.2886
125.6545, 252.6627
126.1367, 249.5175
126.6188, 246.7101
127.1009, 244.5436
127.5830, 242.9825
128.0651, 241.9362
128.5472, 241.4111
129.0294, 241.5464
129.5115, 243.0854
129.9936, 245.5677
130.4757, 247.0948
130.9578, 246.8320
131.4399, 245.4766
131.9221, 245.0750
132.4042, 245.7727
132.8863, 246.4063
133.3684, 245.6432
133.8505, 243.5078
134.3326, 241.4428
134.8148, 239.7803
135.2969, 238.5257
135.7790, 237.8732
136.2611, 237.9364
136.7432, 238.3325
137.2253, 238.5212
137.7075, 238.3908
138.1896, 238.6050
138.6717, 239.3462
139.1538, 240.6033
139.6359, 242.5998
140.1180, 245.8904
140.6002, 249.3475
141.0823, 251.1679
141.5644, 251.1422
142.0465, 249.9362
142.5286, 247.4358
143.0107, 242.8678
143.4929, 239.5860
143.9750, 237.9540
144.4571, 237.5077
144.9392, 237.2789
145.4213, 237.4511
145.9034, 237.6064
146.3856, 237.5308
146.8677, 236.6756
147.3498, 236.5480
147.8319, 237.7180
148.3140, 239.6969
148.7961, 240.8265
149.2783, 240.5403
149.7604, 239.8420
150.2425, 239.1584
150.7246, 237.9034
151.2067, 237.3515
151.6888, 238.0139
152.1710, 239.5899
152.6531, 240.5762
153.1352, 240.4268
153.6173, 239.9380
154.0994, 239.5430
154.5815, 238.7735
155.0637, 238.6489
155.5458, 239.9611
156.0279, 242.4396
156.5100, 243.8991
156.9921, 243.1144
157.4742, 241.5452
157.9564, 240.2463
158.4385, 239.5582
158.9206, 239.0783
159.4027, 238.7187
159.8848, 238.4774
160.3669, 238.3362
160.8491, 238.1955
161.3312, 238.1903
161.8133, 238.4418
162.2954, 239.0019
162.7775, 239.8136
163.2596, 241.1141
163.7418, 242.9072
164.2239, 244.2073
164.7060, 244.1947
165.1881, 243.4871
165.6702, 242.8521
166.1523, 242.6712
166.6345, 242.5889
167.1166, 242.2292
167.5987, 241.5378
168.0808, 241.2134
168.5629, 242.0955
169.0450, 243.6051
169.5272, 244.7919
170.0093, 244.8454
170.4914, 244.6304
170.9735, 245.1153
171.4556, 246.4673
171.9377, 247.5801
172.4199, 247.2528
172.9020, 245.9932
173.3841, 244.9564
173.8662, 244.8754
174.3483, 245.2332
174.8304, 245.4210
175.3126, 245.3747
175.7947, 245.2340
176.2768, 245.0665
176.7589, 244.8990
177.2410, 244.8169
177.7231, 244.8753
178.2053, 245.0465
178.6874, 245.2972
179.1695, 245.6393
179.6516, 246.0180
180.1337, 246.3833
180.6158, 246.7394
181.0980, 247.0895
181.5801, 247.4372
182.0622, 247.7815
182.5443, 248.1416
183.0264, 248.5203
183.5085, 248.9007
183.9907, 249.2374
184.4728, 249.5386
184.9549, 249.8555
185.4370, 250.2217
185.9191, 250.6290
186.4012, 251.0538
186.8834, 251.4850
187.3655, 251.9423
187.8476, 252.5238
188.3297, 253.2265
188.8118, 253.7868
189.2939, 253.9023
189.7761, 253.6617
190.2582, 253.6869
190.7403, 254.1125
191.2224, 254.7350
191.7045, 255.0720
192.1866, 255.1052
192.6688, 255.2248
193.1509, 255.7900
193.6330, 256.7662
194.1151, 257.5577
194.5972, 258.0695
195.0793, 258.3862
195.5615, 258.7397
196.0436, 259.1523
196.5257, 259.4254
197.0078, 259.3155
197.4899, 258.8058
197.9720, 258.5490
198.4542, 258.6854
198.9363, 259.0738
199.4184, 259.3639
199.9005, 259.5712
200.3826, 259.6299
200.8647, 259.3846
201.3469, 258.7787
201.8290, 258.5026
202.3111, 258.7478
202.7932, 259.3195
203.2753, 259.5842
203.7574, 259.4869
204.2396, 259.2569
204.7217, 259.0237
205.2038, 258.7777
205.6859, 258.5816
206.1680, 258.4536
206.6501, 258.3775
207.1323, 258.3108
207.6144, 258.2903
208.0965, 258.1883
208.5786, 257.8812
209.0607, 257.3061
209.5428, 256.8120
210.0250, 256.4261
210.5071, 256.1570
210.9892, 256.0970
211.4713, 256.4243
211.9534, 256.5868
212.4355, 256.0783
212.9176, 254.5594
213.3998, 253.5654
213.8819, 253.4348
214.3640, 253.9479
214.8461, 254.0549
215.3282, 253.5374
215.8103, 253.0032
216.2925, 252.9012
216.7746, 253.4543
217.2567, 253.7593
217.7388, 253.6157
218.2209, 253.1499
218.7030, 253.0541
219.1852, 253.5654
219.6673, 254.0463
220.1494, 254.0489
220.6315, 253.3594
221.1136, 252.7654
221.5957, 252.3272
222.0779, 252.0366
222.5600, 251.8206
223.0421, 251.6505
223.5242, 251.6099
224.0063, 251.7969
224.4884, 252.3896
224.9706, 252.7674
225.4527, 252.8537
225.9348, 252.6903
226.4169, 252.4391
226.8990, 252.0439
227.3811, 251.6475
227.8633, 251.3252
228.3454, 251.0608
228.8275, 250.9200
229.3096, 250.9772
229.7917, 251.1635
230.2738, 251.1885
230.7560, 250.9548
231.2381, 250.7121
231.7202, 250.5927
232.2023, 250.6186
232.6844, 250.7413
233.1665, 251.0372
233.6487, 251.4280
234.1308, 251.6489
234.6129, 251.7099
235.0950, 251.5873
235.5771, 251.2022
236.0592, 250.2416
236.5414, 249.7212
237.0235, 249.7881
237.5056, 250.2863
237.9877, 250.7878
238.4698, 251.4555
238.9520, 251.8790
239.4341, 251.7949
239.9162, 250.7601
240.3983, 250.2287
240.8804, 250.3839
241.3625, 250.9887
241.8447, 251.4569
242.3268, 251.7397
242.8089, 251.9518
243.2910, 252.1221
243.7731, 252.2000
244.2552, 252.3883
244.7374, 252.7943
245.2195, 253.2725
245.7016, 253.4618
246.1837, 253.1439
246.6658, 252.9092
247.1479, 253.0301
247.6301, 253.6873
248.1122, 254.1119
248.5943, 254.1819
249.0764, 254.0950
249.5585, 254.2257
250.0406, 254.6929
250.5228, 255.1819
251.0049, 255.6169
251.4870, 256.0223
251.9691, 256.2534
252.4512, 256.2460
252.9333, 256.1123
253.4155, 256.0223
253.8976, 255.9836
254.3797, 255.9697
254.8618, 255.9996
255.3439, 256.1003
255.8260, 255.9957
256.3082, 255.4956
256.7903, 254.9649
257.2724, 254.9851
257.7545, 255.9078
258.2366, 256.5639
258.7188, 256.5390
259.2009, 255.7738
259.6830, 255.2704
260.1651, 255.1888
260.6472, 255.1795
261.1293, 254.8156
261.6115, 253.9751
262.0936, 253.1112
262.5757, 252.2596
263.0578, 251.4174
263.5399, 251.0602
264.0220, 251.4062
264.5042, 251.8894
264.9863, 251.8981
265.4684, 251.2280
265.9505, 250.7905
266.4326, 250.8995
266.9147, 251.4566
267.3969, 251.4111
267.8790, 250.5282
268.3611, 249.5267
268.8432, 249.0773
269.3253, 249.3289
269.8074, 249.4336
270.2896, 249.1781
270.7717, 248.6683
271.2538, 248.4442
271.7359, 248.5769
272.2180, 248.8010
272.7001, 248.9239
273.1823, 248.9260
273.6644, 248.9840
274.1465, 249.2025
274.6286, 249.4428
275.1107, 249.1596
275.5928, 248.2033
276.0750, 247.3381
276.5571, 247.1154
277.0392, 247.5830
277.5213, 248.0366
278.0034, 248.4808
278.4855, 248.8146
278.9677, 248.7087
279.4498, 248.0937
279.9319, 247.4951
280.4140, 247.1812
280.8961, 247.1498
281.3782, 247.2780
281.8604, 247.6279
282.3425, 248.0013
282.8246, 247.9420
283.3067, 247.4180
283.7888, 247.1078
284.2709, 247.4603
284.7531, 248.3875
285.2352, 249.1460
285.7173, 249.7800
286.1994, 250.0807
286.6815, 249.3608
287.1636, 247.6991
287.6458, 246.7430
288.1279, 247.6014
288.6100, 249.7092
289.0921, 250.8544
289.5742, 250.9462
290.0563, 250.6982
290.5385, 250.9058
291.0206, 251.4841
291.5027, 251.9339
291.9848, 252.0579
292.4669, 251.9604
292.9490, 251.8015
293.4312, 251.5791
293.9133, 251.4931
294.3954, 251.8546
294.8775, 252.5222
295.3596, 253.0421
295.8417, 253.2808
296.3239, 253.3251
296.8060, 253.2303
297.2881, 253.0157
297.7702, 252.8818
298.2523, 253.0308
298.7344, 253.3657
299.2166, 253.7091
299.6987, 254.0932
300.1808, 254.3454
300.6629, 254.1178
301.1450, 253.5259
301.6271, 253.0387
302.1093, 252.9661
302.5914, 253.1770
303.0735, 253.5629
303.5556, 254.1872
304.0377, 254.6850
304.5198, 254.4723
305.0020, 253.8458
305.4841, 253.5251
305.9662, 254.2121
306.4483, 255.2147
306.9304, 255.8364
307.4125, 256.0047
307.8947, 255.9374
308.3768, 255.6449
308.8589, 255.2428
309.3410, 254.9089
309.8231, 254.7802
310.3052, 254.7047
310.7874, 254.5861
311.2695, 254.4215
311.7516, 254.2257
312.2337, 254.1036
312.7158, 253.9216
313.1979, 253.5387
313.6801, 252.4829
314.1622, 251.6077
314.6443, 251.5240
315.1264, 252.0906
315.6085, 252.4239
316.0906, 252.0703
316.5728, 251.3808
317.0549, 250.5888
317.5370, 249.5840
318.0191, 248.7168
318.5012, 248.1632
318.9833, 247.8475
319.4655, 247.5564
319.9476, 247.3236
320.4297, 247.0269
320.9118, 246.5768
321.3939, 245.8455
321.8760, 245.2184
322.3582, 244.6499
322.8403, 244.2452
323.3224, 244.1813
323.8045, 245.1551
324.2866, 245.8601
324.7687, 245.7473
325.2509, 244.4967
325.7330, 243.6484
326.2151, 243.6352
326.6972, 243.9394
327.1793, 244.0115
327.6614, 243.7574
328.1436, 243.3767
328.6257, 242.8725
329.1078, 242.2442
329.5899, 241.5882
330.0720, 240.7436
330.5541, 240.0160
331.0363, 239.6456
331.5184, 239.8984
332.0005, 240.0497
332.4826, 239.9865
332.9647, 239.7645
333.4468, 239.6798
333.9290, 239.8560
334.4111, 239.9727
334.8932, 239.8052
335.3753, 239.1743
335.8574, 238.8219
336.3395, 238.8386
336.8216, 239.0918
337.3037, 239.3615
337.7859, 239.7010
338.2680, 239.8770
338.7501, 239.7162
339.2322, 239.1909
339.7143, 238.9229
340.1964, 238.9899
340.6786, 239.1556
341.1607, 239.0518
341.6428, 238.6440
342.1249, 238.4387
342.6070, 238.7201
343.0891, 239.3176
343.5713, 239.3821
344.0534, 238.8489
344.5355, 238.2139
345.0176, 237.8916
345.4997, 237.8589
345.9818, 238.0078
346.4640, 238.4253
346.9461, 238.8746
347.4282, 238.7554
347.9103, 238.1190
348.3924, 237.5853
348.8745, 237.7384
349.3567, 238.2953
349.8388, 238.5894
350.3209, 238.5324
350.8030, 238.2485
351.2851, 237.6594
351.7672, 236.9180
352.2494, 236.4889
352.7315, 236.9067
353.2136, 237.6219
353.6957, 237.9576
354.1778, 237.8779
354.6599, 237.6695
355.1421, 237.4563
355.6242, 237.2788
356.1063, 237.2007
356.5884, 237.3044
357.0705, 237.4632
357.5526, 237.6516
358.0348, 237.8488
358.5169, 237.9193
358.9990, 237.6753
359.4811, 237.3340
359.9632, 237.0833
360.4453, 236.9905
360.9275, 236.9439
361.4096, 236.8200
361.8917, 236.7039
362.3738, 236.7938
362.8559, 237.5016
363.3380, 238.1463
363.8202, 238.3298
364.3023, 237.8049
364.7844, 237.5156
365.2665, 237.8489
365.7486, 238.4307
366.2307, 238.8130
366.7129, 238.7038
367.1950, 238.6440
367.6771, 238.8261
368.1592, 239.2706
368.6413, 239.4808
369.1234, 239.1921
369.6056, 238.8808
370.0877, 238.8638
370.5698, 239.2212
371.0519, 239.7609
371.5340, 240.6267
372.0161, 241.6621
372.4983, 242.2657
372.9804, 242.1547
373.4625, 242.1173
373.9446, 242.5910
374.4267, 243.7751
374.9088, 244.6008
375.3910, 244.9655
375.8731, 245.0887
376.3552, 245.2879
376.8373, 245.5776
377.3194, 245.8530
377.8015, 246.0236
378.2837, 246.1341
378.7658, 246.5805
379.2479, 247.4402
379.7300, 248.2716
380.2121, 248.5942
380.6942, 248.4660
381.1764, 248.3622
381.6585, 248.3510
382.1406, 248.4511
382.6227, 248.8187
383.1048, 249.4162
383.5869, 249.8426
384.0691, 249.5942
384.5512, 249.0267
385.0333, 248.8960
385.5154, 249.3100
385.9975, 249.9723
386.4796, 250.7903
386.9618, 251.6349
387.4439, 252.1938
387.9260, 252.1876
388.4081, 251.9222
388.8902, 251.5785
389.3723, 251.1770
389.8545, 250.9129
390.3366, 251.2717
390.8187, 251.6773
391.3008, 251.4691
391.7829, 249.8132
392.2650, 248.4249
392.7472, 248.3787
393.2293, 249.2390
393.7114, 249.7743
394.1935, 249.1226
394.6756, 248.3779
395.1577, 248.1152
395.6399, 248.5449
396.1220, 248.9919
396.6041, 249.4507
397.0862, 249.8184
397.5683, 249.9684
398.0504, 249.6713
398.5326, 249.3763
399.0147, 249.1672
399.4968, 249.0413
399.9789, 248.8972
400.4610, 248.7005
400.9431, 248.5143
401.4253, 248.4114
401.9074, 248.5748
402.3895, 248.3805
402.8716, 247.5763
403.3537, 246.4917
403.8358, 245.9806
404.3180, 246.2220
404.8001, 246.5264
405.2822, 246.6209
405.7643, 246.5020
406.2464, 246.3922
406.7285, 246.3189
407.2107, 246.1944
407.6928, 245.8030
408.1749, 245.1569
408.6570, 244.8440
409.1391, 245.1644
409.6212, 245.7987
410.1034, 245.9199
410.5855, 245.5465
411.0676, 245.1805
411.5497, 245.1881
412.0318, 245.4682
412.5139, 245.8316
412.9961, 246.2982
413.4782, 246.6665
413.9603, 246.5746
414.4424, 246.1985
414.9245, 245.9677
415.4066, 246.1994
415.8888, 246.5799
416.3709, 246.8134
416.8530, 246.8978
417.3351, 247.0091
417.8172, 247.2891
418.2993, 247.6217
418.7815, 247.9005
419.2636, 248.0673
419.7457, 248.2104
420.2278, 248.3174
420.7099, 248.4234
421.1920, 248.6125
421.6742, 249.2957
422.1563, 249.7446
422.6384, 249.4846
423.1205, 248.1151
423.6026, 247.4097
424.0847, 248.1071
424.5669, 249.2498
425.0490, 249.8961
425.5311, 249.6728
426.0132, 249.5107
426.4953, 249.5671
426.9774, 249.8023
427.4596, 249.9610
427.9417, 250.0246
428.4238, 250.0369
428.9059, 249.9684
429.3880, 249.7501
429.8701, 249.8631
430.3523, 250.4763
430.8344, 251.1656
431.3165, 251.0602
431.7986, 250.0794
432.2807, 249.5768
432.7628, 250.2986
433.2450, 251.8035
433.7271, 252.4883
434.2092, 252.3360
434.6913, 251.9622
435.1734, 251.8502
435.6555, 251.9229
436.1377, 251.9531
436.6198, 251.8799
437.1019, 251.8076
437.5840, 251.8323
438.0661, 251.9510
438.5482, 252.1551
439.0304, 252.5049
439.5125, 252.8943
439.9946, 253.2339
440.4767, 253.5182
440.9588, 253.7428
441.4409, 253.7722
441.9231, 253.7988
442.4052, 254.0121
442.8873, 254.6127
443.3694, 255.2221
443.8515, 255.7941
444.3336, 256.2943
444.8158, 256.6068
445.2979, 256.2646
445.7800, 256.1326
446.2621, 256.6806
446.7442, 258.3288
447.2263, 259.3077
447.7085, 259.1761
448.1906, 258.7004
448.6727, 258.6460
449.1548, 259.2747
449.6369, 259.7721
450.1190, 259.9051
450.6012, 259.8236
451.0833, 260.1977
451.5654, 261.1179
452.0475, 262.2257
452.5296, 263.4578
453.0117, 264.8203
453.4939, 265.7207
453.9760, 266.0334
454.4581, 266.2526
454.9402, 267.1525
455.4223, 268.6108
455.9044, 269.8451
456.3866, 270.4162
456.8687, 270.7434
457.3508, 271.5328
457.8329, 272.7522
458.3150, 274.1041
458.7971, 275.6596
459.2793, 277.1400
459.7614, 278.1559
460.2435, 278.6011
460.7256, 278.8267
461.2077, 278.9038
461.6898, 278.9509
462.1720, 279.1423
462.6541, 279.7766
463.1362, 280.3475
463.6183, 280.6118
464.1004, 280.5869
464.5826, 280.5300
465.0647, 280.3945
465.5468, 280.3213
466.0289, 280.4242
466.5110, 281.0266
466.9931, 281.2151
467.4753, 280.8810
467.9574, 280.1646
468.4395, 279.2280
468.9216, 277.8947
469.4037, 276.6432
469.8858, 275.5914
470.3680, 274.7209
470.8501, 273.8655
471.3322, 273.0261
471.8143, 272.1942
472.2964, 271.4134
472.7785, 270.6899
473.2607, 269.6002
473.7428, 267.9929
474.2249, 266.3447
474.7070, 265.5726
475.1891, 265.5152
475.6712, 265.1054
476.1534, 263.6575
476.6355, 261.7712
477.1176, 260.4802
477.5997, 259.7312
478.0818, 259.0226
478.5639, 257.7728
479.0461, 256.4582
479.5282, 255.7259
480.0103, 255.8359
480.4924, 256.0214
480.9745, 255.7287
481.4566, 255.2490
481.9388, 255.0130
482.4209, 255.4054
482.9030, 255.8235
483.3851, 256.0436
483.8672, 256.0688
484.3493, 256.0727
484.8315, 256.2420
485.3136, 256.2589
485.7957, 255.9385
486.2778, 255.0194
486.7599, 254.3077
487.2420, 253.7974
487.7242, 253.5063
488.2063, 253.4713
488.6884, 253.7312
489.1705, 254.1604
489.6526, 254.8513
490.1347, 255.6736
490.6169, 255.9455
491.0990, 255.5878
491.5811, 255.2312
492.0632, 255.4871
492.5453, 256.1588
493.0274, 256.2410
493.5096, 255.5678
493.9917, 254.7760
494.4738, 254.6307
494.9559, 254.9396
495.4380, 255.2040
495.9201, 255.1881
496.4023, 255.1079
496.8844, 255.2540
497.3665, 255.5408
497.8486, 255.6341
498.3307, 255.0359
498.8128, 254.4018
499.2950, 254.2602
499.7771, 254.7906
500.2592, 255.2400
500.7413, 255.4173
501.2234, 255.3932
501.7055, 255.2350
502.1877, 254.8027
502.6698, 254.4114
503.1519, 254.2013
503.6340, 254.0666
504.1161, 253.5942
504.5982, 252.5374
505.0804, 251.5613
505.5625, 250.9499
506.0446, 250.7271
506.5267, 250.5578
507.0088, 250.4784
507.4909, 250.3524
507.9731, 249.9851
508.4552, 249.3964
508.9373, 248.9101
509.4194, 248.6266
509.9015, 248.3943
510.3836, 247.9897
510.8658, 247.4193
511.3479, 246.7346
511.8300, 245.7252
512.3121, 244.7350
512.7943, 244.2867
513.2764, 244.3634
513.7585, 244.4046
514.2406, 244.0424
514.7227, 243.4849
515.2048, 242.9256
515.6870, 242.3982
516.1691, 241.8843
516.6512, 241.3410
517.1333, 240.8173
517.6154, 240.3929
518.0975, 240.1747
518.5797, 239.9555
519.0618, 239.6291
519.5439, 239.2175
520.0260, 239.0429
520.5081, 239.2595
520.9902, 239.4810
521.4724, 239.4964
521.9545, 239.2857
522.4366, 238.9399
522.9187, 238.4058
523.4008, 237.8468
523.8829, 237.4587
524.3651, 237.2377
524.8472, 237.1647
525.3293, 237.3125
525.8114, 237.5206
526.2935, 237.4849
526.7756, 237.2344
527.2578, 236.9292
527.7399, 236.5415
528.2220, 236.2153
528.7041, 236.1535
529.1862, 236.3781
529.6683, 236.6226
530.1505, 236.7036
530.6326, 236.7348
531.1147, 236.8262
531.5968, 236.9874
532.0789, 237.2278
532.5610, 237.5965
533.0432, 238.0396
533.5253, 238.4387
534.0074, 238.9468
534.4895, 239.2209
534.9716, 239.0706
535.4537, 238.5189
535.9359, 238.2766
536.4180, 238.3786
536.9001, 238.7365
537.3822, 239.4365
537.8643, 240.5316
538.3464, 241.1644
538.8286, 241.2061
539.3107, 241.0121
539.7928, 241.0402
540.2749, 241.2535
540.7570, 241.4230
541.2391, 241.3765
541.7213, 241.3647
542.2034, 241.8823
542.6855, 242.7900
543.1676, 243.5508
543.6497, 243.5694
544.1318, 243.5106
544.6140, 244.0342
545.0961, 245.2286
545.5782, 246.2715
546.0603, 246.7368
546.5424, 246.9670
547.0245, 247.2417
547.5067, 247.7061
547.9888, 248.0786
548.4709, 248.2572
548.9530, 248.3544
549.4351, 248.5510
549.9172, 248.8188
550.3994, 249.2593
550.8815, 249.9941
551.3636, 250.9411
551.8457, 251.4550
552.3278, 251.4438
552.8099, 251.4716
553.2921, 251.9704
553.7742, 252.8600
554.2563, 253.6755
554.7384, 254.4010
555.2205, 255.0409
555.7026, 255.5892
556.1848, 256.0670
556.6669, 256.5001
557.1490, 256.8287
557.6311, 257.2248
558.1132, 258.0138
558.5953, 258.9724
559.0775, 259.6058
559.5596, 259.3331
560.0417, 259.0243
560.5238, 259.1558
561.0059, 259.7464
561.4880, 260.0627
561.9702, 259.6643
562.4523, 259.2333
562.9344, 259.1349
563.4165, 259.6193
563.8986, 259.7729
564.3807, 259.5008
564.8629, 259.0259
565.3450, 258.5945
565.8271, 258.1964
566.3092, 257.9682
566.7913, 257.9961
567.2734, 258.1505
567.7556, 258.1592
568.2377, 258.0352
568.7198, 257.8646
569.2019, 257.6496
569.6840, 257.4356
570.1661, 257.2395
570.6483, 257.0711
571.1304, 257.0667
571.6125, 257.4888
572.0946, 258.0129
572.5767, 258.3188
573.0588, 258.2395
573.5410, 258.2426
574.0231, 258.5555
574.5052, 258.9925
574.9873, 259.3180
575.4694, 259.4444
575.9515, 259.5497
576.4337, 259.6428
576.9158, 259.7301
577.3979, 259.7904
577.8800, 259.7396
578.3621, 259.9264
578.8442, 260.6550
579.3264, 261.8117
579.8085, 262.3553
580.2906, 262.2453
580.7727, 262.0344
581.2548, 262.2321
581.7369, 262.6857
582.2190, 262.9642
582.7011, 262.9711
583.1832, 263.0459
583.6653, 263.4178
584.1475, 264.0732
584.6296, 264.9968
585.1117, 266.5103
585.5938, 267.9376
586.0759, 268.9618
586.5580, 269.6791
587.0402, 270.3122
587.5223, 270.6363
588.0044, 271.1524
588.4865, 272.0225
588.9686, 273.2499
589.4507, 274.5855
589.9329, 276.0872
590.4150, 277.5656
590.8971, 278.8894
591.3792, 280.0558
591.8613, 281.1275
592.3434, 282.0565
592.8256, 283.1065
593.3077, 284.8329
593.7898, 287.0150
594.2719, 288.7052
594.7540, 289.5078
595.2361, 290.0698
595.7183, 291.0046
596.2004, 292.2508
596.6825, 293.6563
597.1646, 295.5810
597.6467, 297.2699
598.1288, 298.1865
598.6110, 298.4035
599.0931, 298.6334
599.5752, 299.4153
600.0573, 299.9094
600.5394, 299.5883
601.0215, 298.0652
601.5037, 297.3150
601.9858, 297.7635
602.4679, 298.3846
602.9500, 298.1219
603.4321, 296.8649
603.9142, 295.9256
604.3964, 295.5917
604.8785, 295.3085
605.3606, 293.9409
605.8427, 291.7501
606.3248, 289.9722
606.8069, 289.3195
607.2891, 289.0317
607.7712, 288.1996
608.2533, 286.9594
608.7354, 285.7721
609.2175, 284.8814
609.6996, 284.1214
610.1818, 283.4795
610.6639, 282.9611
611.1460, 282.2027
611.6281, 280.9765
612.1102, 279.5985
612.5923, 278.2480
613.0745, 276.8192
613.5566, 275.6399
614.0387, 274.7247
614.5208, 274.0306
615.0029, 273.6415
615.4850, 273.5960
615.9672, 273.1960
616.4493, 272.2213
616.9314, 270.9707
617.4135, 269.9781
617.8956, 269.1913
618.3777, 268.3933
618.8599, 267.3819
619.3420, 266.3849
619.8241, 265.6898
620.3062, 265.2422
620.7883, 264.7502
621.2704, 263.8387
621.7526, 263.0367
622.2347, 262.7744
622.7168, 263.2516
623.1989, 263.3180
623.6810, 262.5384
624.1631, 261.5842
624.6453, 260.8696
625.1274, 260.4281
625.6095, 260.1792
626.0916, 260.2089
626.5737, 260.2804
627.0558, 260.0540
627.5380, 259.5391
628.0201, 258.9070
628.5022, 258.1029
628.9843, 257.3611
629.4664, 257.1291
629.9485, 257.2925
630.4307, 257.4932
630.9128, 257.8026
631.3949, 257.8826
631.8770, 257.3299
632.3591, 256.2357
632.8412, 255.2363
633.3234, 254.3330
633.8055, 253.7505
634.2876, 253.7118
634.7697, 254.3628
635.2518, 254.7989
635.7339, 254.9523
636.2161, 254.9712
636.6982, 254.9715
637.1803, 254.9674
637.6624, 254.8315
638.1445, 254.5447
638.6266, 254.1579
639.1088, 253.6832
639.5909, 253.1557
640.0730, 252.7040
640.5551, 252.3609
641.0372, 252.1249
641.5193, 252.0549
642.0015, 252.0904
642.4836, 252.0902
642.9657, 251.9308
643.4478, 251.7829
643.9299, 251.8059
644.4120, 251.9513
644.8942, 251.8876
645.3763, 251.3333
645.8584, 250.7966
646.3405, 250.4416
646.8226, 250.2785
647.3047, 250.1441
647.7869, 250.0365
648.2690, 249.9572
648.7511, 249.9556
649.2332, 250.0068
649.7153, 249.8778
650.1974, 249.5329
650.6796, 249.1329
651.1617, 248.8923
651.6438, 248.7129
652.1259, 248.3873
652.6080, 247.7539
653.0901, 247.2025
653.5723, 247.1183
654.0544, 247.2422
654.5365, 247.1785
655.0186, 246.7783
655.5007, 246.2365
655.9828, 245.4590
656.4650, 244.5768
656.9471, 243.9929
657.4292, 243.8305
657.9113, 243.6972
658.3934, 243.4736
658.8755, 243.1689
659.3577, 242.7746
659.8398, 242.2711
660.3219, 241.9368
660.8040, 242.0587
661.2861, 242.4420
661.7682, 242.7521
662.2504, 242.9676
662.7325, 243.0369
663.2146, 242.8977
663.6967, 242.6059
664.1788, 242.1888
664.6609, 241.5829
665.1431, 241.0508
665.6252, 240.4797
666.1073, 240.1185
666.5894, 240.2603
667.0715, 241.4108
667.5536, 241.9883
668.0358, 241.7429
668.5179, 241.0201
669.0000, 240.2848
669.4821, 239.5295
669.9642, 239.1712
670.4464, 239.4898
670.9285, 240.0647
671.4106, 240.0830
671.8927, 239.7010
672.3748, 239.4836
672.8569, 239.9288
673.3391, 240.4843
673.8212, 240.6932
674.3033, 240.6106
674.7854, 240.6619
675.2675, 241.4610
675.7496, 241.9835
676.2318, 241.5617
676.7139, 240.0383
677.1960, 239.3840
677.6781, 239.9573
678.1602, 240.7426
678.6423, 240.9571
679.1245, 240.5960
679.6066, 240.7058
680.0887, 241.3973
680.5708, 242.0603
681.0529, 241.9123
681.5350, 241.2960
682.0172, 240.9290
682.4993, 240.9967
682.9814, 241.2124
683.4635, 241.4775
683.9456, 241.7317
684.4277, 241.8923
684.9099, 241.4789
685.3920, 241.5278
685.8741, 242.8007
686.3562, 244.5061
686.8383, 245.1173
687.3204, 244.1353
687.8026, 243.3503
688.2847, 243.2250
688.7668, 243.5577
689.2489, 243.8046
689.7310, 243.9632
690.2131, 244.0562
690.6953, 244.1265
691.1774, 244.1196
691.6595, 243.8467
692.1416, 243.3735
692.6237, 243.0671
693.1058, 243.3826
693.5880, 243.7327
694.0701, 243.6399
694.5522, 243.0188
695.0343, 242.7052
695.5164, 243.1013
695.9985, 243.5577
696.4807, 243.7175
696.9628, 243.4693
697.4449, 243.5580
697.9270, 244.1194
698.4091, 244.6394
698.8912, 244.4884
699.3734, 243.8176
699.8555, 243.3795
700.3376, 243.2895
700.8197, 243.3272
701.3018, 243.2537
701.7839, 243.1705
702.2661, 243.2447
702.7482, 243.6505
703.2303, 243.9900
703.7124, 244.1729
704.1945, 244.1755
704.6766, 243.9311
705.1588, 242.9505
705.6409, 242.5533
706.1230, 243.2013
706.6051, 244.3546
707.0872, 244.6815
707.5693, 244.1315
708.0515, 243.4709
708.5336, 242.8771
709.0157, 242.4124
709.4978, 242.2956
709.9799, 242.4526
710.4620, 242.5748
710.9442, 242.4672
711.4263, 242.2838
711.9084, 242.1225
712.3905, 241.9826
712.8726, 241.8414
713.3547, 241.7080
713.8369, 241.5509
714.3190, 241.3159
714.8011, 240.9938
715.2832, 240.9078
715.7653, 241.1545
716.2474, 241.3918
716.7296, 241.3670
717.2117, 241.1196
717.6938, 241.0444
718.1759, 241.1675
718.6580, 241.0742
719.1401, 239.9228
719.6223, 238.5465
720.1044, 238.2876
720.5865, 239.5594
721.0686, 240.5304
721.5507, 240.0374
722.0328, 239.0313
722.5150, 238.3492
722.9971, 238.2989
723.4792, 238.1569
723.9613, 237.8295
724.4434, 237.5052
724.9255, 237.4554
725.4077, 237.7075
725.8898, 237.8241
726.3719, 237.7397
726.8540, 237.4984
727.3361, 236.9644
727.8182, 236.3192
728.3004, 236.0588
728.7825, 236.5939
729.2646, 237.1653
729.7467, 237.3635
730.2288, 237.2274
730.7109, 236.8256
731.1931, 235.7040
731.6752, 234.8961
732.1573, 234.7253
732.6394, 234.9502
733.1215, 234.9127
733.6036, 234.5593
734.0858, 234.1503
734.5679, 233.7030
735.0500, 233.3046
735.5321, 233.2704
736.0142, 233.5393
736.4963, 233.7389
736.9785, 233.6284
737.4606, 233.3828
737.9427, 233.1947
738.4248, 233.0288
738.9069, 232.7023
739.3890, 231.5899
739.8712, 230.8310
740.3533, 231.3113
740.8354, 232.9373
741.3175, 233.3127
741.7996, 231.8550
742.2817, 230.5300
742.7639, 230.5504
743.2460, 231.7098
743.7281, 232.2256
744.2102, 232.1022
744.6923, 231.8263
745.1744, 231.6755
745.6566, 231.6422
746.1387, 231.7724
746.6208, 232.0722
747.1029, 232.2880
747.5850, 232.3152
748.0671, 232.2009
748.5493, 231.9454
749.0314, 231.5011
749.5135, 231.1140
749.9956, 230.8318
750.4777, 230.5276
750.9598, 230.0076
751.4420, 229.2830
751.9241, 228.9376
752.4062, 229.0383
752.8883, 229.3049
753.3704, 229.3973
753.8525, 229.4784
754.3347, 229.9260
754.8168, 230.9727
755.2989, 231.7174
755.7810, 231.4539
756.2631, 230.7631
756.7452, 230.2285
757.2274, 229.8995
757.7095, 229.7902
758.1916, 230.0619
758.6737, 230.3732
759.1558, 230.2224
759.6379, 229.5765
760.1201, 229.1795
760.6022, 229.1823
761.0843, 229.3350
761.5664, 229.2727
762.0485, 229.1168
762.5306, 229.1283
763.0128, 229.4368
763.4949, 229.8354
763.9770, 230.3917
764.4591, 230.9118
764.9412, 231.1103
765.4233, 230.5121
765.9055, 230.2087
766.3876, 230.4029
766.8697, 230.8560
767.3518, 231.1796
767.8339, 231.3789
768.3160, 231.3006
768.7982, 230.7950
769.2803, 230.2009
769.7624, 230.1042
770.2445, 230.3443
770.7266, 230.5111
771.2087, 230.2534
771.6909, 230.0594
772.1730, 230.2277
772.6551, 230.6427
773.1372, 231.0445
773.6193, 231.5329
774.1014, 231.8046
774.5836, 231.7327
775.0657, 231.4456
775.5478, 231.2849
776.0299, 231.2540
776.5120, 231.3640
776.9941, 231.7243
777.4763, 232.1170
777.9584, 232.1307
778.4405, 231.8571
778.9226, 231.5876
779.4047, 231.2602
779.8868, 231.1706
780.3690, 231.7205
780.8511, 232.7001
781.3332, 233.1562
781.8153, 232.6977
782.2974, 232.2519
782.7795, 232.0135
783.2617, 231.9779
783.7438, 232.2232
784.2259, 232.7559
784.7080, 233.1139
785.1901, 232.8644
785.6722, 232.4664
786.1544, 232.7770
786.6365, 233.6082
787.1186, 234.2710
787.6007, 234.2299
788.0828, 234.1042
788.5649, 234.1905
789.0471, 234.4749
789.5292, 234.7522
790.0113, 235.1673
790.4934, 235.2831
790.9755, 234.7597
791.4576, 233.8605
791.9398, 233.9033
792.4219, 234.8460
792.9040, 235.6097
793.3861, 235.2681
793.8682, 234.5878
794.3503, 234.6636
794.8325, 235.3210
795.3146, 235.7400
795.7967, 235.1060
796.2788, 234.5937
796.7609, 234.9606
797.2430, 236.0548
797.7252, 236.5052
798.2073, 236.1363
798.6894, 235.5017
799.1715, 234.5466
799.6536, 233.5759
800.1357, 234.2102
800.6179, 236.2741
801.1000, 238.0166
801.5821, 238.1240
802.0642, 237.6041
802.5463, 237.3373
803.0284, 237.3208
803.5106, 237.3706
803.9927, 237.4799
804.4748, 237.5897
804.9569, 237.6949
805.4390, 237.7851
805.9211, 237.7461
806.4033, 237.5187
806.8854, 237.4063
807.3675, 237.6280
807.8496, 238.0342
808.3317, 238.2639
808.8138, 238.3233
809.2960, 238.2453
809.7781, 237.6645
810.2602, 237.2874
810.7423, 237.9185
811.2244, 239.3746
811.7065, 240.1246
812.1887, 239.3039
812.6708, 238.5668
813.1529, 238.4498
813.6350, 238.8398
814.1171, 238.9653
814.5992, 238.8003
815.0814, 238.8887
815.5635, 239.7994
816.0456, 240.9699
816.5277, 241.3742
817.0098, 241.1696
817.4919, 240.9807
817.9741, 241.0824
818.4562, 241.3026
818.9383, 241.6588
819.4204, 242.0971
819.9025, 242.2787
820.3846, 242.0838
820.8668, 241.8980
821.3489, 241.8783
821.8310, 241.9455
822.3131, 241.7317
822.7952, 241.2949
823.2773, 241.0835
823.7595, 241.5512
824.2416, 242.1860
824.7237, 242.5410
825.2058, 242.6638
825.6879, 242.7104
826.1700, 242.9305
826.6522, 242.8240
827.1343, 241.9492
827.6164, 240.7012
828.0985, 240.5522
828.5806, 241.6975
829.0627, 242.8098
829.5449, 243.5115
830.0270, 243.8372
830.5091, 243.6757
830.9912, 243.1706
831.4733, 242.7757
831.9554, 242.6668
832.4376, 242.7529
832.9197, 243.0791
833.4018, 243.5621
833.8839, 243.9926
834.3660, 244.4505
834.8481, 244.6855
835.3303, 244.6009
835.8124, 244.3220
836.2945, 244.0724
836.7766, 243.8622
837.2587, 243.8172
837.7408, 244.0282
838.2230, 244.3262
838.7051, 244.5087
839.1872, 244.6462
839.6693, 244.8655
840.1514, 245.3270
840.6335, 245.7267
841.1157, 246.0086
841.5978, 246.1808
842.0799, 246.2103
842.5620, 246.0435
843.0441, 245.9823
843.5262, 246.0627
844.0084, 246.2929
844.4905, 246.8395
844.9726, 247.5325
845.4547, 247.9601
845.9368, 247.9508
846.4189, 247.8114
846.9011, 247.6951
847.3832, 247.5576
847.8653, 247.3283
848.3474, 246.6977
848.8295, 246.5962
849.3116, 247.2684
849.7938, 248.1189
850.2759, 248.5087
850.7580, 248.4756
851.2401, 248.2258
851.7222, 247.7497
852.2043, 247.3291
852.6865, 247.1724
853.1686, 247.2381
853.6507, 247.5361
854.1328, 248.1838
854.6149, 248.6553
855.0970, 248.7465
855.5792, 248.7186
856.0613, 248.7136
856.5434, 248.7206
857.0255, 248.8177
857.5076, 249.0150
857.9897, 249.1982
858.4719, 249.2016
858.9540, 249.1456
859.4361, 249.2972
859.9182, 249.6745
860.4003, 249.9160
860.8824, 249.7236
861.3646, 249.4473
861.8467, 249.2795
862.3288, 249.2257
862.8109, 249.2958
863.2930, 249.5359
863.7751, 249.7822
864.2573, 249.9976
864.7394, 250.1465
865.2215, 250.1111
865.7036, 249.8909
866.1857, 249.4536
866.6678, 248.3592
867.1500, 247.4035
867.6321, 247.2614
868.1142, 247.8391
868.5963, 248.3414
869.0784, 248.6176
869.5605, 248.9436
870.0427, 249.4931
870.5248, 250.1017
871.0069, 250.1550
871.4890, 249.6920
871.9711, 249.1351
872.4532, 248.4108
872.9354, 247.9758
873.4175, 248.7345
873.8996, 250.1044
874.3817, 250.8262
874.8638, 249.9263
875.3459, 249.0398
875.8281, 248.3826
876.3102, 247.9615
876.7923, 247.8866
877.2744, 248.1996
877.7565, 248.2387
878.2386, 247.7805
878.7208, 247.2551
879.2029, 247.3060
879.6850, 247.6610
880.1671, 247.8158
880.6492, 247.4704
881.1313, 247.2678
881.6135, 247.7798
882.0956, 248.3205
882.5777, 248.1629
883.0598, 247.0757
883.5419, 246.1602
884.0240, 245.4320
884.5062, 244.9636
884.9883, 244.9693
885.4704, 245.2664
885.9525, 245.4895
886.4346, 245.6011
886.9167, 245.5060
887.3989, 244.9291
887.8810, 244.2942
888.3631, 243.8898
888.8452, 243.7385
889.3273, 243.7504
889.8094, 243.9844
890.2916, 244.2151
890.7737, 244.2861
891.2558, 244.2407
891.7379, 244.3176
892.2200, 244.4773
892.7021, 244.4298
893.1843, 243.7423
893.6664, 243.0118
894.1485, 242.7540
894.6306, 242.8697
895.1127, 242.6105
895.5948, 241.5775
896.0770, 240.8914
896.5591, 241.0064
897.0412, 241.5382
897.5233, 241.3416
898.0054, 240.5507
898.4875, 240.0191
898.9697, 240.2301
899.4518, 240.5855
899.9339, 240.6523
900.4160, 240.5019
900.8981, 240.2534
901.3802, 239.8230
901.8624, 239.4297
902.3445, 239.0682
902.8266, 238.7593
903.3087, 238.5525
903.7908, 238.4382
904.2729, 238.3318
904.7551, 238.2205
905.2372, 238.1186
905.7193, 238.0358
906.2014, 237.9746
906.6835, 237.9409
907.1656, 237.9421
907.6478, 237.9643
908.1299, 238.1563
908.6120, 238.1938
909.0941, 237.7683
909.5762, 236.8773
910.0583, 236.5022
910.5405, 236.6510
911.0226, 236.8570
911.5047, 236.7939
911.9868, 236.5971
912.4689, 236.3111
912.9510, 235.9835
913.4332, 235.9066
913.9153, 236.3610
914.3974, 236.8703
914.8795, 237.3381
915.3616, 237.7465
915.8438, 238.0041
916.3259, 238.1119
916.8080, 238.1885
917.2901, 238.3024
917.7722, 238.3762
918.2543, 238.1665
918.7365, 237.8691
919.2186, 237.8623
919.7007, 238.6649
920.1828, 239.2402
920.6649, 239.2829
921.1470, 239.1271
921.6292, 239.1803
922.1113, 239.4541
922.5934, 239.6898
923.0755, 239.8432
923.5576, 240.0346
924.0397, 240.5547
924.5219, 241.1127
925.0040, 241.2379
925.4861, 240.7735
925.9682, 240.4839
926.4503, 240.7646
926.9324, 241.1212
927.4146, 241.2788
927.8967, 241.2395
928.3788, 241.5200
928.8609, 242.1444
929.3430, 242.6240
929.8251, 242.3914
930.3073, 242.0071
930.7894, 242.2601
931.2715, 243.0237
931.7536, 243.7133
932.2357, 244.1919
932.7178, 244.4938
933.2000, 244.5369
933.6821, 244.4683
934.1642, 244.6748
934.6463, 245.1609
935.1284, 245.6847
935.6105, 246.2119
936.0927, 246.6517
936.5748, 246.9521
937.0569, 247.0647
937.5390, 246.8560
938.0211, 245.8020
938.5032, 245.4297
938.9854, 246.4935
939.4675, 247.7948
939.9496, 248.3354
940.4317, 248.0835
940.9138, 247.9206
941.3959, 247.8651
941.8781, 248.0567
942.3602, 248.7912
942.8423, 249.7163
943.3244, 250.4583
943.8065, 251.0029
944.2886, 251.5623
944.7708, 252.4196
945.2529, 252.9837
945.7350, 252.8835
946.2171, 252.3892
946.6992, 252.7275
947.1813, 253.8424
947.6635, 254.9265
948.1456, 255.7311
948.6277, 256.2340
949.1098, 255.9814
949.5919, 255.5098
950.0740, 255.7727
950.5562, 257.7181
951.0383, 259.4381
951.5204, 260.9051
952.0025, 262.0174
952.4846, 262.2737
952.9667, 261.8987
953.4489, 262.8155
953.9310, 265.3441
954.4131, 267.9342
954.8952, 269.1963
955.3773, 270.0838
955.8594, 271.3918
956.3416, 273.2531
956.8237, 275.2164
957.3058, 277.1506
957.7879, 279.4233
958.2700, 282.3470
958.7521, 285.6659
959.2343, 288.3610
959.7164, 290.6006
960.1985, 293.2708
960.6806, 297.0903
961.1627, 301.1981
961.6448, 305.0877
962.1270, 308.8824
962.6091, 312.7372
963.0912, 316.5244
963.5733, 320.8656
964.0554, 326.0526
964.5375, 331.3683
965.0197, 335.4720
965.5018, 338.9140
965.9839, 343.2426
966.4660, 348.7877
966.9481, 354.4130
967.4302, 359.9615
967.9124, 364.9182
968.3945, 368.7932
968.8766, 371.6015
969.3587, 374.1034
969.8408, 376.3918
970.3229, 378.0402
970.8051, 378.8509
971.2872, 378.8504
971.7693, 377.6862
972.2514, 375.7029
972.7335, 374.0753
973.2156, 374.0613
973.6978, 373.5434
974.1799, 371.7955
974.6620, 369.2644
975.1441, 366.6367
975.6262, 363.9207
976.1083, 361.2001
976.5905, 358.4985
977.0726, 355.8078
977.5547, 352.9605
978.0368, 350.1545
978.5189, 347.7286
979.0010, 345.8275
979.4832, 343.8264
979.9653, 341.1883
980.4474, 339.0233
980.9295, 338.3233
981.4116, 338.7442
981.8937, 337.3087
982.3759, 334.1994
982.8580, 331.5128
983.3401, 330.8502
983.8222, 330.7378
984.3043, 330.1927
984.7864, 329.3161
985.2686, 328.3956
985.7507, 327.3244
986.2328, 326.5244
986.7149, 326.1312
987.1970, 325.8724
987.6791, 325.3472
988.1613, 324.6368
988.6434, 323.9619
989.1255, 323.3682
989.6076, 322.7692
990.0897, 321.8066
990.5718, 321.0737
991.0540, 321.1773
991.5361, 322.1718
992.0182, 322.5936
992.5003, 322.4174
992.9824, 321.8594
993.4645, 320.8156
993.9467, 319.6220
994.4288, 318.7224
994.9109, 318.1543
995.3930, 318.0478
995.8751, 319.0306
996.3572, 319.7270
996.8394, 319.7254
997.3215, 319.4034
997.8036, 319.2787
998.2857, 319.3477
998.7678, 319.3125
999.2499, 319.1099
999.7321, 319.0435
1000.214, 319.6280
1000.696, 320.3287
1001.178, 320.5363
1001.661, 320.1216
1002.143, 320.0302
1002.625, 320.5132
1003.107, 320.9531
1003.589, 321.1081
1004.071, 321.0309
1004.553, 320.7983
1005.035, 320.4556
1005.517, 320.1969
1006.000, 320.2839
1006.482, 320.2437
1006.964, 319.6199
1007.446, 318.8266
1007.928, 318.5117
1008.410, 318.9454
1008.892, 318.7794
1009.374, 317.8774
1009.857, 316.7104
1010.339, 315.5238
1010.821, 314.5014
1011.303, 313.9667
1011.785, 313.9208
1012.267, 314.0747
1012.749, 314.8750
1013.231, 315.2017
1013.713, 314.6625
1014.196, 313.4019
1014.678, 311.6504
1015.160, 309.4969
1015.642, 308.0196
1016.124, 307.7442
1016.606, 307.8506
1017.088, 308.1143
1017.570, 308.1137
1018.052, 307.2241
1018.535, 304.7522
1019.017, 303.0314
1019.499, 302.2509
1019.981, 301.7267
1020.463, 300.9339
1020.945, 299.9922
1021.427, 299.3148
1021.909, 298.8374
1022.392, 298.1583
1022.874, 296.9320
1023.356, 295.6172
1023.838, 294.2053
1024.320, 292.8949
1024.802, 292.1939
1025.284, 292.1415
1025.766, 292.0202
1026.249, 291.6746
1026.731, 291.3004
1027.213, 291.0949
1027.695, 290.9843
1028.177, 290.9256
1028.659, 290.9607
1029.141, 290.7611
1029.623, 290.2303
1030.105, 289.6251
1030.588, 289.0030
1031.070, 288.4441
1031.552, 288.2586
1032.034, 288.4018
1032.516, 288.6676
1032.998, 289.2213
1033.480, 289.5714
1033.962, 289.0941
1034.444, 288.4852
1034.927, 288.9019
1035.409, 290.7120
1035.891, 291.3476
1036.373, 290.4838
1036.855, 289.4510
1037.337, 289.5010
1037.819, 290.0715
1038.301, 290.5252
1038.784, 290.8145
1039.266, 291.0529
1039.748, 291.3043
1040.230, 291.4393
1040.712, 291.3872
1041.194, 291.2307
1041.676, 291.1475
1042.158, 291.1336
1042.641, 291.1682
1043.123, 291.2464
1043.605, 291.3791
1044.087, 291.7589
1044.569, 292.0597
1045.051, 291.8748
1045.533, 291.0420
1046.015, 291.1042
1046.497, 292.1687
1046.979, 293.1777
1047.462, 293.2704
1047.944, 293.0029
1048.426, 293.1869
1048.908, 293.6082
1049.390, 293.6375
1049.872, 292.6112
1050.354, 291.8294
1050.836, 291.3785
1051.319, 291.2960
1051.801, 291.9422
1052.283, 293.0287
1052.765, 293.3194
1053.247, 292.6518
1053.729, 291.7863
1054.211, 291.0049
1054.693, 290.3496
1055.176, 289.8846
1055.658, 289.5788
1056.140, 289.3522
1056.622, 289.2321
1057.104, 288.9178
1057.586, 288.3169
1058.068, 287.4638
1058.550, 286.1794
1059.032, 284.7653
1059.515, 283.5987
1059.997, 282.7298
1060.479, 282.2744
1060.961, 282.4055
1061.443, 282.5950
1061.925, 282.4911
1062.407, 282.1367
1062.889, 281.7158
1063.371, 281.1991
1063.854, 280.4604
1064.336, 279.2960
1064.818, 278.0457
1065.300, 276.6507
1065.782, 275.3271
1066.264, 274.4897
1066.746, 274.1587
1067.228, 273.6931
1067.711, 273.0155
1068.193, 272.2789
1068.675, 271.7649
1069.157, 271.1570
1069.639, 269.9913
1070.121, 268.2768
1070.603, 267.0975
1071.085, 266.6537
1071.568, 266.2774
1072.050, 265.7954
1072.532, 265.2041
1073.014, 264.5400
1073.496, 263.7430
1073.978, 262.5608
1074.460, 260.5027
1074.942, 259.2856
1075.424, 260.2396
1075.906, 261.1635
1076.389, 260.6091
1076.871, 258.7530
1077.353, 257.3009
1077.835, 256.2545
1078.317, 255.6335
1078.799, 256.0043
1079.281, 256.2136
1079.763, 255.2836
1080.245, 253.8353
1080.728, 253.0280
1081.210, 253.0486
1081.692, 252.8673
1082.174, 252.3717
1082.656, 251.9249
1083.138, 252.0811
1083.620, 252.3563
1084.102, 252.1364
1084.585, 251.4203
1085.067, 250.6797
1085.549, 249.7993
1086.031, 249.2531
1086.513, 249.2265
1086.995, 249.4772
1087.477, 249.6444
1087.959, 249.7185
1088.442, 249.7146
1088.924, 249.6852
1089.406, 249.3186
1089.888, 247.8164
1090.370, 246.6231
1090.852, 246.7142
1091.334, 247.8542
1091.816, 247.9213
1092.298, 247.0345
1092.781, 246.6634
1093.263, 247.9873
1093.745, 249.2643
1094.227, 248.9133
1094.709, 247.9022
1095.191, 247.5841
1095.673, 248.3023
1096.155, 248.7001
1096.637, 248.7637
1097.120, 248.5731
1097.602, 247.7518
1098.084, 247.0142
1098.566, 247.6259
1099.048, 249.1910
1099.530, 250.0962
1100.012, 249.5559
1100.494, 249.0429
1100.977, 248.6837
1101.459, 248.5145
1101.941, 248.7377
1102.423, 249.1622
1102.905, 249.2444
1103.387, 248.9230
1103.869, 248.7538
1104.351, 249.2455
1104.833, 249.6274
1105.316, 249.5473
1105.798, 249.1830
1106.280, 249.1291
1106.762, 249.3314
1107.244, 249.3545
1107.726, 249.0265
1108.208, 248.6782
1108.690, 248.5833
1109.172, 248.5343
1109.655, 248.2975
1110.137, 247.8479
1110.619, 247.7679
1111.101, 248.0875
1111.583, 248.3556
1112.065, 248.5334
1112.547, 248.3187
1113.029, 246.7117
1113.512, 244.7027
1113.994, 243.9945
1114.476, 245.8988
1114.958, 246.9355
1115.440, 246.9716
1115.922, 246.5801
1116.404, 246.1529
1116.886, 245.6598
1117.369, 244.8525
1117.851, 243.8861
1118.333, 243.3888
1118.815, 244.2232
1119.297, 244.6138
1119.779, 244.1506
1120.261, 243.3565
1120.743, 242.8705
1121.225, 242.6437
1121.708, 242.5932
1122.190, 242.6986
1122.672, 242.6755
1123.154, 242.4588
1123.636, 241.9555
1124.118, 240.9765
1124.600, 239.7863
1125.082, 239.3213
1125.564, 239.4709
1126.047, 238.7725
1126.529, 236.6445
1127.011, 234.8915
1127.493, 235.3740
1127.975, 236.3961
1128.457, 236.4943
1128.939, 235.6944
1129.421, 235.3490
1129.904, 235.4946
1130.386, 235.4630
1130.868, 234.9072
1131.350, 234.1908
1131.832, 233.5886
1132.314, 233.1101
1132.796, 232.8302
1133.278, 232.9046
1133.760, 232.5664
1134.243, 231.6973
1134.725, 230.8804
1135.207, 230.6463
1135.689, 230.5901
1136.171, 229.8487
1136.653, 228.7780
1137.135, 228.2444
1137.617, 229.2081
1138.099, 229.6129
1138.582, 229.2587
1139.064, 228.5478
1139.546, 227.6194
1140.028, 226.7137
1140.510, 226.5622
1140.992, 227.0619
1141.474, 227.4206
1141.956, 227.2415
1142.439, 226.9787
1142.921, 226.7783
1143.403, 226.5039
1143.885, 225.8482
1144.367, 224.9313
1144.849, 224.1311
1145.331, 223.4997
1145.813, 223.1758
1146.296, 223.5607
1146.778, 223.9261
1147.260, 223.9850
1147.742, 223.7657
1148.224, 223.3203
1148.706, 222.6574
1149.188, 221.7421
1149.670, 220.4364
1150.152, 219.5062
1150.635, 219.8588
1151.117, 220.5005
1151.599, 220.6887
1152.081, 220.4533
1152.563, 220.2182
1153.045, 219.9815
1153.527, 219.4960
1154.009, 218.5042
1154.491, 217.5951
1154.974, 217.3873
1155.456, 217.5340
1155.938, 217.6510
1156.420, 217.6896
1156.902, 217.9412
1157.384, 218.4697
1157.866, 218.6569
1158.348, 217.9185
1158.831, 216.9372
1159.313, 216.4383
1159.795, 216.2498
1160.277, 216.0829
1160.759, 215.9429
1161.241, 215.7412
1161.723, 215.5034
1162.205, 215.0999
1162.688, 214.1396
1163.170, 213.1496
1163.652, 212.9895
1164.134, 213.4346
1164.616, 213.7909
1165.098, 213.9525
1165.580, 213.9044
1166.062, 213.6196
1166.544, 213.1837
1167.026, 212.4715
1167.509, 211.7757
1167.991, 211.7895
1168.473, 212.4115
1168.955, 212.7717
1169.437, 212.3512
1169.919, 212.0367
1170.401, 211.9946
1170.883, 212.0499
1171.366, 211.9642
1171.848, 211.7845
1172.330, 211.6477
1172.812, 211.5649
1173.294, 211.3225
1173.776, 210.4698
1174.258, 209.9636
1174.740, 210.1780
1175.223, 210.7150
1175.705, 210.7633
1176.187, 210.4709
1176.669, 210.2423
1177.151, 210.1479
1177.633, 210.1618
1178.115, 210.4225
1178.597, 210.6218
1179.079, 210.6490
1179.562, 210.5238
1180.044, 210.1035
1180.526, 209.5620
1181.008, 209.6880
1181.490, 210.9997
1181.972, 211.8759
1182.454, 211.2078
1182.936, 210.2495
1183.418, 209.6516
1183.901, 209.3583
1184.383, 209.0901
1184.865, 208.8687
1185.347, 208.8123
1185.829, 209.0472
1186.311, 209.2801
1186.793, 209.5849
1187.275, 209.6151
1187.758, 208.9545
1188.240, 207.7039
1188.722, 207.1813
1189.204, 207.3111
1189.686, 207.5441
1190.168, 207.7401
1190.650, 207.7949
1191.132, 207.4835
1191.615, 207.1317
1192.097, 207.1230
1192.579, 207.4702
1193.061, 207.3772
1193.543, 206.8855
1194.025, 206.5348
1194.507, 206.8266
1194.989, 207.1448
1195.471, 207.2747
1195.953, 207.1560
1196.436, 206.6008
1196.918, 205.5880
1197.400, 205.1013
1197.882, 205.1680
1198.364, 205.1960
1198.846, 204.4090
1199.328, 203.8659
1199.810, 204.6113
1200.293, 205.8340
1200.775, 206.1196
1201.257, 205.4368
1201.739, 205.0423
1202.221, 205.0453
1202.703, 205.2040
1203.185, 205.5305
1203.667, 205.7644
1204.150, 205.7120
1204.632, 205.4416
1205.114, 204.9933
1205.596, 204.3487
1206.078, 204.3340
1206.560, 205.1037
1207.042, 205.6651
1207.524, 205.0214
1208.006, 204.1179
1208.489, 203.4835
1208.971, 203.1425
1209.453, 203.3105
1209.935, 203.9993
1210.417, 204.2012
1210.899, 203.7019
1211.381, 203.0761
1211.863, 202.4948
1212.345, 202.2283
1212.828, 202.7602
1213.310, 203.7729
1213.792, 204.1120
1214.274, 203.7933
1214.756, 203.4634
1215.238, 203.2547
1215.720, 203.1335
1216.202, 202.9262
1216.685, 202.9317
1217.167, 203.5665
1217.649, 204.6208
1218.131, 205.0166
1218.613, 204.7786
1219.095, 204.4192
1219.577, 204.0436
1220.059, 203.7354
1220.542, 203.5323
1221.024, 203.4530
1221.506, 203.5920
1221.988, 203.8787
1222.470, 203.6819
1222.952, 203.0580
1223.434, 202.7919
1223.916, 203.3717
1224.398, 203.7024
1224.880, 202.5067
1225.363, 201.2650
1225.845, 201.1404
1226.327, 202.0130
1226.809, 202.9776
1227.291, 203.9788
1227.773, 204.5012
1228.255, 204.2215
1228.737, 203.7070
1229.220, 202.9643
1229.702, 202.4129
1230.184, 202.4570
1230.666, 203.0008
1231.148, 203.0926
1231.630, 202.8066
1232.112, 202.6581
1232.594, 202.9027
1233.077, 203.2469
1233.559, 203.8264
1234.041, 204.1806
1234.523, 203.7817
1235.005, 202.8080
1235.487, 202.8674
1235.969, 203.7601
1236.451, 204.4079
1236.933, 204.1346
1237.416, 203.8763
1237.898, 204.0710
1238.380, 204.3232
1238.862, 204.3531
1239.344, 204.1956
1239.826, 204.0320
1240.308, 203.8718
1240.790, 203.7537
1241.272, 203.8606
1241.755, 203.7488
1242.237, 203.1154
1242.719, 202.5016
1243.201, 202.4151
1243.683, 202.7000
1244.165, 202.5816
1244.647, 202.2305
1245.129, 202.2867
1245.612, 203.6455
1246.094, 204.5081
1246.576, 204.5966
1247.058, 204.2360
1247.540, 203.3076
1248.022, 202.2637
1248.504, 202.6239
1248.986, 203.9817
1249.469, 204.9030
1249.951, 204.5399
1250.433, 204.1672
1250.915, 203.8181
1251.397, 203.6425
1251.879, 204.0222
1252.361, 204.5363
1252.843, 204.1262
1253.325, 203.1191
1253.807, 202.6239
1254.290, 203.2011
1254.772, 203.8064
1255.254, 204.4399
1255.736, 204.9072
1256.218, 204.8847
1256.700, 204.6992
1257.182, 204.9592
1257.664, 205.4465
1258.147, 205.4162
1258.629, 204.5045
1259.111, 203.9940
1259.593, 204.0174
1260.075, 204.0946
1260.557, 203.6734
1261.039, 203.2254
1261.521, 203.2791
1262.004, 203.6955
1262.486, 204.0951
1262.968, 204.5120
1263.450, 204.6283
1263.932, 204.4093
1264.414, 204.0631
1264.896, 203.6517
1265.378, 203.2715
1265.860, 202.8797
1266.343, 202.6311
1266.825, 202.8641
1267.307, 203.6248
1267.789, 204.2007
1268.271, 204.5432
1268.753, 204.6606
1269.235, 204.3466
1269.717, 204.0407
1270.199, 204.1206
1270.682, 204.2908
1271.164, 204.0047
1271.646, 203.3399
1272.128, 203.4614
1272.610, 204.3640
1273.092, 205.1033
1273.574, 205.0486
1274.056, 204.8150
1274.539, 204.5085
1275.021, 204.2702
1275.503, 204.3593
1275.985, 204.6643
1276.467, 204.6885
1276.949, 204.4647
1277.431, 204.4188
1277.913, 205.0006
1278.396, 205.4089
1278.878, 205.4919
1279.360, 205.3839
1279.842, 205.2035
1280.324, 204.9581
1280.806, 204.5613
1281.288, 204.0831
1281.770, 203.8797
1282.252, 203.9493
1282.734, 204.6570
1283.217, 206.3336
1283.699, 207.6231
1284.181, 206.4666
1284.663, 204.6037
1285.145, 204.5389
1285.627, 205.8485
1286.109, 206.5339
1286.591, 206.3367
1287.074, 205.8782
1287.556, 205.1636
1288.038, 204.6125
1288.520, 204.8132
1289.002, 205.1259
1289.484, 204.8701
1289.966, 204.3339
1290.448, 204.2854
1290.931, 204.7842
1291.413, 204.8497
1291.895, 204.4182
1292.377, 204.1943
1292.859, 204.9955
1293.341, 205.7888
1293.823, 205.9421
1294.305, 205.7612
1294.787, 205.5844
1295.270, 205.3987
1295.752, 205.0024
1296.234, 204.4282
1296.716, 204.0693
1297.198, 204.4605
1297.680, 204.6787
1298.162, 204.4036
1298.644, 204.0394
1299.126, 204.1364
1299.609, 204.4772
1300.091, 204.3374
1300.573, 203.8468
1301.055, 203.6659
1301.537, 204.0571
##END=



