##NAMES=Gaitite
##RRUFFID=R130625
##IDEAL CHEMISTRY=Ca^2+^_2_Zn^2+^(As^5+^O_4_)_2_&#183;2H_2_O
##LOCALITY=Municipio de Pitiquito, Sonora, Mexico
##OWNER=RRUFF
##SOURCE=Rock Currier
##DESCRIPTION=Grey to white tabular or granular crystals, associated with colorless irregular austinite and quartz
##STATUS=The identification of this mineral has been confirmed only by single crystal X-ray diffraction.
##URL=rruff.info/R130625
8.813672e+001, 1.993692e+003
8.861884e+001, 2.017927e+003
8.910095e+001, 2.042627e+003
8.958307e+001, 2.077299e+003
9.006519e+001, 2.118206e+003
9.054730e+001, 2.154769e+003
9.102942e+001, 2.188309e+003
9.151154e+001, 2.217463e+003
9.199365e+001, 2.240212e+003
9.247577e+001, 2.257823e+003
9.295789e+001, 2.273288e+003
9.344000e+001, 2.288052e+003
9.392212e+001, 2.300373e+003
9.440424e+001, 2.311107e+003
9.488635e+001, 2.323560e+003
9.536847e+001, 2.337905e+003
9.585059e+001, 2.353082e+003
9.633270e+001, 2.368884e+003
9.681482e+001, 2.385708e+003
9.729694e+001, 2.403796e+003
9.777905e+001, 2.423156e+003
9.826117e+001, 2.443304e+003
9.874329e+001, 2.463948e+003
9.922540e+001, 2.484926e+003
9.970752e+001, 2.506441e+003
1.001896e+002, 2.528206e+003
1.006718e+002, 2.549973e+003
1.011539e+002, 2.571330e+003
1.016360e+002, 2.592350e+003
1.021181e+002, 2.613331e+003
1.026002e+002, 2.633563e+003
1.030823e+002, 2.652291e+003
1.035645e+002, 2.674856e+003
1.040466e+002, 2.701410e+003
1.045287e+002, 2.731839e+003
1.050108e+002, 2.767027e+003
1.054929e+002, 2.808906e+003
1.059750e+002, 2.852687e+003
1.064572e+002, 2.896762e+003
1.069393e+002, 2.943566e+003
1.074214e+002, 2.987077e+003
1.079035e+002, 3.029519e+003
1.083856e+002, 3.069700e+003
1.088677e+002, 3.101192e+003
1.093499e+002, 3.125461e+003
1.098320e+002, 3.140852e+003
1.103141e+002, 3.146741e+003
1.107962e+002, 3.131974e+003
1.112783e+002, 3.120733e+003
1.117604e+002, 3.114325e+003
1.122426e+002, 3.112676e+003
1.127247e+002, 3.115862e+003
1.132068e+002, 3.125816e+003
1.136889e+002, 3.139495e+003
1.141710e+002, 3.154705e+003
1.146531e+002, 3.170807e+003
1.151353e+002, 3.188383e+003
1.156174e+002, 3.208099e+003
1.160995e+002, 3.229835e+003
1.165816e+002, 3.252432e+003
1.170637e+002, 3.275816e+003
1.175458e+002, 3.299508e+003
1.180280e+002, 3.323302e+003
1.185101e+002, 3.346575e+003
1.189922e+002, 3.370011e+003
1.194743e+002, 3.394978e+003
1.199564e+002, 3.422133e+003
1.204385e+002, 3.445742e+003
1.209207e+002, 3.460974e+003
1.214028e+002, 3.470109e+003
1.218849e+002, 3.477239e+003
1.223670e+002, 3.483422e+003
1.228491e+002, 3.488969e+003
1.233312e+002, 3.493552e+003
1.238134e+002, 3.496563e+003
1.242955e+002, 3.500847e+003
1.247776e+002, 3.509915e+003
1.252597e+002, 3.522786e+003
1.257418e+002, 3.536142e+003
1.262239e+002, 3.546101e+003
1.267061e+002, 3.555515e+003
1.271882e+002, 3.569876e+003
1.276703e+002, 3.591321e+003
1.281524e+002, 3.615862e+003
1.286345e+002, 3.637950e+003
1.291166e+002, 3.657781e+003
1.295988e+002, 3.677650e+003
1.300809e+002, 3.699574e+003
1.305630e+002, 3.723020e+003
1.310451e+002, 3.745879e+003
1.315272e+002, 3.767332e+003
1.320093e+002, 3.787801e+003
1.324915e+002, 3.808510e+003
1.329736e+002, 3.829372e+003
1.334557e+002, 3.850464e+003
1.339378e+002, 3.871335e+003
1.344199e+002, 3.891990e+003
1.349020e+002, 3.913350e+003
1.353842e+002, 3.936288e+003
1.358663e+002, 3.959735e+003
1.363484e+002, 3.980661e+003
1.368305e+002, 3.998562e+003
1.373126e+002, 4.014794e+003
1.377947e+002, 4.030442e+003
1.382769e+002, 4.045485e+003
1.387590e+002, 4.060098e+003
1.392411e+002, 4.074620e+003
1.397232e+002, 4.089247e+003
1.402053e+002, 4.100686e+003
1.406874e+002, 4.108515e+003
1.411696e+002, 4.114146e+003
1.416517e+002, 4.118889e+003
1.421338e+002, 4.121784e+003
1.426159e+002, 4.126618e+003
1.430980e+002, 4.135505e+003
1.435801e+002, 4.150001e+003
1.440623e+002, 4.161589e+003
1.445444e+002, 4.169791e+003
1.450265e+002, 4.175691e+003
1.455086e+002, 4.180874e+003
1.459907e+002, 4.185854e+003
1.464728e+002, 4.189795e+003
1.469550e+002, 4.192305e+003
1.474371e+002, 4.192391e+003
1.479192e+002, 4.193370e+003
1.484013e+002, 4.194318e+003
1.488834e+002, 4.196233e+003
1.493655e+002, 4.201438e+003
1.498477e+002, 4.212790e+003
1.503298e+002, 4.224909e+003
1.508119e+002, 4.235943e+003
1.512940e+002, 4.247463e+003
1.517761e+002, 4.255564e+003
1.522583e+002, 4.256019e+003
1.527404e+002, 4.252279e+003
1.532225e+002, 4.254220e+003
1.537046e+002, 4.267826e+003
1.541867e+002, 4.283540e+003
1.546688e+002, 4.296901e+003
1.551510e+002, 4.304260e+003
1.556331e+002, 4.313397e+003
1.561152e+002, 4.324978e+003
1.565973e+002, 4.339100e+003
1.570794e+002, 4.355948e+003
1.575615e+002, 4.376180e+003
1.580437e+002, 4.398985e+003
1.585258e+002, 4.423924e+003
1.590079e+002, 4.452188e+003
1.594900e+002, 4.481256e+003
1.599721e+002, 4.513660e+003
1.604542e+002, 4.547869e+003
1.609364e+002, 4.574921e+003
1.614185e+002, 4.593845e+003
1.619006e+002, 4.603232e+003
1.623827e+002, 4.601952e+003
1.628648e+002, 4.585958e+003
1.633469e+002, 4.562497e+003
1.638291e+002, 4.531323e+003
1.643112e+002, 4.493550e+003
1.647933e+002, 4.457462e+003
1.652754e+002, 4.426349e+003
1.657575e+002, 4.399306e+003
1.662396e+002, 4.375390e+003
1.667218e+002, 4.352715e+003
1.672039e+002, 4.334201e+003
1.676860e+002, 4.322400e+003
1.681681e+002, 4.317341e+003
1.686502e+002, 4.315456e+003
1.691323e+002, 4.316022e+003
1.696145e+002, 4.318134e+003
1.700966e+002, 4.320552e+003
1.705787e+002, 4.321514e+003
1.710608e+002, 4.323356e+003
1.715429e+002, 4.328659e+003
1.720250e+002, 4.337659e+003
1.725072e+002, 4.347379e+003
1.729893e+002, 4.355641e+003
1.734714e+002, 4.363172e+003
1.739535e+002, 4.371303e+003
1.744356e+002, 4.380755e+003
1.749177e+002, 4.391043e+003
1.753999e+002, 4.403107e+003
1.758820e+002, 4.417506e+003
1.763641e+002, 4.428893e+003
1.768462e+002, 4.431181e+003
1.773283e+002, 4.426594e+003
1.778104e+002, 4.420909e+003
1.782926e+002, 4.416623e+003
1.787747e+002, 4.412995e+003
1.792568e+002, 4.408658e+003
1.797389e+002, 4.403411e+003
1.802210e+002, 4.398236e+003
1.807031e+002, 4.394223e+003
1.811853e+002, 4.391239e+003
1.816674e+002, 4.389056e+003
1.821495e+002, 4.388989e+003
1.826316e+002, 4.389594e+003
1.831137e+002, 4.386545e+003
1.835958e+002, 4.378799e+003
1.840780e+002, 4.370899e+003
1.845601e+002, 4.369271e+003
1.850422e+002, 4.373279e+003
1.855243e+002, 4.378124e+003
1.860064e+002, 4.381044e+003
1.864885e+002, 4.382818e+003
1.869707e+002, 4.385953e+003
1.874528e+002, 4.390765e+003
1.879349e+002, 4.396781e+003
1.884170e+002, 4.403401e+003
1.888991e+002, 4.410626e+003
1.893812e+002, 4.418349e+003
1.898634e+002, 4.426542e+003
1.903455e+002, 4.435171e+003
1.908276e+002, 4.443775e+003
1.913097e+002, 4.451657e+003
1.917918e+002, 4.460975e+003
1.922739e+002, 4.475885e+003
1.927561e+002, 4.496686e+003
1.932382e+002, 4.519748e+003
1.937203e+002, 4.544160e+003
1.942024e+002, 4.569620e+003
1.946845e+002, 4.594312e+003
1.951666e+002, 4.618352e+003
1.956488e+002, 4.640838e+003
1.961309e+002, 4.660308e+003
1.966130e+002, 4.677088e+003
1.970951e+002, 4.690131e+003
1.975772e+002, 4.701071e+003
1.980593e+002, 4.710041e+003
1.985415e+002, 4.706529e+003
1.990236e+002, 4.687429e+003
1.995057e+002, 4.658479e+003
1.999878e+002, 4.631830e+003
2.004699e+002, 4.607369e+003
2.009520e+002, 4.585723e+003
2.014342e+002, 4.567555e+003
2.019163e+002, 4.552827e+003
2.023984e+002, 4.540858e+003
2.028805e+002, 4.531776e+003
2.033626e+002, 4.525257e+003
2.038447e+002, 4.520565e+003
2.043269e+002, 4.517706e+003
2.048090e+002, 4.516601e+003
2.052911e+002, 4.517389e+003
2.057732e+002, 4.520206e+003
2.062553e+002, 4.524042e+003
2.067374e+002, 4.529076e+003
2.072196e+002, 4.534954e+003
2.077017e+002, 4.540484e+003
2.081838e+002, 4.545224e+003
2.086659e+002, 4.550916e+003
2.091480e+002, 4.558576e+003
2.096301e+002, 4.568570e+003
2.101123e+002, 4.579291e+003
2.105944e+002, 4.590832e+003
2.110765e+002, 4.603046e+003
2.115586e+002, 4.616236e+003
2.120407e+002, 4.632035e+003
2.125228e+002, 4.645173e+003
2.130050e+002, 4.652302e+003
2.134871e+002, 4.652276e+003
2.139692e+002, 4.650413e+003
2.144513e+002, 4.646783e+003
2.149334e+002, 4.641520e+003
2.154155e+002, 4.634541e+003
2.158977e+002, 4.624733e+003
2.163798e+002, 4.615220e+003
2.168619e+002, 4.607522e+003
2.173440e+002, 4.601514e+003
2.178261e+002, 4.597724e+003
2.183082e+002, 4.596930e+003
2.187904e+002, 4.598102e+003
2.192725e+002, 4.598046e+003
2.197546e+002, 4.595894e+003
2.202367e+002, 4.594047e+003
2.207188e+002, 4.593763e+003
2.212009e+002, 4.595385e+003
2.216831e+002, 4.597894e+003
2.221652e+002, 4.601778e+003
2.226473e+002, 4.606505e+003
2.231294e+002, 4.609988e+003
2.236115e+002, 4.610846e+003
2.240936e+002, 4.613007e+003
2.245758e+002, 4.619135e+003
2.250579e+002, 4.632458e+003
2.255400e+002, 4.641584e+003
2.260221e+002, 4.644357e+003
2.265042e+002, 4.643432e+003
2.269863e+002, 4.646101e+003
2.274685e+002, 4.654049e+003
2.279506e+002, 4.663033e+003
2.284327e+002, 4.671123e+003
2.289148e+002, 4.677888e+003
2.293969e+002, 4.684663e+003
2.298790e+002, 4.690509e+003
2.303612e+002, 4.696568e+003
2.308433e+002, 4.705839e+003
2.313254e+002, 4.719276e+003
2.318075e+002, 4.734516e+003
2.322896e+002, 4.750737e+003
2.327717e+002, 4.768327e+003
2.332539e+002, 4.785989e+003
2.337360e+002, 4.804952e+003
2.342181e+002, 4.823179e+003
2.347002e+002, 4.835456e+003
2.351823e+002, 4.837531e+003
2.356644e+002, 4.839807e+003
2.361466e+002, 4.846788e+003
2.366287e+002, 4.861044e+003
2.371108e+002, 4.872962e+003
2.375929e+002, 4.882534e+003
2.380750e+002, 4.889599e+003
2.385571e+002, 4.893446e+003
2.390393e+002, 4.892557e+003
2.395214e+002, 4.890935e+003
2.400035e+002, 4.890063e+003
2.404856e+002, 4.890384e+003
2.409677e+002, 4.890503e+003
2.414498e+002, 4.891429e+003
2.419320e+002, 4.891796e+003
2.424141e+002, 4.889016e+003
2.428962e+002, 4.882118e+003
2.433783e+002, 4.873854e+003
2.438604e+002, 4.864630e+003
2.443425e+002, 4.853475e+003
2.448247e+002, 4.845448e+003
2.453068e+002, 4.842294e+003
2.457889e+002, 4.841243e+003
2.462710e+002, 4.837504e+003
2.467531e+002, 4.828695e+003
2.472352e+002, 4.821201e+003
2.477174e+002, 4.816889e+003
2.481995e+002, 4.816049e+003
2.486816e+002, 4.817043e+003
2.491637e+002, 4.821118e+003
2.496458e+002, 4.825985e+003
2.501279e+002, 4.828132e+003
2.506101e+002, 4.825737e+003
2.510922e+002, 4.824021e+003
2.515743e+002, 4.825073e+003
2.520564e+002, 4.829678e+003
2.525385e+002, 4.830733e+003
2.530206e+002, 4.826835e+003
2.535028e+002, 4.820631e+003
2.539849e+002, 4.815694e+003
2.544670e+002, 4.813410e+003
2.549491e+002, 4.809250e+003
2.554312e+002, 4.800920e+003
2.559133e+002, 4.788017e+003
2.563955e+002, 4.780184e+003
2.568776e+002, 4.779609e+003
2.573597e+002, 4.781654e+003
2.578418e+002, 4.781292e+003
2.583239e+002, 4.777232e+003
2.588061e+002, 4.773658e+003
2.592882e+002, 4.770992e+003
2.597703e+002, 4.769243e+003
2.602524e+002, 4.770032e+003
2.607345e+002, 4.774282e+003
2.612166e+002, 4.779775e+003
2.616988e+002, 4.784609e+003
2.621809e+002, 4.788380e+003
2.626630e+002, 4.792568e+003
2.631451e+002, 4.798013e+003
2.636272e+002, 4.804381e+003
2.641093e+002, 4.807510e+003
2.645915e+002, 4.805785e+003
2.650736e+002, 4.803826e+003
2.655557e+002, 4.805931e+003
2.660378e+002, 4.813830e+003
2.665199e+002, 4.819415e+003
2.670020e+002, 4.820396e+003
2.674842e+002, 4.818197e+003
2.679663e+002, 4.820307e+003
2.684484e+002, 4.827966e+003
2.689305e+002, 4.836991e+003
2.694126e+002, 4.844047e+003
2.698947e+002, 4.848267e+003
2.703769e+002, 4.854638e+003
2.708590e+002, 4.863900e+003
2.713411e+002, 4.875518e+003
2.718232e+002, 4.887966e+003
2.723053e+002, 4.901771e+003
2.727874e+002, 4.914689e+003
2.732696e+002, 4.925232e+003
2.737517e+002, 4.932985e+003
2.742338e+002, 4.940837e+003
2.747159e+002, 4.949060e+003
2.751980e+002, 4.957485e+003
2.756801e+002, 4.965817e+003
2.761623e+002, 4.974337e+003
2.766444e+002, 4.981679e+003
2.771265e+002, 4.987355e+003
2.776086e+002, 4.991493e+003
2.780907e+002, 4.993561e+003
2.785728e+002, 4.993760e+003
2.790550e+002, 4.991661e+003
2.795371e+002, 4.985615e+003
2.800192e+002, 4.975132e+003
2.805013e+002, 4.964698e+003
2.809834e+002, 4.956290e+003
2.814655e+002, 4.949842e+003
2.819477e+002, 4.943318e+003
2.824298e+002, 4.936375e+003
2.829119e+002, 4.930248e+003
2.833940e+002, 4.926897e+003
2.838761e+002, 4.926306e+003
2.843582e+002, 4.926646e+003
2.848404e+002, 4.927322e+003
2.853225e+002, 4.928281e+003
2.858046e+002, 4.929503e+003
2.862867e+002, 4.930962e+003
2.867688e+002, 4.932576e+003
2.872509e+002, 4.934485e+003
2.877331e+002, 4.936646e+003
2.882152e+002, 4.938182e+003
2.886973e+002, 4.938029e+003
2.891794e+002, 4.937353e+003
2.896615e+002, 4.940674e+003
2.901436e+002, 4.948405e+003
2.906258e+002, 4.956368e+003
2.911079e+002, 4.960363e+003
2.915900e+002, 4.961142e+003
2.920721e+002, 4.962424e+003
2.925542e+002, 4.965032e+003
2.930363e+002, 4.968890e+003
2.935185e+002, 4.974064e+003
2.940006e+002, 4.980618e+003
2.944827e+002, 4.987578e+003
2.949648e+002, 4.994244e+003
2.954469e+002, 5.000829e+003
2.959290e+002, 5.007788e+003
2.964112e+002, 5.015078e+003
2.968933e+002, 5.023000e+003
2.973754e+002, 5.031904e+003
2.978575e+002, 5.041686e+003
2.983396e+002, 5.052305e+003
2.988217e+002, 5.063257e+003
2.993039e+002, 5.074978e+003
2.997860e+002, 5.088140e+003
3.002681e+002, 5.102949e+003
3.007502e+002, 5.118999e+003
3.012323e+002, 5.135935e+003
3.017144e+002, 5.153795e+003
3.021966e+002, 5.171731e+003
3.026787e+002, 5.191403e+003
3.031608e+002, 5.210377e+003
3.036429e+002, 5.225174e+003
3.041250e+002, 5.235024e+003
3.046071e+002, 5.243385e+003
3.050893e+002, 5.254494e+003
3.055714e+002, 5.266409e+003
3.060535e+002, 5.274656e+003
3.065356e+002, 5.280106e+003
3.070177e+002, 5.279464e+003
3.074998e+002, 5.267568e+003
3.079820e+002, 5.244210e+003
3.084641e+002, 5.218041e+003
3.089462e+002, 5.193201e+003
3.094283e+002, 5.169759e+003
3.099104e+002, 5.148109e+003
3.103925e+002, 5.128208e+003
3.108747e+002, 5.110596e+003
3.113568e+002, 5.096595e+003
3.118389e+002, 5.085927e+003
3.123210e+002, 5.076326e+003
3.128031e+002, 5.066359e+003
3.132852e+002, 5.056881e+003
3.137674e+002, 5.048478e+003
3.142495e+002, 5.040049e+003
3.147316e+002, 5.034499e+003
3.152137e+002, 5.035324e+003
3.156958e+002, 5.040729e+003
3.161779e+002, 5.044733e+003
3.166601e+002, 5.042391e+003
3.171422e+002, 5.039292e+003
3.176243e+002, 5.039358e+003
3.181064e+002, 5.044875e+003
3.185885e+002, 5.050049e+003
3.190706e+002, 5.052300e+003
3.195528e+002, 5.052861e+003
3.200349e+002, 5.054158e+003
3.205170e+002, 5.057237e+003
3.209991e+002, 5.060858e+003
3.214812e+002, 5.064899e+003
3.219633e+002, 5.069919e+003
3.224455e+002, 5.073167e+003
3.229276e+002, 5.071979e+003
3.234097e+002, 5.069446e+003
3.238918e+002, 5.069366e+003
3.243739e+002, 5.074607e+003
3.248560e+002, 5.080188e+003
3.253382e+002, 5.084727e+003
3.258203e+002, 5.088041e+003
3.263024e+002, 5.092235e+003
3.267845e+002, 5.099350e+003
3.272666e+002, 5.106484e+003
3.277487e+002, 5.111317e+003
3.282309e+002, 5.109861e+003
3.287130e+002, 5.110785e+003
3.291951e+002, 5.116226e+003
3.296772e+002, 5.125578e+003
3.301593e+002, 5.132575e+003
3.306414e+002, 5.133331e+003
3.311236e+002, 5.135283e+003
3.316057e+002, 5.142781e+003
3.320878e+002, 5.160055e+003
3.325699e+002, 5.175165e+003
3.330520e+002, 5.187079e+003
3.335341e+002, 5.196535e+003
3.340163e+002, 5.205273e+003
3.344984e+002, 5.212260e+003
3.349805e+002, 5.220034e+003
3.354626e+002, 5.229695e+003
3.359447e+002, 5.241540e+003
3.364268e+002, 5.254531e+003
3.369090e+002, 5.269421e+003
3.373911e+002, 5.284934e+003
3.378732e+002, 5.298246e+003
3.383553e+002, 5.308120e+003
3.388374e+002, 5.320385e+003
3.393195e+002, 5.338254e+003
3.398017e+002, 5.361310e+003
3.402838e+002, 5.380013e+003
3.407659e+002, 5.393276e+003
3.412480e+002, 5.405240e+003
3.417301e+002, 5.420257e+003
3.422122e+002, 5.438381e+003
3.426944e+002, 5.457840e+003
3.431765e+002, 5.477677e+003
3.436586e+002, 5.498822e+003
3.441407e+002, 5.524586e+003
3.446228e+002, 5.555132e+003
3.451049e+002, 5.586773e+003
3.455871e+002, 5.616236e+003
3.460692e+002, 5.644176e+003
3.465513e+002, 5.671838e+003
3.470334e+002, 5.698705e+003
3.475155e+002, 5.727063e+003
3.479977e+002, 5.761945e+003
3.484798e+002, 5.802747e+003
3.489619e+002, 5.841896e+003
3.494440e+002, 5.873958e+003
3.499261e+002, 5.901410e+003
3.504082e+002, 5.929903e+003
3.508904e+002, 5.959932e+003
3.513725e+002, 5.989956e+003
3.518546e+002, 6.019242e+003
3.523367e+002, 6.047521e+003
3.528188e+002, 6.074415e+003
3.533009e+002, 6.104292e+003
3.537831e+002, 6.130324e+003
3.542652e+002, 6.141625e+003
3.547473e+002, 6.138779e+003
3.552294e+002, 6.134390e+003
3.557115e+002, 6.138400e+003
3.561936e+002, 6.146135e+003
3.566758e+002, 6.151332e+003
3.571579e+002, 6.150561e+003
3.576400e+002, 6.148887e+003
3.581221e+002, 6.150219e+003
3.586042e+002, 6.153811e+003
3.590863e+002, 6.156953e+003
3.595685e+002, 6.157859e+003
3.600506e+002, 6.158128e+003
3.605327e+002, 6.160124e+003
3.610148e+002, 6.167121e+003
3.614969e+002, 6.168122e+003
3.619790e+002, 6.157165e+003
3.624612e+002, 6.137458e+003
3.629433e+002, 6.114250e+003
3.634254e+002, 6.090142e+003
3.639075e+002, 6.061887e+003
3.643896e+002, 6.027544e+003
3.648717e+002, 5.986461e+003
3.653539e+002, 5.943097e+003
3.658360e+002, 5.896380e+003
3.663181e+002, 5.848798e+003
3.668002e+002, 5.801528e+003
3.672823e+002, 5.747438e+003
3.677644e+002, 5.701603e+003
3.682466e+002, 5.668657e+003
3.687287e+002, 5.647586e+003
3.692108e+002, 5.626925e+003
3.696929e+002, 5.604827e+003
3.701750e+002, 5.584551e+003
3.706571e+002, 5.568063e+003
3.711393e+002, 5.557157e+003
3.716214e+002, 5.546705e+003
3.721035e+002, 5.535943e+003
3.725856e+002, 5.525815e+003
3.730677e+002, 5.518748e+003
3.735498e+002, 5.515767e+003
3.740320e+002, 5.513864e+003
3.745141e+002, 5.512077e+003
3.749962e+002, 5.510386e+003
3.754783e+002, 5.509049e+003
3.759604e+002, 5.507889e+003
3.764425e+002, 5.507407e+003
3.769247e+002, 5.508120e+003
3.774068e+002, 5.509979e+003
3.778889e+002, 5.513221e+003
3.783710e+002, 5.517815e+003
3.788531e+002, 5.523788e+003
3.793352e+002, 5.531946e+003
3.798174e+002, 5.542491e+003
3.802995e+002, 5.553323e+003
3.807816e+002, 5.562075e+003
3.812637e+002, 5.569223e+003
3.817458e+002, 5.578058e+003
3.822279e+002, 5.589302e+003
3.827101e+002, 5.602148e+003
3.831922e+002, 5.615125e+003
3.836743e+002, 5.628581e+003
3.841564e+002, 5.643987e+003
3.846385e+002, 5.663957e+003
3.851206e+002, 5.686242e+003
3.856028e+002, 5.706531e+003
3.860849e+002, 5.724595e+003
3.865670e+002, 5.741219e+003
3.870491e+002, 5.759425e+003
3.875312e+002, 5.776689e+003
3.880133e+002, 5.788174e+003
3.884955e+002, 5.791183e+003
3.889776e+002, 5.788413e+003
3.894597e+002, 5.783013e+003
3.899418e+002, 5.774407e+003
3.904239e+002, 5.759213e+003
3.909060e+002, 5.730086e+003
3.913882e+002, 5.696188e+003
3.918703e+002, 5.665875e+003
3.923524e+002, 5.641117e+003
3.928345e+002, 5.618919e+003
3.933166e+002, 5.597256e+003
3.937987e+002, 5.577032e+003
3.942809e+002, 5.560389e+003
3.947630e+002, 5.551432e+003
3.952451e+002, 5.543088e+003
3.957272e+002, 5.531127e+003
3.962093e+002, 5.514130e+003
3.966914e+002, 5.500990e+003
3.971736e+002, 5.495130e+003
3.976557e+002, 5.493040e+003
3.981378e+002, 5.491477e+003
3.986199e+002, 5.490542e+003
3.991020e+002, 5.489565e+003
3.995841e+002, 5.488896e+003
4.000663e+002, 5.488276e+003
4.005484e+002, 5.485962e+003
4.010305e+002, 5.479845e+003
4.015126e+002, 5.474334e+003
4.019947e+002, 5.471839e+003
4.024768e+002, 5.474339e+003
4.029590e+002, 5.475363e+003
4.034411e+002, 5.474475e+003
4.039232e+002, 5.472596e+003
4.044053e+002, 5.471496e+003
4.048874e+002, 5.471801e+003
4.053695e+002, 5.471212e+003
4.058517e+002, 5.468373e+003
4.063338e+002, 5.463646e+003
4.068159e+002, 5.461506e+003
4.072980e+002, 5.462177e+003
4.077801e+002, 5.464792e+003
4.082622e+002, 5.469138e+003
4.087444e+002, 5.475111e+003
4.092265e+002, 5.480365e+003
4.097086e+002, 5.484237e+003
4.101907e+002, 5.487312e+003
4.106728e+002, 5.491281e+003
4.111549e+002, 5.495927e+003
4.116371e+002, 5.499271e+003
4.121192e+002, 5.498204e+003
4.126013e+002, 5.495123e+003
4.130834e+002, 5.496212e+003
4.135655e+002, 5.502442e+003
4.140476e+002, 5.508588e+003
4.145298e+002, 5.509119e+003
4.150119e+002, 5.505888e+003
4.154940e+002, 5.502619e+003
4.159761e+002, 5.498654e+003
4.164582e+002, 5.496950e+003
4.169403e+002, 5.502867e+003
4.174225e+002, 5.514898e+003
4.179046e+002, 5.523524e+003
4.183867e+002, 5.519922e+003
4.188688e+002, 5.512397e+003
4.193509e+002, 5.507831e+003
4.198330e+002, 5.508343e+003
4.203152e+002, 5.510325e+003
4.207973e+002, 5.513160e+003
4.212794e+002, 5.516516e+003
4.217615e+002, 5.519771e+003
4.222436e+002, 5.522733e+003
4.227257e+002, 5.525695e+003
4.232079e+002, 5.528982e+003
4.236900e+002, 5.532726e+003
4.241721e+002, 5.535833e+003
4.246542e+002, 5.535772e+003
4.251363e+002, 5.536561e+003
4.256184e+002, 5.541336e+003
4.261006e+002, 5.553802e+003
4.265827e+002, 5.564231e+003
4.270648e+002, 5.570916e+003
4.275469e+002, 5.575003e+003
4.280290e+002, 5.580478e+003
4.285111e+002, 5.588005e+003
4.289933e+002, 5.595321e+003
4.294754e+002, 5.600641e+003
4.299575e+002, 5.603173e+003
4.304396e+002, 5.609980e+003
4.309217e+002, 5.622654e+003
4.314038e+002, 5.636099e+003
4.318860e+002, 5.642742e+003
4.323681e+002, 5.642302e+003
4.328502e+002, 5.643198e+003
4.333323e+002, 5.647829e+003
4.338144e+002, 5.655291e+003
4.342965e+002, 5.663536e+003
4.347787e+002, 5.672630e+003
4.352608e+002, 5.681852e+003
4.357429e+002, 5.690731e+003
4.362250e+002, 5.699468e+003
4.367071e+002, 5.707943e+003
4.371892e+002, 5.715773e+003
4.376714e+002, 5.725376e+003
4.381535e+002, 5.740573e+003
4.386356e+002, 5.759469e+003
4.391177e+002, 5.777729e+003
4.395998e+002, 5.792466e+003
4.400819e+002, 5.806354e+003
4.405641e+002, 5.820790e+003
4.410462e+002, 5.835894e+003
4.415283e+002, 5.853208e+003
4.420104e+002, 5.874433e+003
4.424925e+002, 5.897502e+003
4.429746e+002, 5.920440e+003
4.434568e+002, 5.943080e+003
4.439389e+002, 5.965236e+003
4.444210e+002, 5.986771e+003
4.449031e+002, 6.007745e+003
4.453852e+002, 6.028391e+003
4.458673e+002, 6.050714e+003
4.463495e+002, 6.070617e+003
4.468316e+002, 6.086470e+003
4.473137e+002, 6.097730e+003
4.477958e+002, 6.109155e+003
4.482779e+002, 6.121066e+003
4.487600e+002, 6.132908e+003
4.492422e+002, 6.144241e+003
4.497243e+002, 6.155050e+003
4.502064e+002, 6.165541e+003
4.506885e+002, 6.175447e+003
4.511706e+002, 6.185365e+003
4.516527e+002, 6.196281e+003
4.521349e+002, 6.207708e+003
4.526170e+002, 6.221983e+003
4.530991e+002, 6.240713e+003
4.535812e+002, 6.263912e+003
4.540633e+002, 6.285960e+003
4.545454e+002, 6.306745e+003
4.550276e+002, 6.327758e+003
4.555097e+002, 6.351926e+003
4.559918e+002, 6.378342e+003
4.564739e+002, 6.400501e+003
4.569560e+002, 6.417016e+003
4.574381e+002, 6.428747e+003
4.579203e+002, 6.437801e+003
4.584024e+002, 6.443688e+003
4.588845e+002, 6.444157e+003
4.593666e+002, 6.438153e+003
4.598488e+002, 6.425811e+003
4.603309e+002, 6.406374e+003
4.608130e+002, 6.379610e+003
4.612951e+002, 6.349567e+003
4.617772e+002, 6.319427e+003
4.622593e+002, 6.287977e+003
4.627415e+002, 6.254325e+003
4.632236e+002, 6.215938e+003
4.637057e+002, 6.177612e+003
4.641878e+002, 6.141733e+003
4.646699e+002, 6.107920e+003
4.651520e+002, 6.073821e+003
4.656342e+002, 6.035680e+003
4.661163e+002, 6.000701e+003
4.665984e+002, 5.972141e+003
4.670805e+002, 5.952310e+003
4.675626e+002, 5.933702e+003
4.680447e+002, 5.915195e+003
4.685269e+002, 5.898461e+003
4.690090e+002, 5.885168e+003
4.694911e+002, 5.876835e+003
4.699732e+002, 5.869281e+003
4.704553e+002, 5.862157e+003
4.709374e+002, 5.855260e+003
4.714196e+002, 5.846959e+003
4.719017e+002, 5.836102e+003
4.723838e+002, 5.827315e+003
4.728659e+002, 5.823967e+003
4.733480e+002, 5.826006e+003
4.738301e+002, 5.826625e+003
4.743123e+002, 5.825455e+003
4.747944e+002, 5.823636e+003
4.752765e+002, 5.823240e+003
4.757586e+002, 5.823680e+003
4.762407e+002, 5.821777e+003
4.767228e+002, 5.815464e+003
4.772050e+002, 5.807583e+003
4.776871e+002, 5.802307e+003
4.781692e+002, 5.799416e+003
4.786513e+002, 5.797852e+003
4.791334e+002, 5.797587e+003
4.796155e+002, 5.798104e+003
4.800977e+002, 5.799097e+003
4.805798e+002, 5.800708e+003
4.810619e+002, 5.801992e+003
4.815440e+002, 5.802159e+003
4.820261e+002, 5.801837e+003
4.825082e+002, 5.801736e+003
4.829904e+002, 5.802461e+003
4.834725e+002, 5.803057e+003
4.839546e+002, 5.801859e+003
4.844367e+002, 5.799837e+003
4.849188e+002, 5.801265e+003
4.854009e+002, 5.810964e+003
4.858831e+002, 5.820349e+003
4.863652e+002, 5.826112e+003
4.868473e+002, 5.827376e+003
4.873294e+002, 5.827311e+003
4.878115e+002, 5.823797e+003
4.882936e+002, 5.820735e+003
4.887758e+002, 5.822900e+003
4.892579e+002, 5.832612e+003
4.897400e+002, 5.839704e+003
4.902221e+002, 5.841772e+003
4.907042e+002, 5.840562e+003
4.911863e+002, 5.841852e+003
4.916685e+002, 5.846044e+003
4.921506e+002, 5.848913e+003
4.926327e+002, 5.847070e+003
4.931148e+002, 5.841747e+003
4.935969e+002, 5.838720e+003
4.940790e+002, 5.838244e+003
4.945612e+002, 5.838922e+003
4.950433e+002, 5.839343e+003
4.955254e+002, 5.839980e+003
4.960075e+002, 5.841873e+003
4.964896e+002, 5.845759e+003
4.969717e+002, 5.850429e+003
4.974539e+002, 5.854971e+003
4.979360e+002, 5.859392e+003
4.984181e+002, 5.863485e+003
4.989002e+002, 5.867250e+003
4.993823e+002, 5.870552e+003
4.998644e+002, 5.873133e+003
5.003466e+002, 5.874884e+003
5.008287e+002, 5.876437e+003
5.013108e+002, 5.875958e+003
5.017929e+002, 5.876343e+003
5.022750e+002, 5.879765e+003
5.027571e+002, 5.891720e+003
5.032393e+002, 5.899840e+003
5.037214e+002, 5.900929e+003
5.042035e+002, 5.898410e+003
5.046856e+002, 5.899526e+003
5.051677e+002, 5.905132e+003
5.056498e+002, 5.913051e+003
5.061320e+002, 5.923963e+003
5.066141e+002, 5.937718e+003
5.070962e+002, 5.946883e+003
5.075783e+002, 5.951434e+003
5.080604e+002, 5.951851e+003
5.085425e+002, 5.946662e+003
5.090247e+002, 5.936553e+003
5.095068e+002, 5.929901e+003
5.099889e+002, 5.928454e+003
5.104710e+002, 5.928539e+003
5.109531e+002, 5.923237e+003
5.114352e+002, 5.914601e+003
5.119174e+002, 5.910157e+003
5.123995e+002, 5.917456e+003
5.128816e+002, 5.927685e+003
5.133637e+002, 5.929604e+003
5.138458e+002, 5.924502e+003
5.143279e+002, 5.920394e+003
5.148101e+002, 5.922234e+003
5.152922e+002, 5.926708e+003
5.157743e+002, 5.931322e+003
5.162564e+002, 5.935692e+003
5.167385e+002, 5.939832e+003
5.172206e+002, 5.943850e+003
5.177028e+002, 5.947482e+003
5.181849e+002, 5.950436e+003
5.186670e+002, 5.952283e+003
5.191491e+002, 5.953905e+003
5.196312e+002, 5.955559e+003
5.201133e+002, 5.957205e+003
5.205955e+002, 5.958669e+003
5.210776e+002, 5.960596e+003
5.215597e+002, 5.961527e+003
5.220418e+002, 5.960356e+003
5.225239e+002, 5.956771e+003
5.230060e+002, 5.955762e+003
5.234882e+002, 5.957719e+003
5.239703e+002, 5.961430e+003
5.244524e+002, 5.966478e+003
5.249345e+002, 5.972662e+003
5.254166e+002, 5.977139e+003
5.258987e+002, 5.979162e+003
5.263809e+002, 5.979646e+003
5.268630e+002, 5.978522e+003
5.273451e+002, 5.976599e+003
5.278272e+002, 5.977374e+003
5.283093e+002, 5.984768e+003
5.287914e+002, 5.994330e+003
5.292736e+002, 6.000992e+003
5.297557e+002, 6.004813e+003
5.302378e+002, 6.008509e+003
5.307199e+002, 6.013985e+003
5.312020e+002, 6.019760e+003
5.316841e+002, 6.024557e+003
5.321663e+002, 6.028003e+003
5.326484e+002, 6.030857e+003
5.331305e+002, 6.033276e+003
5.336126e+002, 6.035328e+003
5.340947e+002, 6.037162e+003
5.345768e+002, 6.039320e+003
5.350590e+002, 6.040760e+003
5.355411e+002, 6.041233e+003
5.360232e+002, 6.040946e+003
5.365053e+002, 6.040572e+003
5.369874e+002, 6.039769e+003
5.374695e+002, 6.039942e+003
5.379517e+002, 6.042256e+003
5.384338e+002, 6.046920e+003
5.389159e+002, 6.050366e+003
5.393980e+002, 6.052328e+003
5.398801e+002, 6.054070e+003
5.403622e+002, 6.057071e+003
5.408444e+002, 6.061039e+003
5.413265e+002, 6.064921e+003
5.418086e+002, 6.068710e+003
5.422907e+002, 6.071790e+003
5.427728e+002, 6.072429e+003
5.432549e+002, 6.071546e+003
5.437371e+002, 6.071849e+003
5.442192e+002, 6.076001e+003
5.447013e+002, 6.080859e+003
5.451834e+002, 6.084079e+003
5.456655e+002, 6.085703e+003
5.461476e+002, 6.087031e+003
5.466298e+002, 6.088017e+003
5.471119e+002, 6.089406e+003
5.475940e+002, 6.091843e+003
5.480761e+002, 6.096341e+003
5.485582e+002, 6.100155e+003
5.490403e+002, 6.102415e+003
5.495225e+002, 6.104309e+003
5.500046e+002, 6.107239e+003
5.504867e+002, 6.111725e+003
5.509688e+002, 6.116324e+003
5.514509e+002, 6.121479e+003
5.519330e+002, 6.126334e+003
5.524152e+002, 6.126844e+003
5.528973e+002, 6.122067e+003
5.533794e+002, 6.118187e+003
5.538615e+002, 6.118829e+003
5.543436e+002, 6.123150e+003
5.548257e+002, 6.127083e+003
5.553079e+002, 6.130564e+003
5.557900e+002, 6.133517e+003
5.562721e+002, 6.135385e+003
5.567542e+002, 6.136748e+003
5.572363e+002, 6.138737e+003
5.577184e+002, 6.141804e+003
5.582006e+002, 6.145053e+003
5.586827e+002, 6.148358e+003
5.591648e+002, 6.151329e+003
5.596469e+002, 6.153344e+003
5.601290e+002, 6.153606e+003
5.606111e+002, 6.153493e+003
5.610933e+002, 6.153065e+003
5.615754e+002, 6.152550e+003
5.620575e+002, 6.153211e+003
5.625396e+002, 6.155866e+003
5.630217e+002, 6.159175e+003
5.635038e+002, 6.163016e+003
5.639860e+002, 6.167944e+003
5.644681e+002, 6.170360e+003
5.649502e+002, 6.168782e+003
5.654323e+002, 6.166937e+003
5.659144e+002, 6.169400e+003
5.663965e+002, 6.176805e+003
5.668787e+002, 6.180619e+003
5.673608e+002, 6.178689e+003
5.678429e+002, 6.174618e+003
5.683250e+002, 6.174617e+003
5.688071e+002, 6.178183e+003
5.692892e+002, 6.182644e+003
5.697714e+002, 6.187513e+003
5.702535e+002, 6.192159e+003
5.707356e+002, 6.195215e+003
5.712177e+002, 6.196989e+003
5.716998e+002, 6.199068e+003
5.721819e+002, 6.203229e+003
5.726641e+002, 6.207497e+003
5.731462e+002, 6.209926e+003
5.736283e+002, 6.209757e+003
5.741104e+002, 6.210482e+003
5.745925e+002, 6.214427e+003
5.750746e+002, 6.218970e+003
5.755568e+002, 6.221745e+003
5.760389e+002, 6.219529e+003
5.765210e+002, 6.219727e+003
5.770031e+002, 6.223931e+003
5.774852e+002, 6.230196e+003
5.779673e+002, 6.234858e+003
5.784495e+002, 6.238291e+003
5.789316e+002, 6.239002e+003
5.794137e+002, 6.235104e+003
5.798958e+002, 6.228497e+003
5.803779e+002, 6.228146e+003
5.808600e+002, 6.234375e+003
5.813422e+002, 6.240336e+003
5.818243e+002, 6.240185e+003
5.823064e+002, 6.236531e+003
5.827885e+002, 6.234788e+003
5.832706e+002, 6.235287e+003
5.837527e+002, 6.238462e+003
5.842349e+002, 6.248867e+003
5.847170e+002, 6.260490e+003
5.851991e+002, 6.265226e+003
5.856812e+002, 6.256338e+003
5.861633e+002, 6.248161e+003
5.866454e+002, 6.247085e+003
5.871276e+002, 6.250675e+003
5.876097e+002, 6.254547e+003
5.880918e+002, 6.258149e+003
5.885739e+002, 6.261638e+003
5.890560e+002, 6.265671e+003
5.895381e+002, 6.269885e+003
5.900203e+002, 6.271157e+003
5.905024e+002, 6.267669e+003
5.909845e+002, 6.265011e+003
5.914666e+002, 6.266604e+003
5.919487e+002, 6.272586e+003
5.924308e+002, 6.276826e+003
5.929130e+002, 6.279375e+003
5.933951e+002, 6.280432e+003
5.938772e+002, 6.279173e+003
5.943593e+002, 6.276522e+003
5.948414e+002, 6.275371e+003
5.953235e+002, 6.276288e+003
5.958057e+002, 6.278752e+003
5.962878e+002, 6.283435e+003
5.967699e+002, 6.289136e+003
5.972520e+002, 6.293551e+003
5.977341e+002, 6.294699e+003
5.982162e+002, 6.295312e+003
5.986984e+002, 6.296467e+003
5.991805e+002, 6.298042e+003
5.996626e+002, 6.299761e+003
6.001447e+002, 6.301209e+003
6.006268e+002, 6.302980e+003
6.011089e+002, 6.304964e+003
6.015911e+002, 6.307010e+003
6.020732e+002, 6.311062e+003
6.025553e+002, 6.318306e+003
6.030374e+002, 6.325638e+003
6.035195e+002, 6.330717e+003
6.040016e+002, 6.333398e+003
6.044838e+002, 6.336221e+003
6.049659e+002, 6.339711e+003
6.054480e+002, 6.342125e+003
6.059301e+002, 6.339312e+003
6.064122e+002, 6.333021e+003
6.068943e+002, 6.330576e+003
6.073765e+002, 6.335362e+003
6.078586e+002, 6.342385e+003
6.083407e+002, 6.346621e+003
6.088228e+002, 6.348728e+003
6.093049e+002, 6.350213e+003
6.097870e+002, 6.351405e+003
6.102692e+002, 6.352464e+003
6.107513e+002, 6.353329e+003
6.112334e+002, 6.354034e+003
6.117155e+002, 6.355055e+003
6.121976e+002, 6.357747e+003
6.126797e+002, 6.359666e+003
6.131619e+002, 6.359251e+003
6.136440e+002, 6.355416e+003
6.141261e+002, 6.354665e+003
6.146082e+002, 6.358354e+003
6.150903e+002, 6.363078e+003
6.155724e+002, 6.365914e+003
6.160546e+002, 6.366837e+003
6.165367e+002, 6.366524e+003
6.170188e+002, 6.364427e+003
6.175009e+002, 6.362851e+003
6.179830e+002, 6.366102e+003
6.184651e+002, 6.372894e+003
6.189473e+002, 6.378877e+003
6.194294e+002, 6.382775e+003
6.199115e+002, 6.384781e+003
6.203936e+002, 6.383274e+003
6.208757e+002, 6.379767e+003
6.213578e+002, 6.378787e+003
6.218400e+002, 6.384519e+003
6.223221e+002, 6.391389e+003
6.228042e+002, 6.396896e+003
6.232863e+002, 6.400925e+003
6.237684e+002, 6.404069e+003
6.242505e+002, 6.405545e+003
6.247327e+002, 6.407039e+003
6.252148e+002, 6.409259e+003
6.256969e+002, 6.412136e+003
6.261790e+002, 6.416322e+003
6.266611e+002, 6.422161e+003
6.271432e+002, 6.428572e+003
6.276254e+002, 6.434832e+003
6.281075e+002, 6.440861e+003
6.285896e+002, 6.445211e+003
6.290717e+002, 6.447260e+003
6.295538e+002, 6.448413e+003
6.300359e+002, 6.448677e+003
6.305181e+002, 6.449427e+003
6.310002e+002, 6.454295e+003
6.314823e+002, 6.469014e+003
6.319644e+002, 6.484058e+003
6.324465e+002, 6.491229e+003
6.329286e+002, 6.492959e+003
6.334108e+002, 6.496813e+003
6.338929e+002, 6.509859e+003
6.343750e+002, 6.521280e+003
6.348571e+002, 6.525354e+003
6.353392e+002, 6.521530e+003
6.358214e+002, 6.521562e+003
6.363035e+002, 6.526669e+003
6.367856e+002, 6.534025e+003
6.372677e+002, 6.543533e+003
6.377498e+002, 6.556332e+003
6.382319e+002, 6.562059e+003
6.387141e+002, 6.559859e+003
6.391962e+002, 6.554392e+003
6.396783e+002, 6.550841e+003
6.401604e+002, 6.548210e+003
6.406425e+002, 6.541931e+003
6.411246e+002, 6.529958e+003
6.416068e+002, 6.518063e+003
6.420889e+002, 6.512368e+003
6.425710e+002, 6.510765e+003
6.430531e+002, 6.509752e+003
6.435352e+002, 6.507459e+003
6.440173e+002, 6.505932e+003
6.444995e+002, 6.506177e+003
6.449816e+002, 6.507772e+003
6.454637e+002, 6.509586e+003
6.459458e+002, 6.510845e+003
6.464279e+002, 6.512907e+003
6.469100e+002, 6.516612e+003
6.473922e+002, 6.521713e+003
6.478743e+002, 6.524216e+003
6.483564e+002, 6.522759e+003
6.488385e+002, 6.522732e+003
6.493206e+002, 6.528755e+003
6.498027e+002, 6.539852e+003
6.502849e+002, 6.546048e+003
6.507670e+002, 6.547063e+003
6.512491e+002, 6.547133e+003
6.517312e+002, 6.550579e+003
6.522133e+002, 6.555430e+003
6.526954e+002, 6.558162e+003
6.531776e+002, 6.557530e+003
6.536597e+002, 6.557406e+003
6.541418e+002, 6.560787e+003
6.546239e+002, 6.565765e+003
6.551060e+002, 6.570131e+003
6.555881e+002, 6.573257e+003
6.560703e+002, 6.575870e+003
6.565524e+002, 6.577140e+003
6.570345e+002, 6.578229e+003
6.575166e+002, 6.581455e+003
6.579987e+002, 6.588148e+003
6.584808e+002, 6.593727e+003
6.589630e+002, 6.597489e+003
6.594451e+002, 6.599237e+003
6.599272e+002, 6.596853e+003
6.604093e+002, 6.590325e+003
6.608914e+002, 6.586317e+003
6.613735e+002, 6.590414e+003
6.618557e+002, 6.598742e+003
6.623378e+002, 6.604686e+003
6.628199e+002, 6.608364e+003
6.633020e+002, 6.610848e+003
6.637841e+002, 6.612703e+003
6.642662e+002, 6.613811e+003
6.647484e+002, 6.613589e+003
6.652305e+002, 6.611606e+003
6.657126e+002, 6.611050e+003
6.661947e+002, 6.613295e+003
6.666768e+002, 6.616868e+003
6.671589e+002, 6.620810e+003
6.676411e+002, 6.626097e+003
6.681232e+002, 6.629411e+003
6.686053e+002, 6.630313e+003
6.690874e+002, 6.629619e+003
6.695695e+002, 6.627351e+003
6.700516e+002, 6.623474e+003
6.705338e+002, 6.623040e+003
6.710159e+002, 6.628039e+003
6.714980e+002, 6.634438e+003
6.719801e+002, 6.636154e+003
6.724622e+002, 6.634337e+003
6.729443e+002, 6.632101e+003
6.734265e+002, 6.629542e+003
6.739086e+002, 6.628251e+003
6.743907e+002, 6.630383e+003
6.748728e+002, 6.634861e+003
6.753549e+002, 6.638232e+003
6.758370e+002, 6.638795e+003
6.763192e+002, 6.638912e+003
6.768013e+002, 6.639294e+003
6.772834e+002, 6.639984e+003
6.777655e+002, 6.641069e+003
6.782476e+002, 6.642851e+003
6.787297e+002, 6.644447e+003
6.792119e+002, 6.645389e+003
6.796940e+002, 6.645684e+003
6.801761e+002, 6.645269e+003
6.806582e+002, 6.643979e+003
6.811403e+002, 6.643437e+003
6.816224e+002, 6.645661e+003
6.821046e+002, 6.649377e+003
6.825867e+002, 6.651821e+003
6.830688e+002, 6.652406e+003
6.835509e+002, 6.653721e+003
6.840330e+002, 6.659052e+003
6.845151e+002, 6.665255e+003
6.849973e+002, 6.669083e+003
6.854794e+002, 6.668133e+003
6.859615e+002, 6.667714e+003
6.864436e+002, 6.668402e+003
6.869257e+002, 6.670212e+003
6.874078e+002, 6.673654e+003
6.878900e+002, 6.680429e+003
6.883721e+002, 6.684048e+003
6.888542e+002, 6.682123e+003
6.893363e+002, 6.678448e+003
6.898184e+002, 6.682495e+003
6.903005e+002, 6.693458e+003
6.907827e+002, 6.701059e+003
6.912648e+002, 6.699157e+003
6.917469e+002, 6.693986e+003
6.922290e+002, 6.694727e+003
6.927111e+002, 6.699859e+003
6.931932e+002, 6.704548e+003
6.936754e+002, 6.704689e+003
6.941575e+002, 6.705063e+003
6.946396e+002, 6.708890e+003
6.951217e+002, 6.715874e+003
6.956038e+002, 6.721889e+003
6.960859e+002, 6.725531e+003
6.965681e+002, 6.728723e+003
6.970502e+002, 6.732563e+003
6.975323e+002, 6.737187e+003
6.980144e+002, 6.738531e+003
6.984965e+002, 6.735809e+003
6.989786e+002, 6.732799e+003
6.994608e+002, 6.732376e+003
6.999429e+002, 6.734154e+003
7.004250e+002, 6.736645e+003
7.009071e+002, 6.739896e+003
7.013892e+002, 6.742484e+003
7.018713e+002, 6.742386e+003
7.023535e+002, 6.741276e+003
7.028356e+002, 6.741148e+003
7.033177e+002, 6.742417e+003
7.037998e+002, 6.744678e+003
7.042819e+002, 6.748678e+003
7.047640e+002, 6.753135e+003
7.052462e+002, 6.756715e+003
7.057283e+002, 6.759891e+003
7.062104e+002, 6.760883e+003
7.066925e+002, 6.758166e+003
7.071746e+002, 6.754532e+003
7.076567e+002, 6.754567e+003
7.081389e+002, 6.758440e+003
7.086210e+002, 6.763422e+003
7.091031e+002, 6.769652e+003
7.095852e+002, 6.775315e+003
7.100673e+002, 6.776082e+003
7.105494e+002, 6.773598e+003
7.110316e+002, 6.772854e+003
7.115137e+002, 6.777954e+003
7.119958e+002, 6.783952e+003
7.124779e+002, 6.788042e+003
7.129600e+002, 6.790485e+003
7.134421e+002, 6.791987e+003
7.139243e+002, 6.790333e+003
7.144064e+002, 6.790438e+003
7.148885e+002, 6.794382e+003
7.153706e+002, 6.801615e+003
7.158527e+002, 6.807663e+003
7.163348e+002, 6.812309e+003
7.168170e+002, 6.816344e+003
7.172991e+002, 6.820416e+003
7.177812e+002, 6.824181e+003
7.182633e+002, 6.825307e+003
7.187454e+002, 6.823834e+003
7.192275e+002, 6.821982e+003
7.197097e+002, 6.819960e+003
7.201918e+002, 6.819166e+003
7.206739e+002, 6.821636e+003
7.211560e+002, 6.827539e+003
7.216381e+002, 6.834525e+003
7.221202e+002, 6.843533e+003
7.226024e+002, 6.851765e+003
7.230845e+002, 6.856744e+003
7.235666e+002, 6.856272e+003
7.240487e+002, 6.859284e+003
7.245308e+002, 6.867492e+003
7.250129e+002, 6.877044e+003
7.254951e+002, 6.884709e+003
7.259772e+002, 6.890438e+003
7.264593e+002, 6.896876e+003
7.269414e+002, 6.904650e+003
7.274235e+002, 6.911015e+003
7.279056e+002, 6.910352e+003
7.283878e+002, 6.906177e+003
7.288699e+002, 6.906710e+003
7.293520e+002, 6.915339e+003
7.298341e+002, 6.924358e+003
7.303162e+002, 6.927761e+003
7.307983e+002, 6.928778e+003
7.312805e+002, 6.931536e+003
7.317626e+002, 6.939373e+003
7.322447e+002, 6.945851e+003
7.327268e+002, 6.949197e+003
7.332089e+002, 6.951549e+003
7.336910e+002, 6.956766e+003
7.341732e+002, 6.965755e+003
7.346553e+002, 6.973634e+003
7.351374e+002, 6.978867e+003
7.356195e+002, 6.983204e+003
7.361016e+002, 6.991175e+003
7.365837e+002, 7.001561e+003
7.370659e+002, 7.008975e+003
7.375480e+002, 7.008497e+003
7.380301e+002, 7.006820e+003
7.385122e+002, 7.010540e+003
7.389943e+002, 7.017792e+003
7.394764e+002, 7.023846e+003
7.399586e+002, 7.026100e+003
7.404407e+002, 7.027846e+003
7.409228e+002, 7.029461e+003
7.414049e+002, 7.031292e+003
7.418870e+002, 7.035449e+003
7.423691e+002, 7.043156e+003
7.428513e+002, 7.049744e+003
7.433334e+002, 7.053264e+003
7.438155e+002, 7.054375e+003
7.442976e+002, 7.054568e+003
7.447797e+002, 7.054102e+003
7.452618e+002, 7.056469e+003
7.457440e+002, 7.067288e+003
7.462261e+002, 7.080090e+003
7.467082e+002, 7.086740e+003
7.471903e+002, 7.087588e+003
7.476724e+002, 7.088686e+003
7.481545e+002, 7.092625e+003
7.486367e+002, 7.097558e+003
7.491188e+002, 7.102834e+003
7.496009e+002, 7.108530e+003
7.500830e+002, 7.113360e+003
7.505651e+002, 7.117815e+003
7.510472e+002, 7.120510e+003
7.515294e+002, 7.119694e+003
7.520115e+002, 7.115497e+003
7.524936e+002, 7.113441e+003
7.529757e+002, 7.113527e+003
7.534578e+002, 7.115263e+003
7.539399e+002, 7.121239e+003
7.544221e+002, 7.127414e+003
7.549042e+002, 7.126198e+003
7.553863e+002, 7.116208e+003
7.558684e+002, 7.107755e+003
7.563505e+002, 7.105820e+003
7.568326e+002, 7.107798e+003
7.573148e+002, 7.112367e+003
7.577969e+002, 7.121900e+003
7.582790e+002, 7.126902e+003
7.587611e+002, 7.124605e+003
7.592432e+002, 7.121582e+003
7.597253e+002, 7.123972e+003
7.602075e+002, 7.131900e+003
7.606896e+002, 7.138925e+003
7.611717e+002, 7.144551e+003
7.616538e+002, 7.149309e+003
7.621359e+002, 7.153222e+003
7.626180e+002, 7.156873e+003
7.631002e+002, 7.161484e+003
7.635823e+002, 7.167708e+003
7.640644e+002, 7.173471e+003
7.645465e+002, 7.176567e+003
7.650286e+002, 7.179289e+003
7.655107e+002, 7.184118e+003
7.659929e+002, 7.194353e+003
7.664750e+002, 7.202281e+003
7.669571e+002, 7.206461e+003
7.674392e+002, 7.210017e+003
7.679213e+002, 7.216394e+003
7.684034e+002, 7.225578e+003
7.688856e+002, 7.239256e+003
7.693677e+002, 7.258623e+003
7.698498e+002, 7.278977e+003
7.703319e+002, 7.294614e+003
7.708140e+002, 7.306653e+003
7.712961e+002, 7.317544e+003
7.717783e+002, 7.327456e+003
7.722604e+002, 7.337213e+003
7.727425e+002, 7.346003e+003
7.732246e+002, 7.355192e+003
7.737067e+002, 7.367143e+003
7.741888e+002, 7.385705e+003
7.746710e+002, 7.401487e+003
7.751531e+002, 7.412263e+003
7.756352e+002, 7.421201e+003
7.761173e+002, 7.434384e+003
7.765994e+002, 7.451912e+003
7.770815e+002, 7.469459e+003
7.775637e+002, 7.486532e+003
7.780458e+002, 7.502267e+003
7.785279e+002, 7.513474e+003
7.790100e+002, 7.522450e+003
7.794921e+002, 7.534503e+003
7.799742e+002, 7.554564e+003
7.804564e+002, 7.574654e+003
7.809385e+002, 7.592060e+003
7.814206e+002, 7.606940e+003
7.819027e+002, 7.619561e+003
7.823848e+002, 7.629423e+003
7.828669e+002, 7.638073e+003
7.833491e+002, 7.646411e+003
7.838312e+002, 7.653269e+003
7.843133e+002, 7.654754e+003
7.847954e+002, 7.651054e+003
7.852775e+002, 7.648209e+003
7.857596e+002, 7.650305e+003
7.862418e+002, 7.651468e+003
7.867239e+002, 7.641976e+003
7.872060e+002, 7.625076e+003
7.876881e+002, 7.608348e+003
7.881702e+002, 7.595173e+003
7.886523e+002, 7.583181e+003
7.891345e+002, 7.572031e+003
7.896166e+002, 7.561423e+003
7.900987e+002, 7.550054e+003
7.905808e+002, 7.537019e+003
7.910629e+002, 7.524919e+003
7.915450e+002, 7.513909e+003
7.920272e+002, 7.504523e+003
7.925093e+002, 7.499592e+003
7.929914e+002, 7.498685e+003
7.934735e+002, 7.497854e+003
7.939556e+002, 7.495193e+003
7.944377e+002, 7.492036e+003
7.949199e+002, 7.490208e+003
7.954020e+002, 7.489173e+003
7.958841e+002, 7.487590e+003
7.963662e+002, 7.481739e+003
7.968483e+002, 7.478661e+003
7.973304e+002, 7.482039e+003
7.978126e+002, 7.490193e+003
7.982947e+002, 7.497953e+003
7.987768e+002, 7.504995e+003
7.992589e+002, 7.512571e+003
7.997410e+002, 7.520828e+003
8.002231e+002, 7.530108e+003
8.007053e+002, 7.541011e+003
8.011874e+002, 7.553596e+003
8.016695e+002, 7.568500e+003
8.021516e+002, 7.587375e+003
8.026337e+002, 7.607396e+003
8.031158e+002, 7.626323e+003
8.035980e+002, 7.644233e+003
8.040801e+002, 7.662161e+003
8.045622e+002, 7.677475e+003
8.050443e+002, 7.696083e+003
8.055264e+002, 7.720575e+003
8.060085e+002, 7.749105e+003
8.064907e+002, 7.775656e+003
8.069728e+002, 7.799751e+003
8.074549e+002, 7.824454e+003
8.079370e+002, 7.850842e+003
8.084191e+002, 7.878631e+003
8.089012e+002, 7.907732e+003
8.093834e+002, 7.937843e+003
8.098655e+002, 7.967888e+003
8.103476e+002, 7.995426e+003
8.108297e+002, 8.024726e+003
8.113118e+002, 8.060087e+003
8.117939e+002, 8.099317e+003
8.122761e+002, 8.135438e+003
8.127582e+002, 8.168072e+003
8.132403e+002, 8.196752e+003
8.137224e+002, 8.220946e+003
8.142045e+002, 8.241351e+003
8.146866e+002, 8.260583e+003
8.151688e+002, 8.278380e+003
8.156509e+002, 8.291750e+003
8.161330e+002, 8.298146e+003
8.166151e+002, 8.301204e+003
8.170972e+002, 8.303558e+003
8.175793e+002, 8.306756e+003
8.180615e+002, 8.314937e+003
8.185436e+002, 8.332871e+003
8.190257e+002, 8.352772e+003
8.195078e+002, 8.367747e+003
8.199899e+002, 8.382654e+003
8.204720e+002, 8.409585e+003
8.209542e+002, 8.448621e+003
8.214363e+002, 8.498546e+003
8.219184e+002, 8.559135e+003
8.224005e+002, 8.630752e+003
8.228826e+002, 8.714680e+003
8.233647e+002, 8.811301e+003
8.238469e+002, 8.918391e+003
8.243290e+002, 9.038346e+003
8.248111e+002, 9.165584e+003
8.252932e+002, 9.297595e+003
8.257753e+002, 9.435244e+003
8.262574e+002, 9.575872e+003
8.267396e+002, 9.715689e+003
8.272217e+002, 9.866109e+003
8.277038e+002, 1.003131e+004
8.281859e+002, 1.020725e+004
8.286681e+002, 1.038737e+004
8.291502e+002, 1.056725e+004
8.296323e+002, 1.077324e+004
8.301144e+002, 1.101335e+004
8.305966e+002, 1.127453e+004
8.310787e+002, 1.154290e+004
8.315608e+002, 1.182092e+004
8.320429e+002, 1.212292e+004
8.325250e+002, 1.246096e+004
8.330071e+002, 1.280674e+004
8.334893e+002, 1.315848e+004
8.339714e+002, 1.350697e+004
8.344535e+002, 1.384745e+004
8.349356e+002, 1.420401e+004
8.354177e+002, 1.451115e+004
8.358998e+002, 1.477336e+004
8.363820e+002, 1.496605e+004
8.368641e+002, 1.506770e+004
8.373462e+002, 1.507330e+004
8.378283e+002, 1.494093e+004
8.383104e+002, 1.465371e+004
8.387925e+002, 1.426338e+004
8.392747e+002, 1.377034e+004
8.397568e+002, 1.322116e+004
8.402389e+002, 1.267391e+004
8.407210e+002, 1.212272e+004
8.412031e+002, 1.161095e+004
8.416852e+002, 1.114732e+004
8.421674e+002, 1.073184e+004
8.426495e+002, 1.037120e+004
8.431316e+002, 1.006942e+004
8.436137e+002, 9.802465e+003
8.440958e+002, 9.567843e+003
8.445779e+002, 9.361761e+003
8.450601e+002, 9.181254e+003
8.455422e+002, 9.025174e+003
8.460243e+002, 8.888348e+003
8.465064e+002, 8.770303e+003
8.469885e+002, 8.667244e+003
8.474706e+002, 8.579256e+003
8.479528e+002, 8.502371e+003
8.484349e+002, 8.433936e+003
8.489170e+002, 8.374195e+003
8.493991e+002, 8.319624e+003
8.498812e+002, 8.269884e+003
8.503633e+002, 8.224897e+003
8.508455e+002, 8.184640e+003
8.513276e+002, 8.148917e+003
8.518097e+002, 8.118463e+003
8.522918e+002, 8.093132e+003
8.527739e+002, 8.070514e+003
8.532560e+002, 8.048074e+003
8.537382e+002, 8.027649e+003
8.542203e+002, 8.010946e+003
8.547024e+002, 7.998399e+003
8.551845e+002, 7.987860e+003
8.556666e+002, 7.979728e+003
8.561487e+002, 7.972946e+003
8.566309e+002, 7.966271e+003
8.571130e+002, 7.959893e+003
8.575951e+002, 7.960154e+003
8.580772e+002, 7.967420e+003
8.585593e+002, 7.976935e+003
8.590414e+002, 7.984056e+003
8.595236e+002, 7.992125e+003
8.600057e+002, 8.006329e+003
8.604878e+002, 8.026422e+003
8.609699e+002, 8.049869e+003
8.614520e+002, 8.076104e+003
8.619341e+002, 8.104986e+003
8.624163e+002, 8.136335e+003
8.628984e+002, 8.170420e+003
8.633805e+002, 8.208888e+003
8.638626e+002, 8.252441e+003
8.643447e+002, 8.299878e+003
8.648268e+002, 8.351481e+003
8.653090e+002, 8.406678e+003
8.657911e+002, 8.462808e+003
8.662732e+002, 8.520338e+003
8.667553e+002, 8.579034e+003
8.672374e+002, 8.637866e+003
8.677195e+002, 8.699739e+003
8.682017e+002, 8.766028e+003
8.686838e+002, 8.836590e+003
8.691659e+002, 8.908584e+003
8.696480e+002, 8.978271e+003
8.701301e+002, 9.055004e+003
8.706122e+002, 9.140286e+003
8.710944e+002, 9.232967e+003
8.715765e+002, 9.331330e+003
8.720586e+002, 9.435235e+003
8.725407e+002, 9.543692e+003
8.730228e+002, 9.658200e+003
8.735049e+002, 9.773269e+003
8.739871e+002, 9.888097e+003
8.744692e+002, 1.000008e+004
8.749513e+002, 1.010598e+004
8.754334e+002, 1.022392e+004
8.759155e+002, 1.030952e+004
8.763976e+002, 1.036769e+004
8.768798e+002, 1.038852e+004
8.773619e+002, 1.035980e+004
8.778440e+002, 1.028083e+004
8.783261e+002, 1.015720e+004
8.788082e+002, 9.984828e+003
8.792903e+002, 9.788593e+003
8.797725e+002, 9.576368e+003
8.802546e+002, 9.362591e+003
8.807367e+002, 9.167850e+003
8.812188e+002, 8.996386e+003
8.817009e+002, 8.840725e+003
8.821830e+002, 8.699626e+003
8.826652e+002, 8.572611e+003
8.831473e+002, 8.459829e+003
8.836294e+002, 8.360791e+003
8.841115e+002, 8.276758e+003
8.845936e+002, 8.208678e+003
8.850757e+002, 8.150391e+003
8.855579e+002, 8.096131e+003
8.860400e+002, 8.047923e+003
8.865221e+002, 8.012373e+003
8.870042e+002, 7.989141e+003
8.874863e+002, 7.966258e+003
8.879684e+002, 7.934074e+003
8.884506e+002, 7.903614e+003
8.889327e+002, 7.881803e+003
8.894148e+002, 7.868214e+003
8.898969e+002, 7.854115e+003
8.903790e+002, 7.838647e+003
8.908611e+002, 7.825358e+003
8.913433e+002, 7.815342e+003
8.918254e+002, 7.808503e+003
8.923075e+002, 7.805874e+003
8.927896e+002, 7.806378e+003
8.932717e+002, 7.805724e+003
8.937538e+002, 7.799787e+003
8.942360e+002, 7.793720e+003
8.947181e+002, 7.790758e+003
8.952002e+002, 7.789919e+003
8.956823e+002, 7.788780e+003
8.961644e+002, 7.786953e+003
8.966465e+002, 7.785202e+003
8.971287e+002, 7.783587e+003
8.976108e+002, 7.782272e+003
8.980929e+002, 7.782268e+003
8.985750e+002, 7.783092e+003
8.990571e+002, 7.781990e+003
8.995392e+002, 7.777617e+003
9.000214e+002, 7.773238e+003
9.005035e+002, 7.772953e+003
9.009856e+002, 7.773490e+003
9.014677e+002, 7.770784e+003
9.019498e+002, 7.760083e+003
9.024319e+002, 7.753615e+003
9.029141e+002, 7.752718e+003
9.033962e+002, 7.754189e+003
9.038783e+002, 7.756335e+003
9.043604e+002, 7.758727e+003
9.048425e+002, 7.756044e+003
9.053246e+002, 7.747630e+003
9.058068e+002, 7.740164e+003
9.062889e+002, 7.739445e+003
9.067710e+002, 7.741897e+003
9.072531e+002, 7.745702e+003
9.077352e+002, 7.750924e+003
9.082173e+002, 7.750775e+003
9.086995e+002, 7.739205e+003
9.091816e+002, 7.729481e+003
9.096637e+002, 7.728878e+003
9.101458e+002, 7.735395e+003
9.106279e+002, 7.734709e+003
9.111100e+002, 7.727188e+003
9.115922e+002, 7.719878e+003
9.120743e+002, 7.716185e+003
9.125564e+002, 7.715081e+003
9.130385e+002, 7.716701e+003
9.135206e+002, 7.720151e+003
9.140027e+002, 7.722727e+003
9.144849e+002, 7.725023e+003
9.149670e+002, 7.724375e+003
9.154491e+002, 7.718672e+003
9.159312e+002, 7.710986e+003
9.164133e+002, 7.708596e+003
9.168954e+002, 7.711339e+003
9.173776e+002, 7.711719e+003
9.178597e+002, 7.707121e+003
9.183418e+002, 7.701957e+003
9.188239e+002, 7.700556e+003
9.193060e+002, 7.701850e+003
9.197881e+002, 7.704600e+003
9.202703e+002, 7.710076e+003
9.207524e+002, 7.713594e+003
9.212345e+002, 7.714134e+003
9.217166e+002, 7.712888e+003
9.221987e+002, 7.709979e+003
9.226808e+002, 7.705234e+003
9.231630e+002, 7.703869e+003
9.236451e+002, 7.706294e+003
9.241272e+002, 7.709188e+003
9.246093e+002, 7.708288e+003
9.250914e+002, 7.707138e+003
9.255735e+002, 7.710696e+003
9.260557e+002, 7.719153e+003
9.265378e+002, 7.726165e+003
9.270199e+002, 7.729406e+003
9.275020e+002, 7.731372e+003
9.279841e+002, 7.732706e+003
9.284662e+002, 7.733488e+003
9.289484e+002, 7.734078e+003
9.294305e+002, 7.734499e+003
9.299126e+002, 7.735259e+003
9.303947e+002, 7.737450e+003
9.308768e+002, 7.739263e+003
9.313589e+002, 7.738475e+003
9.318411e+002, 7.735716e+003
9.323232e+002, 7.732333e+003
9.328053e+002, 7.726104e+003
9.332874e+002, 7.723231e+003
9.337695e+002, 7.726453e+003
9.342516e+002, 7.731880e+003
9.347338e+002, 7.733135e+003
9.352159e+002, 7.730264e+003
9.356980e+002, 7.729243e+003
9.361801e+002, 7.731361e+003
9.366622e+002, 7.733515e+003
9.371443e+002, 7.732390e+003
9.376265e+002, 7.729474e+003
9.381086e+002, 7.726086e+003
9.385907e+002, 7.721692e+003
9.390728e+002, 7.719666e+003
9.395549e+002, 7.720693e+003
9.400370e+002, 7.723802e+003
9.405192e+002, 7.729874e+003
9.410013e+002, 7.738437e+003
9.414834e+002, 7.739371e+003
9.419655e+002, 7.732821e+003
9.424476e+002, 7.727510e+003
9.429297e+002, 7.731198e+003
9.434119e+002, 7.737394e+003
9.438940e+002, 7.740050e+003
9.443761e+002, 7.739628e+003
9.448582e+002, 7.739036e+003
9.453403e+002, 7.740611e+003
9.458224e+002, 7.739693e+003
9.463046e+002, 7.734634e+003
9.467867e+002, 7.727175e+003
9.472688e+002, 7.720748e+003
9.477509e+002, 7.715490e+003
9.482330e+002, 7.712669e+003
9.487151e+002, 7.713065e+003
9.491973e+002, 7.715030e+003
9.496794e+002, 7.718051e+003
9.501615e+002, 7.721420e+003
9.506436e+002, 7.724439e+003
9.511257e+002, 7.728365e+003
9.516078e+002, 7.728528e+003
9.520900e+002, 7.722181e+003
9.525721e+002, 7.716727e+003
9.530542e+002, 7.720576e+003
9.535363e+002, 7.731534e+003
9.540184e+002, 7.734364e+003
9.545005e+002, 7.728795e+003
9.549827e+002, 7.725080e+003
9.554648e+002, 7.732598e+003
9.559469e+002, 7.742699e+003
9.564290e+002, 7.749033e+003
9.569111e+002, 7.751451e+003
9.573932e+002, 7.754544e+003
9.578754e+002, 7.758302e+003
9.583575e+002, 7.762974e+003
9.588396e+002, 7.769277e+003
9.593217e+002, 7.775604e+003
9.598038e+002, 7.776977e+003
9.602859e+002, 7.774813e+003
9.607681e+002, 7.774391e+003
9.612502e+002, 7.779440e+003
9.617323e+002, 7.783752e+003
9.622144e+002, 7.783709e+003
9.626965e+002, 7.781014e+003
9.631786e+002, 7.777600e+003
9.636608e+002, 7.772511e+003
9.641429e+002, 7.770422e+003
9.646250e+002, 7.772123e+003
9.651071e+002, 7.775284e+003
9.655892e+002, 7.778550e+003
9.660714e+002, 7.781411e+003
9.665535e+002, 7.782793e+003
9.670356e+002, 7.782666e+003
9.675177e+002, 7.781374e+003
9.679998e+002, 7.776464e+003
9.684819e+002, 7.773042e+003
9.689641e+002, 7.774529e+003
9.694462e+002, 7.780139e+003
9.699283e+002, 7.784402e+003
9.704104e+002, 7.787021e+003
9.708925e+002, 7.790040e+003
9.713746e+002, 7.794542e+003
9.718568e+002, 7.799288e+003
9.723389e+002, 7.802244e+003
9.728210e+002, 7.803990e+003
9.733031e+002, 7.805888e+003
9.737852e+002, 7.807083e+003
9.742673e+002, 7.810159e+003
9.747495e+002, 7.817392e+003
9.752316e+002, 7.825141e+003
9.757137e+002, 7.829072e+003
9.761958e+002, 7.829028e+003
9.766779e+002, 7.831697e+003
9.771600e+002, 7.837978e+003
9.776422e+002, 7.843267e+003
9.781243e+002, 7.842414e+003
9.786064e+002, 7.839393e+003
9.790885e+002, 7.838501e+003
9.795706e+002, 7.840209e+003
9.800527e+002, 7.841557e+003
9.805349e+002, 7.841312e+003
9.810170e+002, 7.841953e+003
9.814991e+002, 7.845210e+003
9.819812e+002, 7.849530e+003
9.824633e+002, 7.847923e+003
9.829454e+002, 7.841633e+003
9.834276e+002, 7.838669e+003
9.839097e+002, 7.844740e+003
9.843918e+002, 7.851650e+003
9.848739e+002, 7.853122e+003
9.853560e+002, 7.851794e+003
9.858381e+002, 7.851854e+003
9.863203e+002, 7.854790e+003
9.868024e+002, 7.856675e+003
9.872845e+002, 7.857337e+003
9.877666e+002, 7.857283e+003
9.882487e+002, 7.856263e+003
9.887308e+002, 7.855140e+003
9.892130e+002, 7.856684e+003
9.896951e+002, 7.861011e+003
9.901772e+002, 7.864532e+003
9.906593e+002, 7.863167e+003
9.911414e+002, 7.862430e+003
9.916235e+002, 7.866502e+003
9.921057e+002, 7.874028e+003
9.925878e+002, 7.877485e+003
9.930699e+002, 7.876375e+003
9.935520e+002, 7.873768e+003
9.940341e+002, 7.869533e+003
9.945162e+002, 7.866185e+003
9.949984e+002, 7.868903e+003
9.954805e+002, 7.874889e+003
9.959626e+002, 7.878813e+003
9.964447e+002, 7.876995e+003
9.969268e+002, 7.876853e+003
9.974089e+002, 7.881364e+003
9.978911e+002, 7.886248e+003
9.983732e+002, 7.887547e+003
9.988553e+002, 7.885467e+003
9.993374e+002, 7.882524e+003
9.998195e+002, 7.878875e+003
1.000302e+003, 7.877592e+003
1.000784e+003, 7.882579e+003
1.001266e+003, 7.889590e+003
1.001748e+003, 7.895552e+003
1.002230e+003, 7.900235e+003
1.002712e+003, 7.903884e+003
1.003194e+003, 7.905784e+003
1.003676e+003, 7.907903e+003
1.004159e+003, 7.910690e+003
1.004641e+003, 7.913803e+003
1.005123e+003, 7.917530e+003
1.005605e+003, 7.921112e+003
1.006087e+003, 7.921716e+003
1.006569e+003, 7.916333e+003
1.007051e+003, 7.913907e+003
1.007533e+003, 7.924400e+003
1.008016e+003, 7.936048e+003
1.008498e+003, 7.937006e+003
1.008980e+003, 7.923675e+003
1.009462e+003, 7.922442e+003
1.009944e+003, 7.935055e+003
1.010426e+003, 7.947398e+003
1.010908e+003, 7.947322e+003
1.011390e+003, 7.941722e+003
1.011872e+003, 7.937807e+003
1.012355e+003, 7.936186e+003
1.012837e+003, 7.938403e+003
1.013319e+003, 7.949707e+003
1.013801e+003, 7.958449e+003
1.014283e+003, 7.961507e+003
1.014765e+003, 7.961269e+003
1.015247e+003, 7.961721e+003
1.015729e+003, 7.962870e+003
1.016211e+003, 7.965627e+003
1.016694e+003, 7.970821e+003
1.017176e+003, 7.974272e+003
1.017658e+003, 7.970393e+003
1.018140e+003, 7.964864e+003
1.018622e+003, 7.963653e+003
1.019104e+003, 7.968560e+003
1.019586e+003, 7.968918e+003
1.020068e+003, 7.963359e+003
1.020551e+003, 7.958188e+003
1.021033e+003, 7.956827e+003
1.021515e+003, 7.958209e+003
1.021997e+003, 7.960186e+003
1.022479e+003, 7.962853e+003
1.022961e+003, 7.966494e+003
1.023443e+003, 7.972487e+003
1.023925e+003, 7.977784e+003
1.024407e+003, 7.980514e+003
1.024890e+003, 7.982681e+003
1.025372e+003, 7.987072e+003
1.025854e+003, 7.993689e+003
1.026336e+003, 7.999530e+003
1.026818e+003, 8.004353e+003
1.027300e+003, 8.007518e+003
1.027782e+003, 8.007002e+003
1.028264e+003, 8.005626e+003
1.028746e+003, 8.006752e+003
1.029229e+003, 8.010582e+003
1.029711e+003, 8.011335e+003
1.030193e+003, 8.005747e+003
1.030675e+003, 8.003708e+003
1.031157e+003, 8.009791e+003
1.031639e+003, 8.019979e+003
1.032121e+003, 8.026092e+003
1.032603e+003, 8.028734e+003
1.033086e+003, 8.029406e+003
1.033568e+003, 8.027862e+003
1.034050e+003, 8.026383e+003
1.034532e+003, 8.026147e+003
1.035014e+003, 8.026505e+003
1.035496e+003, 8.027024e+003
1.035978e+003, 8.027897e+003
1.036460e+003, 8.027509e+003
1.036943e+003, 8.025743e+003
1.037425e+003, 8.025104e+003
1.037907e+003, 8.028150e+003
1.038389e+003, 8.032720e+003
1.038871e+003, 8.036678e+003
1.039353e+003, 8.040057e+003
1.039835e+003, 8.043191e+003
1.040317e+003, 8.045063e+003
1.040799e+003, 8.048304e+003
1.041281e+003, 8.053429e+003
1.041764e+003, 8.059742e+003
1.042246e+003, 8.066685e+003
1.042728e+003, 8.073927e+003
1.043210e+003, 8.080992e+003
1.043692e+003, 8.088296e+003
1.044174e+003, 8.091755e+003
1.044656e+003, 8.083908e+003
1.045138e+003, 8.076180e+003
1.045621e+003, 8.076571e+003
1.046103e+003, 8.084439e+003
1.046585e+003, 8.090994e+003
1.047067e+003, 8.096172e+003
1.047549e+003, 8.100695e+003
1.048031e+003, 8.105747e+003
1.048513e+003, 8.109065e+003
1.048995e+003, 8.105173e+003
1.049478e+003, 8.098329e+003
1.049960e+003, 8.095791e+003
1.050442e+003, 8.103779e+003
1.050924e+003, 8.109713e+003
1.051406e+003, 8.113620e+003
1.051888e+003, 8.115256e+003
1.052370e+003, 8.112774e+003
1.052852e+003, 8.108033e+003
1.053334e+003, 8.107729e+003
1.053817e+003, 8.111815e+003
1.054299e+003, 8.116649e+003
1.054781e+003, 8.121712e+003
1.055263e+003, 8.125496e+003
1.055745e+003, 8.126811e+003
1.056227e+003, 8.126526e+003
1.056709e+003, 8.126405e+003
1.057191e+003, 8.126414e+003
1.057673e+003, 8.126837e+003
1.058156e+003, 8.127975e+003
1.058638e+003, 8.128273e+003
1.059120e+003, 8.123506e+003
1.059602e+003, 8.118533e+003
1.060084e+003, 8.119267e+003
1.060566e+003, 8.127710e+003
1.061048e+003, 8.135060e+003
1.061530e+003, 8.141234e+003
1.062013e+003, 8.145671e+003
1.062495e+003, 8.147538e+003
1.062977e+003, 8.147945e+003
1.063459e+003, 8.149768e+003
1.063941e+003, 8.152495e+003
1.064423e+003, 8.154757e+003
1.064905e+003, 8.158244e+003
1.065387e+003, 8.158010e+003
1.065870e+003, 8.147577e+003
1.066352e+003, 8.136653e+003
1.066834e+003, 8.134749e+003
1.067316e+003, 8.141966e+003
1.067798e+003, 8.147032e+003
1.068280e+003, 8.149594e+003
1.068762e+003, 8.151957e+003
1.069244e+003, 8.157682e+003
1.069726e+003, 8.162343e+003
1.070208e+003, 8.160615e+003
1.070691e+003, 8.154359e+003
1.071173e+003, 8.152047e+003
1.071655e+003, 8.154142e+003
1.072137e+003, 8.159806e+003
1.072619e+003, 8.169954e+003
1.073101e+003, 8.180540e+003
1.073583e+003, 8.185131e+003
1.074065e+003, 8.186838e+003
1.074548e+003, 8.191829e+003
1.075030e+003, 8.201879e+003
1.075512e+003, 8.207256e+003
1.075994e+003, 8.201592e+003
1.076476e+003, 8.195591e+003
1.076958e+003, 8.193379e+003
1.077440e+003, 8.194176e+003
1.077922e+003, 8.195788e+003
1.078405e+003, 8.197945e+003
1.078887e+003, 8.199113e+003
1.079369e+003, 8.198064e+003
1.079851e+003, 8.197169e+003
1.080333e+003, 8.199174e+003
1.080815e+003, 8.201150e+003
1.081297e+003, 8.199029e+003
1.081779e+003, 8.190835e+003
1.082261e+003, 8.190999e+003
1.082744e+003, 8.200095e+003
1.083226e+003, 8.210111e+003
1.083708e+003, 8.215358e+003
1.084190e+003, 8.218403e+003
1.084672e+003, 8.221094e+003
1.085154e+003, 8.223805e+003
1.085636e+003, 8.227744e+003
1.086118e+003, 8.234466e+003
1.086601e+003, 8.239354e+003
1.087083e+003, 8.241499e+003
1.087565e+003, 8.242538e+003
1.088047e+003, 8.244576e+003
1.088529e+003, 8.247032e+003
1.089011e+003, 8.248924e+003
1.089493e+003, 8.250117e+003
1.089975e+003, 8.250078e+003
1.090458e+003, 8.245961e+003
1.090940e+003, 8.243605e+003
1.091422e+003, 8.245463e+003
1.091904e+003, 8.250306e+003
1.092386e+003, 8.255657e+003
1.092868e+003, 8.260952e+003
1.093350e+003, 8.261854e+003
1.093832e+003, 8.255471e+003
1.094314e+003, 8.249764e+003
1.094797e+003, 8.249579e+003
1.095279e+003, 8.253244e+003
1.095761e+003, 8.260560e+003
1.096243e+003, 8.271873e+003
1.096725e+003, 8.277544e+003
1.097207e+003, 8.277184e+003
1.097689e+003, 8.276501e+003
1.098171e+003, 8.278444e+003
1.098653e+003, 8.281988e+003
1.099136e+003, 8.286433e+003
1.099618e+003, 8.291491e+003
1.100100e+003, 8.296746e+003
1.100582e+003, 8.303598e+003
1.101064e+003, 8.307029e+003
1.101546e+003, 8.305370e+003
1.102028e+003, 8.303932e+003
1.102510e+003, 8.307690e+003
1.102993e+003, 8.315175e+003
1.103475e+003, 8.324335e+003
1.103957e+003, 8.334609e+003
1.104439e+003, 8.343378e+003
1.104921e+003, 8.348392e+003
1.105403e+003, 8.353053e+003
1.105885e+003, 8.357453e+003
1.106367e+003, 8.362854e+003
1.106849e+003, 8.372385e+003
1.107332e+003, 8.385134e+003
1.107814e+003, 8.395116e+003
1.108296e+003, 8.401232e+003
1.108778e+003, 8.409386e+003
1.109260e+003, 8.428228e+003
1.109742e+003, 8.445902e+003
1.110224e+003, 8.453673e+003
1.110706e+003, 8.453543e+003
1.111188e+003, 8.456749e+003
1.111671e+003, 8.463319e+003
1.112153e+003, 8.469156e+003
1.112635e+003, 8.473026e+003
1.113117e+003, 8.475348e+003
1.113599e+003, 8.477608e+003
1.114081e+003, 8.477919e+003
1.114563e+003, 8.473476e+003
1.115045e+003, 8.463021e+003
1.115528e+003, 8.452745e+003
1.116010e+003, 8.442276e+003
1.116492e+003, 8.433312e+003
1.116974e+003, 8.427848e+003
1.117456e+003, 8.423635e+003
1.117938e+003, 8.417022e+003
1.118420e+003, 8.408928e+003
1.118902e+003, 8.401221e+003
1.119385e+003, 8.394147e+003
1.119867e+003, 8.388411e+003
1.120349e+003, 8.384644e+003
1.120831e+003, 8.381169e+003
1.121313e+003, 8.375907e+003
1.121795e+003, 8.369879e+003
1.122277e+003, 8.365865e+003
1.122759e+003, 8.363799e+003
1.123241e+003, 8.362836e+003
1.123724e+003, 8.361881e+003
1.124206e+003, 8.362794e+003
1.124688e+003, 8.365817e+003
1.125170e+003, 8.370824e+003
1.125652e+003, 8.379071e+003
1.126134e+003, 8.389628e+003
1.126616e+003, 8.395943e+003
1.127098e+003, 8.397184e+003
1.127580e+003, 8.395675e+003
1.128063e+003, 8.388522e+003
1.128545e+003, 8.383473e+003
1.129027e+003, 8.387440e+003
1.129509e+003, 8.397432e+003
1.129991e+003, 8.403501e+003
1.130473e+003, 8.405669e+003
1.130955e+003, 8.406470e+003
1.131437e+003, 8.406365e+003
1.131920e+003, 8.406044e+003
1.132402e+003, 8.405726e+003
1.132884e+003, 8.405835e+003
1.133366e+003, 8.406673e+003
1.133848e+003, 8.408222e+003
1.134330e+003, 8.411409e+003
1.134812e+003, 8.416543e+003
1.135294e+003, 8.421403e+003
1.135776e+003, 8.425108e+003
1.136259e+003, 8.427662e+003
1.136741e+003, 8.428300e+003
1.137223e+003, 8.427998e+003
1.137705e+003, 8.428150e+003
1.138187e+003, 8.427845e+003
1.138669e+003, 8.431594e+003
1.139151e+003, 8.441636e+003
1.139633e+003, 8.449755e+003
1.140115e+003, 8.448564e+003
1.140598e+003, 8.442579e+003
1.141080e+003, 8.441363e+003
1.141562e+003, 8.443443e+003
1.142044e+003, 8.444636e+003
1.142526e+003, 8.441517e+003
1.143008e+003, 8.440521e+003
1.143490e+003, 8.443130e+003
1.143972e+003, 8.446944e+003
1.144455e+003, 8.449994e+003
1.144937e+003, 8.452310e+003
1.145419e+003, 8.453567e+003
1.145901e+003, 8.453944e+003
1.146383e+003, 8.454539e+003
1.146865e+003, 8.455421e+003
1.147347e+003, 8.457359e+003
1.147829e+003, 8.461413e+003
1.148312e+003, 8.465800e+003
1.148794e+003, 8.466730e+003
1.149276e+003, 8.465081e+003
1.149758e+003, 8.467257e+003
1.150240e+003, 8.474029e+003
1.150722e+003, 8.481025e+003
1.151204e+003, 8.486224e+003
1.151686e+003, 8.489915e+003
1.152168e+003, 8.491571e+003
1.152651e+003, 8.492037e+003
1.153133e+003, 8.493201e+003
1.153615e+003, 8.495088e+003
1.154097e+003, 8.500111e+003
1.154579e+003, 8.509602e+003
1.155061e+003, 8.517620e+003
1.155543e+003, 8.517715e+003
1.156025e+003, 8.515507e+003
1.156507e+003, 8.514687e+003
1.156990e+003, 8.515554e+003
1.157472e+003, 8.522349e+003
1.157954e+003, 8.535748e+003
1.158436e+003, 8.545294e+003
1.158918e+003, 8.546941e+003
1.159400e+003, 8.544819e+003
1.159882e+003, 8.538772e+003
1.160364e+003, 8.533797e+003
1.160847e+003, 8.537613e+003
1.161329e+003, 8.553162e+003
1.161811e+003, 8.559621e+003
1.162293e+003, 8.555447e+003
1.162775e+003, 8.551440e+003
1.163257e+003, 8.554061e+003
1.163739e+003, 8.558496e+003
1.164221e+003, 8.557957e+003
1.164703e+003, 8.555150e+003
1.165186e+003, 8.554750e+003
1.165668e+003, 8.558875e+003
1.166150e+003, 8.562433e+003
1.166632e+003, 8.565510e+003
1.167114e+003, 8.567401e+003
1.167596e+003, 8.566681e+003
1.168078e+003, 8.565026e+003
1.168560e+003, 8.565370e+003
1.169042e+003, 8.567104e+003
1.169525e+003, 8.568531e+003
1.170007e+003, 8.570145e+003
1.170489e+003, 8.569351e+003
1.170971e+003, 8.564318e+003
1.171453e+003, 8.561415e+003
1.171935e+003, 8.569588e+003
1.172417e+003, 8.583038e+003
1.172899e+003, 8.589684e+003
1.173382e+003, 8.590616e+003
1.173864e+003, 8.593181e+003
1.174346e+003, 8.603943e+003
1.174828e+003, 8.610105e+003
1.175310e+003, 8.608241e+003
1.175792e+003, 8.604349e+003
1.176274e+003, 8.605899e+003
1.176756e+003, 8.611413e+003
1.177239e+003, 8.617857e+003
1.177721e+003, 8.624818e+003
1.178203e+003, 8.632133e+003
1.178685e+003, 8.638197e+003
1.179167e+003, 8.646785e+003
1.179649e+003, 8.660150e+003
1.180131e+003, 8.674677e+003
1.180613e+003, 8.683597e+003
1.181095e+003, 8.688420e+003
1.181578e+003, 8.693548e+003
1.182060e+003, 8.699730e+003
1.182542e+003, 8.705539e+003
1.183024e+003, 8.709491e+003
1.183506e+003, 8.714066e+003
1.183988e+003, 8.719641e+003
1.184470e+003, 8.726946e+003
1.184952e+003, 8.741071e+003
1.185434e+003, 8.758673e+003
1.185917e+003, 8.767095e+003
1.186399e+003, 8.761949e+003
1.186881e+003, 8.755122e+003
1.187363e+003, 8.748677e+003
1.187845e+003, 8.746223e+003
1.188327e+003, 8.751215e+003
1.188809e+003, 8.760544e+003
1.189291e+003, 8.762052e+003
1.189774e+003, 8.757065e+003
1.190256e+003, 8.751978e+003
1.190738e+003, 8.748568e+003
1.191220e+003, 8.745763e+003
1.191702e+003, 8.743794e+003
1.192184e+003, 8.741296e+003
1.192666e+003, 8.736771e+003
1.193148e+003, 8.730920e+003
1.193630e+003, 8.729025e+003
1.194113e+003, 8.730453e+003
1.194595e+003, 8.731518e+003
1.195077e+003, 8.731176e+003
1.195559e+003, 8.729369e+003
1.196041e+003, 8.724279e+003
1.196523e+003, 8.719401e+003
1.197005e+003, 8.718128e+003
1.197487e+003, 8.720121e+003
1.197969e+003, 8.718022e+003
1.198452e+003, 8.712546e+003
1.198934e+003, 8.708812e+003
1.199416e+003, 8.711128e+003
1.199898e+003, 8.713797e+003
1.200380e+003, 8.713990e+003
1.200862e+003, 8.713330e+003
1.201344e+003, 8.712886e+003
1.201826e+003, 8.712661e+003
1.202309e+003, 8.715790e+003
1.202791e+003, 8.722024e+003
1.203273e+003, 8.728168e+003
1.203755e+003, 8.732139e+003
1.204237e+003, 8.735837e+003
1.204719e+003, 8.740752e+003
1.205201e+003, 8.745444e+003
1.205683e+003, 8.747527e+003
1.206166e+003, 8.747013e+003
1.206648e+003, 8.749913e+003
1.207130e+003, 8.756130e+003
1.207612e+003, 8.761042e+003
1.208094e+003, 8.757655e+003
1.208576e+003, 8.756435e+003
1.209058e+003, 8.767112e+003
1.209540e+003, 8.781161e+003
1.210022e+003, 8.785588e+003
1.210505e+003, 8.780875e+003
1.210987e+003, 8.780712e+003
1.211469e+003, 8.785997e+003
1.211951e+003, 8.790580e+003
1.212433e+003, 8.787462e+003
1.212915e+003, 8.785755e+003
1.213397e+003, 8.791735e+003
1.213879e+003, 8.801995e+003
1.214361e+003, 8.812179e+003
1.214844e+003, 8.822071e+003
1.215326e+003, 8.826958e+003
1.215808e+003, 8.826237e+003
1.216290e+003, 8.826038e+003
1.216772e+003, 8.830048e+003
1.217254e+003, 8.836295e+003
1.217736e+003, 8.845207e+003
1.218218e+003, 8.854688e+003
1.218701e+003, 8.860092e+003
1.219183e+003, 8.861718e+003
1.219665e+003, 8.863313e+003
1.220147e+003, 8.865224e+003
1.220629e+003, 8.869938e+003
1.221111e+003, 8.882365e+003
1.221593e+003, 8.894518e+003
1.222075e+003, 8.901899e+003
1.222557e+003, 8.906063e+003
1.223040e+003, 8.910685e+003
1.223522e+003, 8.915751e+003
1.224004e+003, 8.921710e+003
1.224486e+003, 8.929108e+003
1.224968e+003, 8.932951e+003
1.225450e+003, 8.927127e+003
1.225932e+003, 8.920168e+003
1.226414e+003, 8.916029e+003
1.226896e+003, 8.914486e+003
1.227379e+003, 8.915318e+003
1.227861e+003, 8.918194e+003
1.228343e+003, 8.921152e+003
1.228825e+003, 8.923755e+003
1.229307e+003, 8.926441e+003
1.229789e+003, 8.930753e+003
1.230271e+003, 8.933453e+003
1.230753e+003, 8.932009e+003
1.231236e+003, 8.928247e+003
1.231718e+003, 8.928938e+003
1.232200e+003, 8.932895e+003
1.232682e+003, 8.935185e+003
1.233164e+003, 8.933986e+003
1.233646e+003, 8.933860e+003
1.234128e+003, 8.940156e+003
1.234610e+003, 8.944362e+003
1.235093e+003, 8.941791e+003
1.235575e+003, 8.934839e+003
1.236057e+003, 8.930731e+003
1.236539e+003, 8.928911e+003
1.237021e+003, 8.927548e+003
1.237503e+003, 8.926330e+003
1.237985e+003, 8.925041e+003
1.238467e+003, 8.922176e+003
1.238949e+003, 8.921140e+003
1.239432e+003, 8.923940e+003
1.239914e+003, 8.929271e+003
1.240396e+003, 8.933498e+003
1.240878e+003, 8.936880e+003
1.241360e+003, 8.940114e+003
1.241842e+003, 8.943453e+003
1.242324e+003, 8.946387e+003
1.242806e+003, 8.948335e+003
1.243288e+003, 8.950749e+003
1.243771e+003, 8.954757e+003
1.244253e+003, 8.959456e+003
1.244735e+003, 8.960675e+003
1.245217e+003, 8.961120e+003
1.245699e+003, 8.968373e+003
1.246181e+003, 8.990072e+003
1.246663e+003, 9.001954e+003
1.247145e+003, 8.998109e+003
1.247628e+003, 8.992419e+003
1.248110e+003, 8.991156e+003
1.248592e+003, 8.994103e+003
1.249074e+003, 9.004984e+003
1.249556e+003, 9.018610e+003
1.250038e+003, 9.024516e+003
1.250520e+003, 9.014993e+003
1.251002e+003, 9.010498e+003
1.251484e+003, 9.013004e+003
1.251967e+003, 9.016925e+003
1.252449e+003, 9.019218e+003
1.252931e+003, 9.020759e+003
1.253413e+003, 9.023179e+003
1.253895e+003, 9.025802e+003
1.254377e+003, 9.026895e+003
1.254859e+003, 9.023199e+003
1.255341e+003, 9.028021e+003
1.255823e+003, 9.043813e+003
1.256306e+003, 9.056153e+003
1.256788e+003, 9.054203e+003
1.257270e+003, 9.047029e+003
1.257752e+003, 9.044370e+003
1.258234e+003, 9.044553e+003
1.258716e+003, 9.045351e+003
1.259198e+003, 9.047448e+003
1.259680e+003, 9.046923e+003
1.260163e+003, 9.043832e+003
1.260645e+003, 9.038428e+003
1.261127e+003, 9.027843e+003
1.261609e+003, 9.018781e+003
1.262091e+003, 9.020021e+003
1.262573e+003, 9.025160e+003
1.263055e+003, 9.024895e+003
1.263537e+003, 9.017896e+003
1.264020e+003, 9.013313e+003
1.264502e+003, 9.011052e+003
1.264984e+003, 9.011486e+003
1.265466e+003, 9.016577e+003
1.265948e+003, 9.022005e+003
1.266430e+003, 9.026226e+003
1.266912e+003, 9.028034e+003
1.267394e+003, 9.025469e+003
1.267876e+003, 9.018419e+003
1.268359e+003, 9.014653e+003
1.268841e+003, 9.014130e+003
1.269323e+003, 9.016571e+003
1.269805e+003, 9.026569e+003
1.270287e+003, 9.033268e+003
1.270769e+003, 9.029463e+003
1.271251e+003, 9.022297e+003
1.271733e+003, 9.016218e+003
1.272215e+003, 9.011520e+003
1.272698e+003, 9.011934e+003
1.273180e+003, 9.016168e+003
1.273662e+003, 9.017964e+003
1.274144e+003, 9.012146e+003
1.274626e+003, 9.006846e+003
1.275108e+003, 9.002572e+003
1.275590e+003, 9.000995e+003
1.276072e+003, 9.004509e+003
1.276555e+003, 9.011591e+003
1.277037e+003, 9.018232e+003
1.277519e+003, 9.023871e+003
1.278001e+003, 9.027011e+003
1.278483e+003, 9.022630e+003
1.278965e+003, 9.022937e+003
1.279447e+003, 9.030149e+003
1.279929e+003, 9.037876e+003
1.280411e+003, 9.040640e+003
1.280894e+003, 9.040857e+003
1.281376e+003, 9.042375e+003
1.281858e+003, 9.045094e+003
1.282340e+003, 9.048893e+003
1.282822e+003, 9.055033e+003
1.283304e+003, 9.059381e+003
1.283786e+003, 9.061396e+003
1.284268e+003, 9.064621e+003
1.284750e+003, 9.074731e+003
1.285233e+003, 9.084641e+003
1.285715e+003, 9.082410e+003
1.286197e+003, 9.075466e+003
1.286679e+003, 9.077675e+003
1.287161e+003, 9.092808e+003
1.287643e+003, 9.102459e+003
1.288125e+003, 9.106376e+003
1.288607e+003, 9.109459e+003
1.289090e+003, 9.116360e+003
1.289572e+003, 9.121402e+003
1.290054e+003, 9.116682e+003
1.290536e+003, 9.110182e+003
1.291018e+003, 9.112297e+003
1.291500e+003, 9.123393e+003
1.291982e+003, 9.131892e+003
1.292464e+003, 9.137781e+003
1.292947e+003, 9.141488e+003
1.293429e+003, 9.142593e+003
1.293911e+003, 9.142645e+003
1.294393e+003, 9.143938e+003
1.294875e+003, 9.143281e+003
1.295357e+003, 9.135654e+003
1.295839e+003, 9.123482e+003
1.296321e+003, 9.123339e+003
1.296803e+003, 9.132487e+003
1.297286e+003, 9.140202e+003
1.297768e+003, 9.139243e+003
1.298250e+003, 9.142241e+003
1.298732e+003, 9.153975e+003
1.299214e+003, 9.164494e+003
1.299696e+003, 9.164161e+003
1.300178e+003, 9.158465e+003
1.300660e+003, 9.161236e+003
##END=



