##NAMES=Gaitite
##RRUFFID=R130625
##IDEAL CHEMISTRY=Ca^2+^_2_Zn^2+^(As^5+^O_4_)_2_&#183;2H_2_O
##LOCALITY=Municipio de Pitiquito, Sonora, Mexico
##OWNER=RRUFF
##SOURCE=Rock Currier
##DESCRIPTION=Grey to white tabular or granular crystals, associated with colorless irregular austinite and quartz
##STATUS=The identification of this mineral has been confirmed only by single crystal X-ray diffraction.
##URL=rruff.info/R130625
138.6867, 0.0000000E+00
139.1688, 2.884155
139.6509, 3.515503
140.1331, 0.4598390
140.6152, 0.1184080
141.0973, 3.073853
141.5794, 5.482544
142.0615, 6.361084
142.5436, 6.375000
143.0258, 5.689697
143.5079, 4.473999
143.9900, 2.737671
144.4721, 1.774292
144.9542, 2.075806
145.4363, 2.042358
145.9185, 1.765991
146.4006, 1.423828
146.8827, 1.001953
147.3648, 0.4033200
147.8469, 9.6557997E-02
148.3290, 0.1273190
148.8112, 1.104980
149.2933, 2.017212
149.7754, 2.364014
150.2575, 2.571899
150.7396, 3.468994
151.2217, 5.300049
151.7039, 7.660156
152.1860, 9.865479
152.6681, 11.86255
153.1502, 14.29102
153.6323, 17.93823
154.1144, 22.76904
154.5966, 27.34851
155.0787, 30.06104
155.5608, 32.61426
156.0429, 36.11401
156.5250, 40.78662
157.0071, 46.62122
157.4893, 53.56433
157.9714, 61.51843
158.4535, 71.01672
158.9356, 82.88452
159.4177, 95.69641
159.8998, 109.0999
160.3820, 123.3307
160.8641, 137.8599
161.3462, 149.7941
161.8283, 160.2048
162.3104, 162.8840
162.7925, 154.8574
163.2747, 140.2052
163.7568, 122.7557
164.2389, 104.2706
164.7210, 85.27771
165.2031, 68.32202
165.6852, 53.13916
166.1674, 40.25586
166.6495, 29.78137
167.1316, 21.66699
167.6137, 16.25269
168.0958, 13.98816
168.5779, 14.35254
169.0601, 13.87720
169.5422, 11.05530
170.0243, 9.078857
170.5064, 9.436768
170.9885, 11.81165
171.4706, 14.88293
171.9528, 17.87244
172.4349, 20.96143
172.9170, 24.67871
173.3991, 29.55847
173.8812, 34.64136
174.3633, 39.07544
174.8455, 42.84619
175.3276, 46.94897
175.8097, 53.59119
176.2918, 60.61694
176.7739, 64.07764
177.2560, 62.32581
177.7382, 57.21191
178.2203, 50.69385
178.7024, 42.21667
179.1845, 34.27075
179.6666, 28.83765
180.1487, 24.59912
180.6309, 19.83228
181.1130, 13.32178
181.5951, 6.084106
182.0772, 0.8579100
182.5593, 1.494141
183.0414, 3.022095
183.5236, 4.636230
184.0057, 6.034180
184.4878, 6.762329
184.9699, 6.509521
185.4520, 5.382813
185.9341, 4.053955
186.4163, 2.414307
186.8984, 0.6707760
187.3805, 1.171509
187.8626, 3.081787
188.3447, 4.925781
188.8268, 6.530273
189.3090, 7.927490
189.7911, 10.51990
190.2732, 14.64709
190.7553, 19.61633
191.2374, 25.22290
191.7195, 31.56006
192.2017, 38.81519
192.6838, 47.04993
193.1659, 56.30737
193.6480, 67.41638
194.1301, 81.07202
194.6122, 95.43311
195.0944, 110.6259
195.5765, 126.0642
196.0586, 140.6150
196.5407, 154.0825
197.0228, 165.9001
197.5049, 171.6331
197.9871, 171.1829
198.4692, 165.5894
198.9513, 153.8231
199.4334, 136.4662
199.9155, 117.4421
200.3976, 99.02197
200.8798, 81.60181
201.3619, 66.97156
201.8440, 55.68787
202.3261, 46.97778
202.8082, 40.59790
203.2903, 36.58984
203.7725, 33.99402
204.2546, 32.66016
204.7367, 32.28247
205.2188, 32.02356
205.7009, 31.30420
206.1830, 30.81531
206.6652, 31.48804
207.1473, 33.42249
207.6294, 36.18652
208.1115, 39.77246
208.5936, 43.94080
209.0757, 48.45911
209.5579, 53.24402
210.0400, 58.31421
210.5221, 63.86414
211.0042, 70.22205
211.4863, 76.27441
211.9685, 81.75964
212.4506, 86.59229
212.9327, 90.68750
213.4148, 94.50696
213.8969, 97.34180
214.3790, 96.86719
214.8612, 92.05115
215.3433, 85.23486
215.8254, 76.41040
216.3075, 66.71863
216.7896, 57.57861
217.2717, 49.76843
217.7539, 43.17419
218.2360, 37.47632
218.7181, 33.16125
219.2002, 29.21301
219.6823, 24.70874
220.1644, 20.52234
220.6466, 18.18433
221.1287, 18.84839
221.6108, 21.76648
222.0929, 22.62939
222.5750, 18.80627
223.0571, 15.68640
223.5393, 14.05457
224.0214, 13.70789
224.5035, 14.44348
224.9856, 16.22009
225.4677, 18.78027
225.9498, 20.59265
226.4320, 21.30310
226.9141, 21.63831
227.3962, 21.16724
227.8783, 20.46716
228.3604, 20.43469
228.8425, 21.61169
229.3247, 23.78723
229.8068, 25.84875
230.2889, 27.68933
230.7710, 29.52588
231.2531, 31.41821
231.7352, 33.33960
232.2174, 35.19641
232.6995, 36.90405
233.1816, 38.54797
233.6637, 40.57202
234.1458, 42.66394
234.6279, 45.38892
235.1101, 49.51660
235.5922, 54.35718
236.0743, 58.54761
236.5564, 61.36584
237.0385, 63.15479
237.5206, 64.97754
238.0028, 67.52100
238.4849, 69.12830
238.9670, 68.29395
239.4491, 66.04614
239.9312, 64.96301
240.4133, 66.57922
240.8955, 69.29187
241.3776, 69.29980
241.8597, 65.89539
242.3418, 62.24475
242.8239, 59.28174
243.3060, 57.15149
243.7882, 56.42822
244.2703, 58.04138
244.7524, 60.14526
245.2345, 59.53406
245.7166, 55.73889
246.1987, 51.83313
246.6809, 49.10632
247.1630, 47.42566
247.6451, 46.38110
248.1272, 45.98315
248.6093, 46.09351
249.0914, 46.60913
249.5736, 47.53674
250.0557, 48.41833
250.5378, 48.80298
251.0199, 48.87671
251.5020, 49.59448
251.9841, 51.89929
252.4663, 53.76917
252.9484, 53.46313
253.4305, 51.14319
253.9126, 48.04626
254.3947, 44.78223
254.8768, 41.30908
255.3590, 37.46033
255.8411, 32.95605
256.3232, 28.41589
256.8053, 24.28931
257.2874, 20.62769
257.7695, 17.10120
258.2516, 12.90002
258.7338, 8.370117
259.2159, 5.555786
259.6980, 5.652344
260.1801, 6.000854
260.6622, 4.791016
261.1443, 2.620605
261.6265, 0.9049070
262.1086, 0.5137940
262.5907, 1.255249
263.0728, 2.297729
263.5549, 4.008057
264.0370, 5.401489
264.5192, 5.673462
265.0013, 5.388306
265.4834, 5.509888
265.9655, 6.577637
266.4476, 8.467041
266.9297, 10.70190
267.4119, 13.73303
267.8940, 16.30920
268.3761, 17.48730
268.8582, 18.11865
269.3403, 19.33899
269.8224, 21.69275
270.3046, 25.01904
270.7867, 28.92249
271.2688, 33.76318
271.7509, 38.57214
272.2330, 43.40527
272.7151, 48.00854
273.1973, 52.03821
273.6794, 55.34595
274.1615, 58.32898
274.6436, 61.96326
275.1257, 66.94177
275.6078, 71.16553
276.0900, 74.50159
276.5721, 77.04688
277.0542, 78.95642
277.5363, 80.25854
278.0184, 80.68005
278.5005, 79.85901
278.9827, 78.07849
279.4648, 74.19531
279.9469, 66.87390
280.4290, 58.72559
280.9111, 51.52588
281.3932, 45.56775
281.8754, 39.94189
282.3575, 33.15271
282.8396, 23.95276
283.3217, 17.36646
283.8038, 14.80078
284.2859, 13.30347
284.7681, 11.30493
285.2502, 8.766846
285.7323, 6.660278
286.2144, 6.091553
286.6965, 7.398071
287.1786, 8.308105
287.6608, 8.988525
288.1429, 9.164307
288.6250, 8.187622
289.1071, 6.512207
289.5892, 5.304199
290.0714, 5.571533
290.5535, 7.340088
291.0356, 8.893066
291.5177, 10.82336
291.9998, 11.93103
292.4819, 11.13916
292.9641, 9.320923
293.4462, 8.114990
293.9283, 8.615601
294.4104, 10.54443
294.8925, 11.96777
295.3746, 11.34753
295.8568, 11.95374
296.3389, 15.43933
296.8210, 20.11755
297.3031, 23.55621
297.7852, 24.57532
298.2673, 24.04810
298.7495, 24.57880
299.2316, 27.21002
299.7137, 29.67731
300.1958, 31.30804
300.6779, 33.00226
301.1600, 35.72766
301.6422, 39.78784
302.1243, 44.69653
302.6064, 49.59253
303.0885, 54.60297
303.5706, 59.32831
304.0527, 64.10223
304.5349, 68.39478
305.0170, 71.91296
305.4991, 74.54822
305.9812, 76.22455
306.4633, 76.89502
306.9454, 76.71228
307.4276, 74.71497
307.9097, 71.14703
308.3918, 65.96863
308.8739, 58.20294
309.3560, 48.49274
309.8381, 38.99402
310.3203, 31.47559
310.8024, 26.07959
311.2845, 21.32202
311.7666, 17.45197
312.2487, 13.85535
312.7308, 10.24115
313.2130, 6.711426
313.6951, 3.438049
314.1772, 0.4658810
314.6593, 2.090454
315.1414, 3.272339
315.6235, 1.128357
316.1057, 0.1165770
316.5878, 0.8739620
317.0699, 3.000122
317.5520, 4.821777
318.0341, 5.695068
318.5162, 5.825134
318.9984, 5.687622
319.4805, 4.773315
319.9626, 4.255676
320.4447, 4.642273
320.9268, 5.136047
321.4089, 4.949524
321.8911, 3.894958
322.3732, 2.416809
322.8553, 1.085938
323.3374, 0.3631590
323.8195, 0.9111330
324.3016, 0.3924560
324.7838, 1.715088
325.2659, 2.074524
325.7480, 1.333435
326.2301, 0.2979740
326.7122, 2.759460
327.1943, 6.237061
327.6765, 8.870178
328.1586, 9.599854
328.6407, 10.63019
329.1228, 12.85712
329.6049, 16.04651
330.0870, 19.49756
330.5692, 22.71631
331.0513, 25.81360
331.5334, 29.59741
332.0155, 34.89886
332.4976, 40.03796
332.9797, 44.71368
333.4619, 49.12402
333.9440, 53.44812
334.4261, 57.77667
334.9082, 62.26202
335.3904, 67.29993
335.8725, 72.87653
336.3546, 79.11279
336.8367, 86.98273
337.3188, 94.87030
337.8009, 100.9996
338.2831, 105.2036
338.7652, 109.2032
339.2473, 115.2526
339.7294, 123.8757
340.2115, 133.1154
340.6936, 142.8738
341.1758, 153.2340
341.6579, 164.2709
342.1400, 175.9825
342.6221, 188.1229
343.1042, 200.3127
343.5863, 212.5456
344.0685, 226.9720
344.5506, 245.5869
345.0327, 264.4895
345.5148, 282.8129
345.9969, 300.8580
346.4790, 318.9690
346.9612, 337.3818
347.4433, 356.1968
347.9254, 376.3028
348.4075, 398.3701
348.8896, 420.4980
349.3717, 442.1115
349.8539, 463.6389
350.3360, 486.2360
350.8181, 509.9711
351.3002, 533.1829
351.7823, 553.5088
352.2644, 570.7384
352.7466, 585.6351
353.2287, 599.4019
353.7108, 610.0582
354.1929, 616.2526
354.6750, 618.1318
355.1571, 616.8292
355.6393, 613.0552
356.1214, 606.8026
356.6035, 599.0075
357.0856, 588.1303
357.5677, 577.6586
358.0498, 568.0471
358.5320, 559.6706
359.0141, 553.4124
359.4962, 550.3348
359.9783, 548.9366
360.4604, 545.2123
360.9425, 538.6133
361.4247, 530.8693
361.9068, 523.7772
362.3889, 515.2118
362.8710, 503.0851
363.3531, 486.7684
363.8352, 467.6767
364.3174, 447.2291
364.7995, 425.4510
365.2816, 401.9808
365.7637, 375.2345
366.2458, 348.0715
366.7279, 321.5566
367.2101, 296.0179
367.6922, 272.3142
368.1743, 251.1093
368.6564, 232.2203
369.1385, 215.0812
369.6206, 199.5851
370.1028, 185.8508
370.5849, 173.8593
371.0670, 163.4975
371.5491, 154.9458
372.0312, 148.4178
372.5133, 143.2877
372.9955, 139.0909
373.4776, 136.1252
373.9597, 133.4852
374.4418, 130.6254
374.9239, 127.7318
375.4060, 124.9766
375.8882, 122.2734
376.3703, 120.4890
376.8524, 120.5314
377.3345, 122.1164
377.8166, 123.7496
378.2987, 124.7799
378.7809, 126.2190
379.2630, 129.2055
379.7451, 133.6471
380.2272, 139.1475
380.7093, 145.5493
381.1914, 152.9179
381.6736, 161.2701
382.1557, 170.4708
382.6378, 180.4735
383.1199, 190.9949
383.6020, 202.5377
384.0841, 216.2955
384.5663, 233.8304
385.0484, 251.9346
385.5305, 268.9202
386.0126, 284.9780
386.4947, 301.1823
386.9768, 318.3911
387.4590, 335.0954
387.9411, 348.3872
388.4232, 360.0176
388.9053, 364.6903
389.3874, 360.6545
389.8695, 349.4343
390.3517, 331.4386
390.8338, 306.8926
391.3159, 279.2500
391.7980, 251.3320
392.2801, 222.9795
392.7622, 196.6735
393.2444, 171.3593
393.7265, 148.8705
394.2086, 130.8064
394.6907, 116.4327
395.1728, 103.6348
395.6549, 91.31635
396.1371, 79.59357
396.6192, 69.38550
397.1013, 60.98303
397.5834, 53.82306
398.0655, 48.25494
398.5476, 43.75610
399.0298, 40.17853
399.5119, 37.35449
399.9940, 34.49231
400.4761, 30.26764
400.9582, 23.59235
401.4403, 19.50354
401.9225, 20.34399
402.4046, 21.21228
402.8867, 19.77142
403.3688, 16.45044
403.8509, 12.73511
404.3330, 9.496826
404.8152, 6.826782
405.2973, 5.282410
405.7794, 5.470093
406.2615, 5.946167
406.7436, 7.034851
407.2257, 7.950012
407.7079, 7.626526
408.1900, 5.781799
408.6721, 3.641235
409.1542, 2.987183
409.6363, 4.093811
410.1184, 5.101013
410.6006, 6.088806
411.0827, 6.681335
411.5648, 6.581848
412.0469, 5.897949
412.5290, 5.022888
413.0111, 4.300415
413.4933, 3.569153
413.9754, 2.111755
414.4575, 0.5170900
414.9396, 2.662964
415.4217, 3.070496
415.9038, 2.716553
416.3860, 2.842896
416.8681, 4.022583
417.3502, 4.776367
417.8323, 2.871094
418.3144, 1.240540
418.7965, 3.481018
419.2787, 2.224365
419.7608, 0.3792720
420.2429, 2.403809
420.7250, 3.857422
421.2071, 4.140930
421.6892, 1.807190
422.1714, 1.222534
422.6535, 1.840698
423.1356, 0.1852420
423.6177, 1.625671
424.0998, 7.5011998E-02
424.5819, 4.078186
425.0641, 6.416687
425.5462, 5.486694
426.0283, 4.950134
426.5104, 6.767456
426.9925, 10.03284
427.4746, 13.03369
427.9568, 15.21521
428.4389, 16.94366
428.9210, 18.72986
429.4031, 20.49139
429.8852, 22.65216
430.3673, 25.35486
430.8495, 28.36243
431.3316, 31.62415
431.8137, 35.07098
432.2958, 38.57037
432.7779, 42.05499
433.2600, 45.51147
433.7422, 48.78418
434.2243, 51.27557
434.7064, 54.29901
435.1885, 57.63782
435.6706, 61.75397
436.1527, 67.35681
436.6349, 74.56769
437.1170, 82.52740
437.5991, 90.19879
438.0812, 97.78870
438.5633, 104.2689
439.0454, 107.2921
439.5276, 111.3668
440.0097, 118.5527
440.4918, 128.2200
440.9739, 138.8408
441.4560, 149.5879
441.9381, 160.4389
442.4203, 171.5046
442.9024, 182.8357
443.3845, 194.1334
443.8666, 205.7104
444.3487, 216.9823
444.8308, 227.6055
445.3130, 237.4912
445.7951, 246.5784
446.2772, 255.0072
446.7593, 262.6663
447.2414, 269.2023
447.7235, 275.3394
448.2057, 278.6716
448.6878, 275.2787
449.1699, 267.6328
449.6520, 261.4216
450.1341, 258.5837
450.6162, 257.2479
451.0984, 255.4682
451.5805, 253.4567
452.0626, 252.8525
452.5447, 254.3907
453.0268, 257.5627
453.5089, 261.5287
453.9911, 266.0521
454.4732, 271.5262
454.9553, 278.4775
455.4374, 286.1945
455.9195, 294.4004
456.4016, 302.9438
456.8838, 310.9983
457.3659, 318.0812
457.8480, 324.0153
458.3301, 327.1534
458.8122, 327.4253
459.2943, 325.5345
459.7765, 322.1387
460.2586, 316.5625
460.7407, 307.4746
461.2228, 294.6107
461.7049, 279.5085
462.1870, 264.1344
462.6692, 248.5280
463.1513, 232.7103
463.6334, 216.3949
464.1155, 200.4667
464.5976, 184.5546
465.0797, 169.0916
465.5619, 154.7972
466.0440, 142.2526
466.5261, 131.1745
467.0082, 120.9601
467.4903, 111.6635
467.9724, 103.0891
468.4546, 95.25977
468.9367, 88.09344
469.4188, 81.54303
469.9009, 75.53094
470.3830, 70.18561
470.8651, 66.27283
471.3473, 63.20178
471.8294, 58.30310
472.3115, 50.62891
472.7936, 43.52521
473.2757, 39.70844
473.7578, 38.07184
474.2400, 36.68701
474.7221, 35.51154
475.2042, 34.06708
475.6863, 31.77350
476.1684, 29.04279
476.6505, 27.14557
477.1327, 26.64819
477.6148, 26.29211
478.0969, 24.18445
478.5790, 19.98401
479.0611, 16.91229
479.5432, 15.98376
480.0254, 15.69556
480.5075, 15.18225
480.9896, 14.43585
481.4717, 13.65546
481.9538, 13.08258
482.4359, 12.56018
482.9181, 11.74908
483.4002, 9.815552
483.8823, 8.850769
484.3644, 9.307007
484.8465, 10.37360
485.3286, 12.00977
485.8108, 13.83466
486.2929, 14.69592
486.7750, 13.38257
487.2571, 10.26459
487.7392, 8.559082
488.2213, 8.845337
488.7035, 9.665649
489.1856, 11.06793
489.6677, 12.49127
490.1498, 13.31378
490.6319, 13.38293
491.1140, 13.14642
491.5962, 13.24371
492.0783, 13.54285
492.5604, 12.71552
493.0425, 9.840576
493.5246, 7.397949
494.0067, 8.181396
494.4889, 10.74603
494.9710, 11.76544
495.4531, 9.446960
495.9352, 6.571838
496.4173, 5.119629
496.8994, 4.939270
497.3816, 5.713196
497.8637, 7.597595
498.3458, 9.543640
498.8279, 9.845276
499.3100, 8.018799
499.7921, 6.990356
500.2743, 7.975769
500.7564, 8.914490
501.2385, 8.072205
501.7206, 5.952576
502.2027, 4.359558
502.6848, 4.364075
503.1670, 5.321838
503.6491, 5.321716
504.1312, 3.520935
504.6133, 2.101440
505.0954, 0.8290410
505.5775, 0.1549680
506.0597, 0.9373780
506.5418, 2.760315
507.0239, 3.957336
507.5060, 2.867432
507.9881, 0.2413940
508.4702, 6.1584000E-02
508.9524, 4.002625
509.4345, 6.587158
509.9166, 4.518799
510.3987, 1.179688
510.8808, 0.2704470
511.3629, 0.6734620
511.8451, 1.795227
512.3271, 1.478760
512.8093, 8.0444001E-02
513.2914, 1.640747
513.7735, 3.801270
514.2556, 5.280823
514.7377, 5.057129
515.2198, 3.503723
515.7020, 2.108032
516.1841, 0.8420410
516.6662, 0.1660160
517.1483, 0.9304200
517.6304, 1.375732
518.1125, 1.130493
518.5947, 0.1294560
519.0768, 0.6574710
519.5589, 3.1920999E-02
520.0410, 2.538757
520.5231, 3.180542
521.0052, 8.2213998E-02
521.4874, 2.468018
521.9695, 2.814819
522.4516, 1.890442
522.9337, 0.9631960
523.4158, 0.5243530
523.8979, 0.4713130
524.3801, 0.7370000
524.8622, 1.409119
525.3443, 1.916016
525.8264, 2.368042
526.3085, 2.485046
526.7906, 1.863464
527.2728, 0.8764650
527.7549, 0.3078000
528.2370, 0.6787110
528.7191, 1.135376
529.2012, 0.3499760
529.6833, 1.568665
530.1655, 3.045654
530.6476, 3.720032
531.1297, 3.763916
531.6118, 3.027832
532.0939, 1.649719
532.5760, 0.7460940
533.0582, 0.9127810
533.5403, 1.302307
534.0224, 1.040527
534.5045, 0.4489750
534.9866, 0.7619020
535.4688, 2.625183
535.9509, 4.873169
536.4330, 5.229248
536.9151, 2.180969
537.3972, 0.9249880
537.8793, 3.310791
538.3615, 5.618225
538.8436, 5.283142
539.3257, 3.188660
539.8078, 1.874207
540.2899, 2.844238
540.7720, 4.927246
541.2542, 5.282166
541.7363, 3.288025
542.2184, 1.620605
542.7005, 0.1545410
543.1826, 0.3787230
543.6647, 1.090698
544.1469, 4.033203
544.6290, 6.446167
545.1111, 7.294312
545.5932, 7.061890
546.0753, 6.213440
546.5574, 4.779846
547.0396, 3.498474
547.5217, 2.588623
548.0038, 2.049438
548.4859, 1.994080
548.9680, 2.462280
549.4501, 2.856018
549.9323, 3.039246
550.4144, 3.137756
550.8965, 3.098938
551.3786, 3.044739
551.8607, 3.375061
552.3428, 4.337524
552.8250, 5.641174
553.3071, 6.589172
553.7892, 7.285706
554.2713, 7.394958
554.7534, 6.500488
555.2355, 5.486145
555.7177, 4.786560
556.1998, 4.400879
556.6819, 4.194092
557.1640, 4.126465
557.6461, 4.111450
558.1282, 3.904968
558.6104, 3.442200
559.0925, 3.218262
559.5746, 3.382507
560.0567, 3.801636
560.5388, 4.473389
561.0209, 5.330811
561.5031, 5.912598
561.9852, 5.949158
562.4673, 5.693176
562.9494, 4.866455
563.4315, 3.798218
563.9136, 4.489197
564.3958, 8.202332
564.8779, 12.56879
565.3600, 13.30145
565.8421, 8.310425
566.3242, 5.568420
566.8063, 6.939392
567.2885, 8.779053
567.7706, 8.907349
568.2527, 7.922424
568.7348, 7.516235
569.2169, 8.633972
569.6990, 10.32776
570.1812, 10.66217
570.6633, 9.130676
571.1454, 8.102783
571.6275, 8.080505
572.1096, 8.280823
572.5917, 8.739319
573.0739, 9.269226
573.5560, 9.247620
574.0381, 8.223633
574.5202, 6.913452
575.0023, 5.952942
575.4844, 5.334106
575.9666, 5.143311
576.4487, 5.439941
576.9308, 5.940308
577.4129, 6.599365
577.8950, 7.395752
578.3771, 7.742249
578.8593, 7.077637
579.3414, 6.350037
579.8235, 6.268127
580.3056, 6.631104
580.7877, 6.978943
581.2698, 7.137756
581.7520, 7.246094
582.2341, 7.523865
582.7162, 7.994385
583.1984, 8.134338
583.6805, 7.754211
584.1626, 7.292297
584.6447, 6.781311
585.1268, 6.383972
585.6089, 6.372803
586.0911, 6.776550
586.5732, 6.947754
587.0553, 5.988831
587.5374, 4.334412
588.0195, 3.856567
588.5016, 4.954712
588.9838, 5.933899
589.4659, 5.575623
589.9480, 4.342163
590.4301, 3.752197
590.9122, 4.438049
591.3943, 4.535828
591.8765, 2.396912
592.3586, 1.9470001E-02
592.8407, 0.1083980
593.3228, 2.008362
593.8049, 4.531921
594.2870, 6.207397
594.7692, 7.010864
595.2513, 6.750610
595.7334, 3.930176
596.2155, 2.812134
596.6976, 5.290100
597.1797, 8.179993
597.6619, 9.338806
598.1440, 8.866028
598.6261, 8.103149
599.1082, 7.747253
599.5903, 7.666809
600.0724, 7.663940
600.5546, 7.724365
601.0367, 7.850708
601.5188, 8.145081
602.0009, 8.454712
602.4830, 8.451416
602.9651, 8.124756
603.4473, 8.317261
603.9294, 9.823914
604.4115, 11.21948
604.8936, 11.64124
605.3757, 11.30096
605.8578, 10.50916
606.3400, 9.409424
606.8221, 8.447815
607.3042, 8.286072
607.7863, 9.038818
608.2684, 9.894165
608.7505, 11.57678
609.2327, 12.48065
609.7148, 11.65155
610.1969, 10.03400
610.6790, 8.704895
611.1611, 7.950562
611.6432, 7.669373
612.1254, 7.985779
612.6075, 8.697021
613.0896, 9.200623
613.5717, 9.457336
614.0538, 9.433167
614.5359, 9.033569
615.0181, 8.364197
615.5002, 7.662781
615.9823, 6.474731
616.4644, 6.209045
616.9465, 8.222290
617.4286, 10.47241
617.9108, 10.99347
618.3929, 10.03784
618.8750, 9.063965
619.3571, 8.959717
619.8392, 9.542236
620.3214, 10.41467
620.8035, 11.74542
621.2856, 12.84839
621.7677, 13.45801
622.2498, 14.03540
622.7319, 14.93616
623.2141, 15.98370
623.6962, 16.65814
624.1783, 16.50604
624.6604, 16.37390
625.1425, 17.35565
625.6246, 19.06085
626.1068, 20.06982
626.5889, 20.01617
627.0710, 19.78369
627.5531, 20.15570
628.0352, 21.10608
628.5173, 22.20258
628.9995, 23.27576
629.4816, 24.68756
629.9637, 26.61304
630.4458, 28.82709
630.9279, 31.23340
631.4100, 33.74817
631.8922, 36.13629
632.3743, 38.04816
632.8564, 39.78577
633.3385, 42.59735
633.8206, 46.71600
634.3027, 50.95691
634.7849, 54.74860
635.2670, 58.77563
635.7491, 63.55585
636.2312, 69.11682
636.7133, 75.43268
637.1954, 84.74255
637.6776, 92.84308
638.1597, 96.23596
638.6418, 95.76367
639.1239, 93.45337
639.6060, 89.98566
640.0881, 85.20557
640.5703, 78.79468
641.0524, 70.61847
641.5345, 62.71234
642.0166, 54.01337
642.4987, 47.06964
642.9808, 43.49353
643.4630, 41.15289
643.9451, 37.67401
644.4272, 32.83118
644.9093, 28.69342
645.3914, 27.20868
645.8735, 27.53320
646.3557, 27.81616
646.8378, 28.02087
647.3199, 27.79614
647.8020, 26.79364
648.2841, 25.59436
648.7662, 25.12677
649.2484, 25.47357
649.7305, 26.15454
650.2126, 27.76050
650.6947, 28.92017
651.1768, 28.55310
651.6589, 27.42413
652.1411, 26.60687
652.6232, 26.50208
653.1053, 27.25696
653.5874, 29.58569
654.0695, 33.51941
654.5516, 35.22882
655.0338, 33.48694
655.5159, 32.01404
655.9980, 32.85217
656.4801, 34.60443
656.9622, 35.71021
657.4443, 35.97363
657.9265, 36.64447
658.4086, 38.72760
658.8907, 40.91254
659.3728, 41.83636
659.8549, 41.88397
660.3370, 42.09503
660.8192, 42.83264
661.3013, 43.82544
661.7834, 44.70038
662.2655, 45.37933
662.7476, 46.25116
663.2297, 47.50793
663.7119, 48.37177
664.1940, 48.80609
664.6761, 49.08759
665.1582, 49.29541
665.6403, 49.35596
666.1224, 49.19086
666.6046, 48.98535
667.0867, 48.56476
667.5688, 47.00098
668.0509, 44.17084
668.5330, 42.08008
669.0151, 42.04901
669.4973, 42.91937
669.9794, 42.28766
670.4615, 39.33301
670.9436, 37.17932
671.4257, 36.09912
671.9078, 35.62006
672.3900, 35.78882
672.8721, 36.18158
673.3542, 36.16034
673.8363, 35.52271
674.3184, 34.81238
674.8005, 34.71606
675.2827, 35.19104
675.7648, 35.71375
676.2469, 36.39447
676.7290, 36.66553
677.2111, 36.14929
677.6932, 35.11371
678.1754, 34.08527
678.6575, 33.12396
679.1396, 31.86353
679.6217, 29.95483
680.1038, 27.94202
680.5859, 25.82080
681.0681, 23.98352
681.5502, 23.52753
682.0323, 24.83044
682.5144, 26.53467
682.9965, 26.54016
683.4786, 24.71594
683.9608, 23.19153
684.4429, 21.89050
684.9250, 21.01300
685.4071, 21.09888
685.8892, 21.41602
686.3713, 21.00232
686.8535, 19.70209
687.3356, 18.91022
687.8177, 19.86096
688.2998, 21.08502
688.7819, 20.93597
689.2640, 19.72723
689.7462, 18.73560
690.2283, 18.47711
690.7104, 18.41821
691.1925, 17.76379
691.6746, 16.42645
692.1567, 15.28351
692.6389, 14.41846
693.1210, 13.63690
693.6031, 12.85974
694.0852, 12.15283
694.5673, 11.53052
695.0494, 11.01086
695.5316, 10.76483
696.0137, 10.98291
696.4958, 11.47473
696.9779, 12.20282
697.4600, 13.03217
697.9421, 13.42596
698.4243, 13.20844
698.9064, 12.32330
699.3885, 10.47150
699.8706, 7.462769
700.3527, 5.988831
700.8348, 7.822754
701.3170, 9.036011
701.7991, 8.572083
702.2812, 7.437317
702.7633, 6.387939
703.2454, 5.596497
703.7275, 5.143494
704.2097, 5.269226
704.6918, 5.597229
705.1739, 5.619690
705.6560, 5.337769
706.1381, 4.611389
706.6202, 3.291687
707.1024, 2.142578
707.5845, 2.064575
708.0666, 3.027710
708.5487, 3.333069
709.0308, 2.277283
709.5129, 1.523071
709.9951, 1.366699
710.4772, 1.558289
710.9593, 2.090942
711.4414, 2.797424
711.9235, 3.226624
712.4056, 3.091187
712.8878, 2.607483
713.3699, 2.100769
713.8520, 1.552673
714.3341, 0.6511230
714.8162, 0.8380130
715.2983, 1.684692
715.7805, 0.4208980
716.2626, 2.335693
716.7447, 2.989502
717.2268, 0.4480590
717.7089, 2.980713
718.1910, 3.575195
718.6732, 3.691406
719.1553, 4.767883
719.6374, 6.224609
720.1195, 6.131775
720.6016, 3.333435
721.0837, 0.1859740
721.5659, 0.3127440
722.0480, 3.034668
722.5301, 4.457947
723.0122, 4.021423
723.4943, 3.427246
723.9764, 3.775879
724.4586, 4.583862
724.9407, 4.561157
725.4228, 3.259888
725.9049, 2.259766
726.3870, 1.622498
726.8691, 1.331055
727.3513, 1.460266
727.8334, 1.905518
728.3155, 2.681580
728.7976, 3.755798
729.2797, 4.511719
729.7618, 4.101318
730.2440, 2.836914
730.7261, 1.839294
731.2082, 1.148010
731.6903, 0.4721680
732.1724, 0.3771360
732.6545, 1.123657
733.1367, 1.223511
733.6188, 0.4304810
734.1009, 0.4784550
734.5830, 2.277710
735.0651, 3.821167
735.5472, 4.528076
736.0294, 4.551636
736.5115, 3.778381
736.9936, 2.410339
737.4757, 1.396484
737.9578, 1.752441
738.4399, 2.622742
738.9221, 2.104248
739.4042, 0.2934570
739.8863, 1.309875
740.3684, 2.368713
740.8505, 3.020081
741.3326, 3.288696
741.8148, 3.224121
742.2969, 3.382629
742.7790, 3.793762
743.2611, 4.359009
743.7432, 5.476013
744.2253, 6.401672
744.7075, 6.631042
745.1896, 6.184387
745.6717, 5.220215
746.1538, 3.753540
746.6359, 2.080139
747.1180, 0.3978270
747.6002, 1.209717
748.0823, 2.423218
748.5644, 3.199463
749.0465, 3.889343
749.5286, 4.751404
750.0107, 5.589111
750.4929, 5.918884
750.9750, 5.440430
751.4571, 5.203613
751.9392, 5.862366
752.4213, 6.016235
752.9034, 4.460815
753.3856, 2.366943
753.8677, 1.379456
754.3498, 1.854004
754.8319, 2.787354
755.3140, 3.961060
755.7961, 4.839417
756.2783, 3.975037
756.7604, 1.772400
757.2425, 0.6917720
757.7246, 1.563293
758.2067, 3.363464
758.6888, 5.063416
759.1710, 6.643005
759.6531, 7.744873
760.1352, 7.426697
760.6173, 8.031982
761.0994, 11.23450
761.5815, 14.31604
762.0637, 14.77240
762.5458, 13.27441
763.0279, 12.58307
763.5100, 13.80817
763.9921, 16.05914
764.4742, 19.08270
764.9564, 22.44305
765.4385, 25.25464
765.9206, 27.55109
766.4027, 29.90851
766.8848, 32.58099
767.3669, 35.78094
767.8491, 40.19208
768.3312, 46.34979
768.8133, 51.83649
769.2954, 56.47449
769.7775, 60.57306
770.2596, 63.55042
770.7418, 66.41559
771.2239, 70.51794
771.7060, 76.07336
772.1881, 82.16504
772.6702, 88.80505
773.1523, 95.48969
773.6345, 101.4871
774.1166, 107.4597
774.5987, 114.6296
775.0808, 123.0944
775.5629, 131.8907
776.0450, 140.2430
776.5272, 148.2136
777.0093, 155.7278
777.4914, 162.5891
777.9735, 170.0104
778.4556, 178.2108
778.9377, 187.7048
779.4199, 199.6121
779.9020, 213.0547
780.3841, 224.7300
780.8662, 233.4058
781.3483, 242.2584
781.8304, 253.0598
782.3126, 263.3994
782.7947, 271.4045
783.2768, 277.3918
783.7589, 282.5450
784.2410, 287.4171
784.7231, 290.8113
785.2053, 291.4007
785.6874, 289.2660
786.1695, 284.8516
786.6516, 278.1852
787.1337, 268.4640
787.6158, 254.9991
788.0980, 239.4748
788.5801, 224.1899
789.0622, 209.3334
789.5443, 193.9102
790.0264, 176.5753
790.5085, 160.4758
790.9907, 146.4067
791.4728, 133.7595
791.9549, 122.1229
792.4370, 111.4453
792.9191, 101.6232
793.4012, 92.69226
793.8834, 84.62842
794.3655, 77.45227
794.8476, 71.10767
795.3297, 65.42609
795.8118, 60.39142
796.2939, 56.41113
796.7761, 53.83685
797.2582, 52.08044
797.7403, 49.61444
798.2224, 46.05225
798.7045, 43.23364
799.1866, 40.16382
799.6688, 39.50519
800.1509, 44.27533
800.6330, 51.21887
801.1151, 56.25476
801.5972, 58.90796
802.0793, 62.61676
802.5615, 69.10797
803.0436, 76.19861
803.5257, 81.93597
804.0078, 87.67615
804.4899, 95.46808
804.9720, 105.5663
805.4542, 116.8630
805.9363, 128.6081
806.4184, 140.6945
806.9005, 152.9571
807.3826, 165.3803
807.8647, 177.2703
808.3469, 187.9958
808.8290, 200.5730
809.3111, 217.3970
809.7932, 237.4484
810.2753, 257.4209
810.7574, 277.0715
811.2396, 297.4825
811.7217, 319.9066
812.2038, 341.7472
812.6859, 362.6307
813.1680, 382.0476
813.6501, 399.8718
814.1323, 415.9997
814.6144, 428.3804
815.0965, 436.0402
815.5786, 439.1091
816.0607, 436.8983
816.5428, 430.2498
817.0250, 420.7347
817.5071, 408.9221
817.9892, 396.1086
818.4713, 383.1633
818.9534, 370.3062
819.4355, 357.8396
819.9177, 344.8484
820.3998, 336.5056
820.8819, 334.8060
821.3640, 335.3759
821.8461, 334.8341
822.3282, 335.1141
822.8104, 340.0309
823.2925, 350.2946
823.7746, 362.8209
824.2567, 377.9319
824.7388, 394.2706
825.2209, 410.2494
825.7031, 427.3788
826.1852, 447.6860
826.6673, 471.5308
827.1494, 497.9819
827.6315, 525.7191
828.1136, 556.0905
828.5958, 590.7208
829.0779, 630.1544
829.5600, 677.2771
830.0421, 732.6586
830.5242, 795.0509
831.0063, 863.0552
831.4885, 938.3494
831.9706, 1025.630
832.4527, 1127.028
832.9348, 1235.317
833.4169, 1351.835
833.8990, 1473.760
834.3812, 1605.672
834.8633, 1739.207
835.3454, 1870.932
835.8275, 2000.449
836.3096, 2101.855
836.7917, 2173.293
837.2739, 2206.262
837.7560, 2194.207
838.2381, 2141.112
838.7202, 2045.874
839.2023, 1913.800
839.6844, 1760.858
840.1666, 1595.526
840.6487, 1426.091
841.1308, 1265.507
841.6129, 1114.334
842.0950, 978.7836
842.5771, 859.2736
843.0593, 753.9557
843.5414, 662.3195
844.0235, 583.3033
844.5056, 514.5634
844.9877, 457.2590
845.4698, 405.7380
845.9520, 360.7520
846.4341, 320.7357
846.9162, 286.2358
847.3983, 255.7993
847.8804, 228.3789
848.3625, 203.8234
848.8447, 181.6642
849.3268, 161.8507
849.8089, 144.2772
850.2910, 129.1611
850.7731, 115.9670
851.2552, 104.1874
851.7374, 93.71747
852.2195, 84.52496
852.7016, 76.60400
853.1837, 69.41180
853.6658, 62.08362
854.1479, 54.86682
854.6301, 48.63507
855.1122, 43.41907
855.5943, 40.03064
856.0764, 39.15680
856.5585, 38.78613
857.0406, 36.59344
857.5228, 32.84436
858.0049, 30.54193
858.4870, 29.80579
858.9691, 30.39954
859.4512, 32.85242
859.9333, 36.03888
860.4155, 39.44379
860.8976, 43.16046
861.3797, 47.42609
861.8618, 52.33154
862.3439, 57.83069
862.8260, 63.86426
863.3082, 70.54956
863.7903, 78.04169
864.2724, 86.26416
864.7545, 94.95789
865.2366, 104.0383
865.7188, 113.8608
866.2009, 124.9009
866.6830, 136.7426
867.1651, 148.1198
867.6472, 159.3806
868.1293, 172.7807
868.6115, 188.6873
869.0936, 206.1844
869.5757, 224.4851
870.0578, 244.4525
870.5399, 268.0663
871.0220, 295.5795
871.5042, 325.3191
871.9863, 356.2299
872.4684, 390.8754
872.9505, 430.4637
873.4326, 473.8555
873.9147, 521.4150
874.3969, 572.3976
874.8790, 622.0076
875.3611, 673.5945
875.8432, 717.6983
876.3253, 754.8553
876.8074, 780.2079
877.2896, 790.6196
877.7717, 785.6299
878.2538, 764.2122
878.7359, 726.0731
879.2180, 676.6648
879.7001, 616.1282
880.1823, 549.8840
880.6644, 485.8796
881.1465, 424.8876
881.6286, 369.2809
882.1107, 319.7737
882.5928, 275.6505
883.0750, 236.9528
883.5571, 203.2836
884.0392, 173.5337
884.5213, 147.8693
885.0034, 126.4586
885.4855, 110.6016
885.9677, 96.47546
886.4498, 82.02271
886.9319, 68.34991
887.4140, 57.63373
887.8961, 50.32355
888.3782, 43.25055
888.8604, 35.55298
889.3425, 29.16028
889.8246, 25.32190
890.3067, 22.37170
890.7888, 18.80640
891.2709, 14.76147
891.7531, 11.16107
892.2352, 8.355591
892.7173, 6.149109
893.1994, 4.443665
893.6815, 3.153381
894.1636, 2.271118
894.6458, 1.752930
895.1279, 1.656189
895.6100, 1.944763
896.0921, 2.153564
896.5742, 1.765930
897.0563, 0.9776000
897.5385, 0.3754880
898.0206, 0.1203000
898.5027, 0.9707030
898.9848, 2.282959
899.4669, 3.029236
899.9490, 2.453674
900.4312, 1.118530
900.9133, 0.4014280
901.3954, 0.6978150
901.8775, 0.2919310
902.3596, 3.868835
902.8417, 6.563599
903.3239, 6.627991
903.8060, 5.894653
904.2881, 6.299377
904.7702, 7.564392
905.2523, 7.847351
905.7344, 6.025330
906.2166, 4.556641
906.6987, 4.331421
907.1808, 4.341980
907.6629, 3.746582
908.1450, 2.913940
908.6271, 2.706543
909.1093, 3.322876
909.5914, 3.856567
910.0735, 3.552124
910.5556, 2.968445
911.0377, 2.638306
911.5198, 2.528198
912.0020, 2.417542
912.4841, 2.356934
912.9662, 3.017822
913.4483, 4.940552
913.9304, 7.144897
914.4125, 8.010986
914.8947, 7.612854
915.3768, 6.319641
915.8589, 4.100403
916.3410, 2.314209
916.8231, 1.484192
917.3052, 1.204224
917.7874, 1.161194
918.2695, 1.252869
918.7516, 0.5594480
919.2337, 1.211182
919.7158, 3.063538
920.1979, 4.936279
920.6801, 6.837708
921.1622, 9.333069
921.6443, 11.64722
922.1264, 12.27899
922.6085, 10.91962
923.0906, 9.842957
923.5728, 9.912354
924.0549, 9.637146
924.5370, 7.866882
925.0191, 5.964539
925.5012, 5.441528
925.9833, 5.980591
926.4655, 6.242004
926.9476, 5.779419
927.4297, 4.747009
927.9118, 2.739197
928.3939, 0.6428220
928.8760, 0.4239500
929.3582, 0.8018800
929.8403, 1.339355
930.3224, 2.265381
930.8045, 3.348022
931.2866, 4.453796
931.7687, 5.500977
932.2509, 6.285950
932.7330, 6.875732
933.2151, 7.604248
933.6972, 8.495605
934.1793, 9.235168
934.6614, 9.692932
935.1436, 9.755188
935.6257, 9.108765
936.1078, 7.831055
936.5899, 7.670715
937.0720, 9.130493
937.5541, 9.597107
938.0363, 8.151611
938.5184, 6.407471
939.0005, 5.607971
939.4826, 5.334167
939.9647, 4.291809
940.4468, 1.747559
940.9290, 0.4600220
941.4111, 1.519104
941.8932, 2.382263
942.3753, 2.140625
942.8574, 1.533630
943.3395, 1.282410
943.8217, 1.326965
944.3038, 1.163635
944.7859, 0.5662840
945.2680, 3.5034001E-02
945.7501, 0.5025630
946.2322, 0.8947140
946.7144, 1.357178
947.1965, 1.729065
947.6786, 1.807068
948.1607, 1.525391
948.6428, 0.7935790
949.1249, 0.8912960
949.6071, 2.456116
950.0892, 2.292847
950.5713, 1.509521
951.0534, 2.179016
951.5355, 4.132507
952.0176, 5.902222
952.4998, 6.820251
952.9819, 6.815308
953.4640, 5.244324
953.9461, 2.866699
954.4282, 1.938904
954.9103, 2.382996
955.3925, 3.980469
955.8746, 6.694092
956.3567, 8.726013
956.8388, 8.725464
957.3209, 7.573425
957.8030, 7.162292
958.2852, 7.559021
958.7673, 8.108643
959.2494, 8.939331
959.7315, 9.326843
960.2136, 8.863525
960.6957, 8.237122
961.1779, 8.070679
961.6600, 8.314087
962.1421, 8.715088
962.6242, 9.375671
963.1063, 9.994568
963.5884, 10.38519
964.0706, 10.96161
964.5527, 12.17401
965.0348, 13.45203
965.5169, 14.14935
965.9990, 14.27826
966.4811, 14.28119
966.9633, 14.09558
967.4454, 13.94995
967.9275, 13.87988
968.4096, 13.88269
968.8917, 13.67664
969.3738, 13.64862
969.8560, 14.69391
970.3381, 16.92535
970.8202, 18.62769
971.3023, 18.60431
971.7844, 18.22430
972.2665, 18.36133
972.7487, 18.67212
973.2308, 18.72650
973.7129, 18.56128
974.1950, 18.32501
974.6771, 18.07794
975.1592, 18.23572
975.6414, 19.40558
976.1235, 21.03076
976.6056, 22.65796
977.0877, 23.98010
977.5698, 24.03894
978.0519, 22.93762
978.5341, 22.18433
979.0162, 22.66467
979.4983, 23.59216
979.9804, 23.83740
980.4625, 23.76532
980.9446, 24.67200
981.4268, 26.31934
981.9089, 26.60046
982.3910, 25.02930
982.8731, 23.47485
983.3552, 23.44440
983.8373, 24.09351
984.3195, 23.16486
984.8016, 20.56537
985.2837, 19.66119
985.7658, 20.92914
986.2479, 22.10791
986.7300, 22.31561
987.2122, 22.24872
987.6943, 22.71600
988.1764, 23.51733
988.6585, 23.52625
989.1406, 22.43427
989.6227, 21.42261
990.1049, 20.38757
990.5870, 19.70172
991.0691, 19.68225
991.5512, 19.93378
992.0333, 20.02081
992.5154, 19.94623
992.9976, 19.75305
993.4797, 19.29022
993.9618, 18.92950
994.4439, 18.53247
994.9260, 18.43011
995.4081, 18.83990
995.8903, 19.60284
996.3724, 20.67499
996.8545, 22.02728
997.3366, 22.92041
997.8187, 22.83008
998.3008, 22.66357
998.7830, 22.88281
999.2651, 23.11292
999.7472, 22.97809
1000.229, 22.53326
1000.711, 21.82538
1001.194, 20.91260
1001.676, 20.49854
1002.158, 21.14154
1002.640, 22.01031
1003.122, 23.03766
1003.604, 23.75378
1004.086, 23.66797
1004.568, 22.85583
1005.050, 21.36731
1005.533, 19.27039
1006.015, 17.79602
1006.497, 18.82062
1006.979, 19.95227
1007.461, 18.05377
1007.943, 14.98053
1008.425, 13.64606
1008.907, 14.20172
1009.390, 15.62640
1009.872, 17.47748
1010.354, 19.20648
1010.836, 20.30951
1011.318, 20.84149
1011.800, 20.95538
1012.282, 20.66351
1012.764, 19.61200
1013.246, 18.05896
1013.729, 17.29639
1014.211, 17.92102
1014.693, 18.78064
1015.175, 18.43640
1015.657, 17.27002
1016.139, 16.22504
1016.621, 15.30542
1017.103, 14.53516
1017.586, 13.90149
1018.068, 13.28894
1018.550, 12.61334
1019.032, 11.80975
1019.514, 10.61395
1019.996, 9.209351
1020.478, 9.071472
1020.960, 10.16498
1021.442, 11.35681
1021.925, 12.43964
1022.407, 12.65900
1022.889, 11.28894
1023.371, 9.420166
1023.853, 9.492798
1024.335, 11.53046
1024.817, 12.24951
1025.299, 11.45264
1025.781, 10.80371
1026.264, 10.66168
1026.746, 10.85345
1027.228, 11.25653
1027.710, 11.92004
1028.192, 13.15637
1028.674, 15.23761
1029.156, 15.24084
1029.638, 12.26849
1030.120, 10.28119
1030.603, 10.58118
1031.085, 11.43268
1031.567, 11.49768
1032.049, 11.12103
1032.531, 11.23108
1033.013, 11.95251
1033.495, 12.69128
1033.977, 13.68372
1034.460, 14.18494
1034.942, 13.92340
1035.424, 13.24677
1035.906, 12.20001
1036.388, 10.96851
1036.870, 10.13928
1037.352, 9.888000
1037.834, 9.448914
1038.317, 8.431519
1038.799, 7.820435
1039.281, 7.949890
1039.763, 8.444275
1040.245, 9.334473
1040.727, 10.33215
1041.209, 10.54266
1041.691, 9.543274
1042.173, 9.098938
1042.656, 10.14856
1043.138, 10.50897
1043.620, 8.947876
1044.102, 7.165588
1044.584, 6.398438
1045.066, 6.411377
1045.548, 6.625427
1046.030, 7.151978
1046.512, 7.269897
1046.995, 6.291077
1047.477, 5.700012
1047.959, 6.207886
1048.441, 7.016907
1048.923, 7.808594
1049.405, 8.340637
1049.887, 7.884583
1050.369, 5.959534
1050.852, 5.176453
1051.334, 7.490295
1051.816, 9.105713
1052.298, 7.704651
1052.780, 6.014648
1053.262, 6.767761
1053.744, 8.862610
1054.226, 9.606628
1054.708, 8.508118
1055.191, 6.619019
1055.673, 2.718750
1056.155, 2.1729000E-02
1056.637, 0.4886470
1057.119, 2.016052
1057.601, 3.261719
1058.083, 4.067383
1058.565, 4.390259
1059.047, 4.197998
1059.530, 3.919861
1060.012, 3.760864
1060.494, 3.468567
1060.976, 2.895935
1061.458, 2.185913
1061.940, 1.238770
1062.422, 0.3198850
1062.904, 0.1622310
1063.387, 0.1257320
1063.869, 0.4337160
1064.351, 2.763062
1064.833, 4.012939
1065.315, 1.675781
1065.797, 1.119934
1066.279, 1.622253
1066.761, 0.6815800
1067.244, 0.1641240
1067.726, 0.3786620
1068.208, 0.2699580
1068.690, 1.345215
1069.172, 2.359619
1069.654, 1.343994
1070.136, 0.2034300
1070.618, 1.488586
1071.100, 2.257263
1071.583, 2.064087
1072.065, 0.9727780
1072.547, 1.3123000E-02
1073.029, 0.4971310
1073.511, 0.7896120
1073.993, 1.207092
1074.475, 1.313232
1074.957, 0.2241210
1075.439, 1.095947
1075.922, 1.213745
1076.404, 4.6753000E-02
1076.886, 1.520203
1077.368, 3.620178
1077.850, 5.006226
1078.332, 4.621338
1078.814, 3.841858
1079.297, 3.557495
1079.779, 3.555542
1080.261, 3.497864
1080.743, 3.350952
1081.225, 3.290894
1081.707, 3.516052
1082.189, 3.403870
1082.671, 1.777954
1083.153, 0.6986080
1083.635, 2.228760
1084.118, 4.538025
1084.600, 5.691284
1085.082, 5.598511
1085.564, 4.584106
1086.046, 2.384888
1086.528, 1.277344
1087.010, 3.233337
1087.492, 5.335083
1087.975, 6.037354
1088.457, 6.023987
1088.939, 6.151672
1089.421, 6.184814
1089.903, 5.040833
1090.385, 2.306213
1090.867, 0.7003170
1091.349, 2.807129
1091.832, 4.282166
1092.314, 1.918457
1092.796, 0.8128050
1093.278, 0.5068970
1093.760, 1.522217
1094.242, 2.270935
1094.724, 1.252563
1095.206, 0.7490840
1095.688, 1.795898
1096.171, 3.044495
1096.653, 4.199646
1097.135, 5.223145
1097.617, 6.004150
1098.099, 6.687561
1098.581, 7.605286
1099.063, 8.724731
1099.545, 9.360718
1100.027, 8.619873
1100.510, 8.623413
1100.992, 10.27307
1101.474, 12.38782
1101.956, 14.67889
1102.438, 16.83087
1102.920, 18.42023
1103.402, 19.54529
1103.884, 20.73615
1104.367, 21.69257
1104.849, 23.66028
1105.331, 27.95544
1105.813, 31.90808
1106.295, 34.05042
1106.777, 35.78967
1107.259, 38.43835
1107.741, 41.71503
1108.224, 44.58185
1108.706, 46.71545
1109.188, 49.37622
1109.670, 53.20520
1110.152, 56.79736
1110.634, 60.22321
1111.116, 62.94080
1111.598, 64.73633
1112.080, 65.53778
1112.563, 65.01599
1113.045, 62.96161
1113.527, 61.79425
1114.009, 63.15436
1114.491, 62.64972
1114.973, 58.95959
1115.455, 54.60577
1115.937, 50.52649
1116.419, 46.63947
1116.902, 42.91510
1117.384, 39.34296
1117.866, 35.56390
1118.348, 30.98584
1118.830, 27.63519
1119.312, 26.14636
1119.794, 24.75623
1120.276, 22.88953
1120.759, 20.82770
1121.241, 18.77490
1121.723, 16.75842
1122.205, 14.78223
1122.687, 12.65399
1123.169, 11.43213
1123.651, 11.33301
1124.133, 11.29755
1124.615, 11.12213
1125.098, 10.97870
1125.580, 10.98279
1126.062, 11.11212
1126.544, 11.40155
1127.026, 11.82959
1127.508, 11.38379
1127.990, 9.856323
1128.472, 9.298767
1128.954, 10.15906
1129.437, 11.12244
1129.919, 11.57770
1130.401, 11.71313
1130.883, 11.68604
1131.365, 11.63995
1131.847, 12.30591
1132.329, 13.62561
1132.811, 14.47754
1133.294, 14.76129
1133.776, 14.67694
1134.258, 14.31348
1134.740, 14.04364
1135.222, 14.24927
1135.704, 14.51874
1136.186, 13.97937
1136.668, 12.82416
1137.151, 11.81256
1137.633, 10.92670
1138.115, 9.923706
1138.597, 8.779236
1139.079, 7.636475
1139.561, 6.580322
1140.043, 5.699829
1140.525, 5.286499
1141.007, 5.047974
1141.490, 3.993286
1141.972, 2.723755
1142.454, 2.907898
1142.936, 4.287659
1143.418, 5.359680
1143.900, 5.605957
1144.382, 5.555237
1144.864, 5.627197
1145.346, 5.561401
1145.829, 4.808838
1146.311, 4.063110
1146.793, 4.265686
1147.275, 5.177185
1147.757, 6.358337
1148.239, 7.557983
1148.721, 8.294067
1149.203, 8.337341
1149.686, 8.354797
1150.168, 9.073120
1150.650, 9.581909
1151.132, 9.127563
1151.614, 8.240295
1152.096, 7.192200
1152.578, 6.313354
1153.060, 6.268372
1153.542, 7.233032
1154.025, 8.202148
1154.507, 8.599304
1154.989, 9.260559
1155.471, 10.86847
1155.953, 12.40411
1156.435, 13.10663
1156.917, 13.39148
1157.399, 14.06415
1157.881, 15.02869
1158.364, 15.03973
1158.846, 13.34332
1159.328, 11.89606
1159.810, 10.51727
1160.292, 9.842163
1160.774, 10.96863
1161.256, 11.85089
1161.738, 10.59638
1162.221, 8.064514
1162.703, 6.263428
1163.185, 5.222595
1163.667, 4.802795
1164.149, 5.475220
1164.631, 5.306335
1165.113, 3.655823
1165.595, 2.130737
1166.078, 1.426086
1166.560, 1.575623
1167.042, 2.928284
1167.524, 4.897461
1168.006, 4.321411
1168.488, 1.056763
1168.970, 0.6426390
1169.452, 0.5239870
1169.934, 0.2893680
1170.417, 0.4325560
1170.899, 0.5349730
1171.381, 0.3292240
1171.863, 0.3385620
1172.345, 2.004517
1172.827, 4.286621
1173.309, 5.859253
1173.791, 6.815857
1174.273, 7.405823
1174.756, 7.749329
1175.238, 8.028320
1175.720, 8.364136
1176.202, 9.343689
1176.684, 11.63098
1177.166, 14.50116
1177.648, 17.61926
1178.130, 20.35059
1178.613, 21.44751
1179.095, 21.56866
1179.577, 21.94189
1180.059, 22.86877
1180.541, 24.32526
1181.023, 26.33215
1181.505, 28.65497
1181.987, 31.58551
1182.469, 34.28247
1182.952, 36.03339
1183.434, 37.41602
1183.916, 39.03271
1184.398, 40.72400
1184.880, 42.11401
1185.362, 43.14240
1185.844, 43.80115
1186.326, 44.25208
1186.808, 44.07013
1187.291, 43.01685
1187.773, 41.51678
1188.255, 39.48944
1188.737, 37.32581
1189.219, 35.55267
1189.701, 33.88190
1190.183, 31.28943
1190.665, 27.40894
1191.148, 24.51770
1191.630, 22.96680
1192.112, 21.46759
1192.594, 19.99792
1193.076, 17.95160
1193.558, 14.91626
1194.040, 11.38458
1194.522, 7.813599
1195.005, 4.499023
1195.487, 2.793091
1195.969, 2.655884
1196.451, 3.180969
1196.933, 4.235291
1197.415, 3.962585
1197.897, 1.941772
1198.379, 0.2426760
1198.861, 1.619507
1199.344, 2.421387
1199.826, 2.859741
1200.308, 3.035767
1200.790, 3.315002
1201.272, 3.435364
1201.754, 2.528198
1202.236, 0.9382930
1202.718, 0.1997680
1203.200, 0.5375370
1203.683, 0.1587520
1204.165, 1.274658
1204.647, 2.325562
1205.129, 1.713745
1205.611, 0.4699100
1206.093, 0.8485720
1206.575, 2.041199
1207.057, 2.951904
1207.540, 3.568909
1208.022, 3.783630
1208.504, 3.497070
1208.986, 3.812622
1209.468, 5.430664
1209.950, 7.016602
1210.432, 8.334290
1210.914, 9.489990
1211.396, 10.61780
1211.879, 11.53571
1212.361, 11.81592
1212.843, 11.76245
1213.325, 12.65692
1213.807, 14.75922
1214.289, 16.54785
1214.771, 17.96277
1215.253, 19.39642
1215.735, 21.05493
1216.218, 21.91736
1216.700, 21.25531
1217.182, 20.42621
1217.664, 21.13397
1218.146, 22.99622
1218.628, 25.12500
1219.110, 27.33856
1219.592, 28.35358
1220.075, 28.45099
1220.557, 29.75146
1221.039, 32.44287
1221.521, 34.15308
1222.003, 33.51892
1222.485, 32.59332
1222.967, 33.63220
1223.449, 35.29846
1223.932, 36.26276
1224.414, 36.76703
1224.896, 36.89178
1225.378, 36.95770
1225.860, 37.61499
1226.342, 38.80408
1226.824, 39.04749
1227.306, 37.28809
1227.788, 36.37927
1228.271, 37.99280
1228.753, 39.59625
1229.235, 40.24915
1229.717, 40.32935
1230.199, 39.97620
1230.681, 39.34570
1231.163, 38.67151
1231.645, 37.95471
1232.127, 37.25720
1232.610, 36.52435
1233.092, 36.00275
1233.574, 35.78998
1234.056, 35.44897
1234.538, 34.80652
1235.020, 34.26697
1235.502, 34.21960
1235.984, 34.05865
1236.467, 32.40588
1236.949, 29.90656
1237.431, 29.61212
1237.913, 30.99542
1238.395, 31.79028
1238.877, 31.83600
1239.359, 31.58374
1239.841, 31.26398
1240.323, 31.25024
1240.806, 31.52850
1241.288, 31.72992
1241.770, 31.61450
1242.252, 31.67322
1242.734, 33.21509
1243.216, 34.85010
1243.698, 34.41943
1244.180, 33.14398
1244.662, 32.90155
1245.145, 33.64722
1245.627, 34.62585
1246.109, 36.14075
1246.591, 36.97980
1247.073, 36.25549
1247.555, 35.75293
1248.037, 36.05432
1248.519, 36.81891
1249.002, 38.06708
1249.484, 39.38361
1249.966, 39.98523
1250.448, 39.91113
1250.930, 39.72119
1251.412, 39.32288
1251.894, 40.04785
1252.376, 42.05786
1252.859, 43.41516
1253.341, 43.53082
1253.823, 43.01660
1254.305, 42.24359
1254.787, 41.51019
1255.269, 41.27319
1255.751, 41.31238
1256.233, 41.25531
1256.715, 41.14868
1257.198, 41.24554
1257.680, 41.32153
1258.162, 40.72107
1258.644, 39.43219
1259.126, 38.17694
1259.608, 37.20667
1260.090, 36.53479
1260.572, 36.90594
1261.054, 36.61218
1261.537, 34.37744
1262.019, 31.65881
1262.501, 29.24799
1262.983, 27.28363
1263.465, 26.14380
1263.947, 25.65082
1264.429, 24.39160
1264.911, 21.94202
1265.394, 20.30536
1265.876, 19.78827
1266.358, 18.55695
1266.840, 16.03204
1267.322, 14.07635
1267.804, 13.76965
1268.286, 13.97833
1268.768, 13.43201
1269.250, 12.22961
1269.733, 10.22937
1270.215, 7.916626
1270.697, 6.621399
1271.179, 6.040405
1271.661, 5.268677
1272.143, 4.153076
1272.625, 2.678284
1273.107, 0.8416750
1273.589, 0.1016240
1274.072, 1.575684
1274.554, 2.981934
1275.036, 2.470581
1275.518, 1.447327
1276.000, 0.3936770
1276.482, 0.3216550
1276.964, 0.1650390
1277.446, 0.6848750
1277.929, 1.447998
1278.411, 2.135864
1278.893, 2.568726
1279.375, 2.804810
1279.857, 2.272034
1280.339, 1.199524
1280.821, 0.3197020
1281.303, 8.4840003E-03
1281.786, 0.3630370
1282.268, 0.0000000E+00
##END=



