##NAMES=Gaitite
##RRUFFID=R130625
##IDEAL CHEMISTRY=Ca^2+^_2_Zn^2+^(As^5+^O_4_)_2_&#183;2H_2_O
##LOCALITY=Municipio de Pitiquito, Sonora, Mexico
##OWNER=RRUFF
##SOURCE=Rock Currier
##DESCRIPTION=Grey to white tabular or granular crystals, associated with colorless irregular austinite and quartz
##STATUS=The identification of this mineral has been confirmed only by single crystal X-ray diffraction.
##URL=rruff.info/R130625
156.5973, 0.0000000E+00
157.0794, 5.698730
157.5615, 22.02197
158.0437, 43.87646
158.5258, 69.72998
159.0079, 99.66260
159.4900, 130.7529
159.9721, 166.8560
160.4542, 204.7715
160.9364, 234.7881
161.4185, 255.9482
161.9006, 267.2993
162.3827, 270.8398
162.8648, 264.6968
163.3469, 248.4609
163.8291, 220.2549
164.3112, 183.8110
164.7933, 147.7637
165.2754, 116.0786
165.7575, 88.20996
166.2396, 63.25684
166.7218, 39.36426
167.2039, 19.47949
167.6860, 6.175781
168.1681, 0.5004880
168.6502, 4.101074
169.1323, 5.053223
169.6145, 4.359863
170.0966, 2.656738
170.5787, 3.382324
171.0608, 9.561035
171.5429, 18.22217
172.0250, 29.57422
172.5072, 38.51807
172.9893, 44.49170
173.4714, 49.26074
173.9535, 54.42529
174.4356, 60.92676
174.9177, 68.28076
175.3999, 77.42480
175.8820, 88.91699
176.3641, 97.40967
176.8462, 96.81592
177.3283, 89.35840
177.8104, 80.81348
178.2926, 73.67676
178.7747, 67.20605
179.2568, 60.03223
179.7389, 51.95410
180.2210, 43.95410
180.7031, 37.12305
181.1853, 31.32568
181.6674, 26.33643
182.1495, 23.46875
182.6316, 21.28955
183.1137, 15.46777
183.5958, 4.955078
184.0780, 5.704102
184.5601, 10.08447
185.0422, 8.821289
185.5243, 6.710449
186.0064, 6.503906
186.4885, 7.422363
186.9707, 6.959961
187.4528, 4.803711
187.9349, 1.429688
188.4170, 2.562988
188.8991, 7.169922
189.3812, 12.28271
189.8634, 17.87207
190.3455, 23.90332
190.8276, 29.91455
191.3097, 35.20508
191.7918, 41.92236
192.2739, 54.22119
192.7561, 72.40869
193.2382, 92.85547
193.7203, 114.6533
194.2024, 137.5005
194.6845, 159.5811
195.1666, 181.0122
195.6488, 200.8911
196.1309, 217.7568
196.6130, 231.9336
197.0951, 242.3765
197.5772, 250.7178
198.0593, 257.0918
198.5415, 250.9834
199.0236, 229.2886
199.5057, 197.7300
199.9878, 168.4541
200.4699, 141.3516
200.9520, 117.0513
201.4342, 96.22314
201.9163, 78.83643
202.3984, 64.21289
202.8805, 52.47900
203.3626, 43.31299
203.8447, 35.97803
204.3269, 30.48047
204.8090, 26.74023
205.2911, 24.89697
205.7732, 25.08691
206.2553, 26.29932
206.7374, 28.71338
207.2196, 31.97852
207.7017, 34.90039
208.1838, 37.28223
208.6659, 40.77783
209.1480, 45.89160
209.6301, 53.31445
210.1123, 61.47607
210.5944, 70.46436
211.0765, 80.12988
211.5586, 90.78320
212.0407, 104.0562
212.5228, 114.6733
213.0050, 119.2842
213.4871, 116.7432
213.9692, 112.3667
214.4513, 106.6436
214.9334, 99.33545
215.4155, 90.32422
215.8977, 78.48096
216.3798, 66.92188
216.8619, 57.16162
217.3440, 49.07373
217.8261, 43.17822
218.3082, 40.25342
218.7904, 39.27197
219.2725, 37.04248
219.7546, 32.69971
220.2367, 28.63037
220.7188, 26.07080
221.2009, 25.37549
221.6831, 25.54541
222.1652, 27.07422
222.6473, 29.43555
223.1294, 30.54639
223.6115, 29.02588
224.0936, 28.80225
224.5758, 32.54150
225.0579, 43.43945
225.5400, 50.05420
226.0221, 50.15332
226.5042, 46.32422
226.9863, 46.02393
227.4685, 51.04297
227.9506, 57.19678
228.4327, 62.59424
228.9148, 66.68359
229.3969, 70.82178
229.8790, 74.07422
230.3612, 77.56738
230.8433, 84.30078
231.3254, 95.21240
231.8075, 107.9297
232.2896, 121.6304
232.7717, 136.7036
233.2539, 151.8511
233.7360, 168.3027
234.2181, 184.0210
234.7002, 193.7915
235.1823, 193.3623
235.6644, 193.1377
236.1466, 197.6196
236.6287, 209.3789
237.1108, 218.8027
237.5929, 225.8833
238.0750, 230.4590
238.5571, 231.8188
239.0393, 228.4233
239.5214, 224.2773
240.0035, 220.8745
240.4856, 218.6592
240.9677, 216.2124
241.4498, 214.4556
241.9320, 211.6001
242.4141, 205.3364
242.8962, 195.0454
243.3783, 183.5337
243.8604, 171.0859
244.3425, 156.6616
244.8247, 145.4048
245.3068, 139.1665
245.7889, 135.2534
246.2710, 128.8608
246.7531, 117.4766
247.2352, 107.4556
247.7174, 100.6484
248.1995, 97.34082
248.6816, 95.88867
249.1637, 97.51904
249.6458, 99.94287
250.1279, 99.64844
250.6101, 94.81396
251.0922, 90.66113
251.5743, 89.27783
252.0564, 91.44873
252.5385, 90.07080
253.0206, 83.74268
253.5028, 75.10938
253.9849, 67.74512
254.4670, 63.03613
254.9491, 56.45215
255.4312, 45.70020
255.9133, 30.37793
256.3955, 20.12646
256.8776, 17.13428
257.3597, 16.89795
257.8418, 14.33252
258.3239, 7.912109
258.8061, 1.929199
259.2882, 2.949219
259.7703, 6.605469
260.2524, 7.584961
260.7345, 5.293945
261.2166, 1.922363
261.6988, 0.7934570
262.1809, 2.543457
262.6630, 4.769531
263.1451, 8.208008
263.6272, 12.49365
264.1093, 13.44580
264.5915, 9.404785
265.0736, 5.084473
265.5557, 5.003418
266.0378, 10.98779
266.5199, 14.79785
267.0020, 13.83008
267.4842, 9.496094
267.9663, 9.351563
268.4484, 14.70557
268.9305, 21.35107
269.4126, 26.02783
269.8947, 27.87012
270.3769, 31.86475
270.8590, 38.75098
271.3411, 47.99463
271.8232, 58.06934
272.3053, 69.50049
272.7874, 80.04346
273.2696, 88.21143
273.7517, 93.58838
274.2338, 99.06348
274.7159, 104.9087
275.1980, 110.9556
275.6801, 116.9087
276.1623, 123.0488
276.6444, 128.0117
277.1265, 131.3071
277.6086, 133.0654
278.0907, 132.7534
278.5728, 130.5723
279.0550, 126.0938
279.5371, 117.6689
280.0192, 104.8071
280.5013, 91.99512
280.9834, 81.20996
281.4655, 72.38525
281.9477, 63.48584
282.4298, 54.16748
282.9119, 45.66650
283.3940, 39.94238
283.8761, 36.98047
284.3582, 34.95215
284.8404, 33.26367
285.3225, 31.86084
285.8046, 30.72461
286.2867, 29.82715
286.7688, 29.08691
287.2509, 28.64307
287.7331, 28.45264
288.2152, 27.63916
288.6973, 25.13770
289.1794, 22.11523
289.6615, 23.09033
290.1436, 28.47705
290.6258, 34.09717
291.1079, 35.75000
291.5900, 34.18896
292.0721, 33.13232
292.5542, 33.40332
293.0363, 34.92529
293.5185, 37.76367
294.0006, 41.98438
294.4827, 46.61230
294.9648, 50.94775
295.4469, 55.20312
295.9290, 59.83398
296.4112, 64.79688
296.8933, 70.39258
297.3754, 76.97217
297.8575, 84.43164
298.3396, 92.72852
298.8217, 101.3604
299.3039, 110.7637
299.7860, 121.6128
300.2681, 134.1143
300.7502, 147.8613
301.2323, 162.5005
301.7144, 178.0688
302.1966, 193.7188
302.6787, 211.1089
303.1608, 227.8052
303.6429, 240.3271
304.1250, 247.9048
304.6071, 253.9966
305.0893, 262.8413
305.5714, 272.4946
306.0535, 278.4829
306.5356, 281.6782
307.0177, 278.7842
307.4998, 264.6382
307.9820, 239.0327
308.4641, 210.6182
308.9462, 183.5337
309.4283, 157.8486
309.9104, 133.9580
310.3925, 111.8184
310.8747, 91.96973
311.3568, 75.73291
311.8389, 62.82910
312.3210, 50.99463
312.8031, 38.79395
313.2852, 27.08398
313.7674, 16.45020
314.2495, 5.791016
314.7316, 1.987305
315.2137, 3.391113
315.6958, 0.2172850
316.1779, 1.557129
316.6601, 3.013672
317.1422, 8.390137
317.6243, 10.72705
318.1064, 7.670898
318.5885, 4.870117
319.0706, 4.893555
319.5528, 6.576660
320.0349, 7.526367
320.5170, 6.697754
320.9991, 5.329102
321.4812, 3.542969
321.9633, 0.7783200
322.4455, 0.2143550
322.9276, 3.229004
323.4097, 8.017578
323.8918, 10.35645
324.3739, 7.379883
324.8560, 4.065918
325.3382, 1.794922
325.8203, 0.7490230
326.3024, 1.175781
326.7845, 6.023438
327.2666, 10.89111
327.7487, 13.45801
328.2309, 9.737305
328.7130, 8.397461
329.1951, 11.57617
329.6772, 18.66602
330.1593, 23.40234
330.6414, 21.89844
331.1236, 21.59180
331.6057, 26.83154
332.0878, 41.84863
332.5699, 54.70264
333.0520, 64.36182
333.5341, 71.56348
334.0163, 78.04834
334.4984, 82.78320
334.9805, 88.30664
335.4626, 95.71777
335.9447, 105.3135
336.4268, 116.0562
336.9090, 128.6997
337.3911, 141.9668
337.8732, 153.0342
338.3553, 160.6646
338.8374, 170.6865
339.3195, 186.3140
339.8017, 207.1294
340.2838, 223.5928
340.7659, 234.6167
341.2480, 244.3433
341.7301, 257.1235
342.2122, 273.0122
342.6944, 290.2363
343.1765, 307.8394
343.6586, 326.7520
344.1407, 350.2842
344.6228, 378.6001
345.1049, 408.0117
345.5871, 435.2466
346.0692, 460.9580
346.5513, 486.3936
347.0334, 511.0352
347.5155, 537.1685
347.9977, 569.8262
348.4798, 608.4058
348.9619, 645.3325
349.4440, 675.1738
349.9261, 700.4180
350.4082, 726.6929
350.8904, 754.5044
351.3725, 782.3115
351.8546, 809.3818
352.3367, 835.4448
352.8188, 860.1245
353.3009, 887.7881
353.7831, 911.6074
354.2652, 920.6968
354.7473, 915.6401
355.2294, 909.0425
355.7115, 910.8438
356.1936, 916.3706
356.6758, 919.3608
357.1579, 916.3838
357.6400, 912.5059
358.1221, 911.6338
358.6042, 913.1221
359.0863, 914.3774
359.5685, 913.1821
360.0506, 911.2505
360.5327, 911.0469
361.0148, 915.8447
361.4969, 914.6909
361.9790, 901.9580
362.4612, 880.5698
362.9433, 855.6890
363.4254, 829.8677
363.9075, 799.8286
364.3896, 763.6348
364.8717, 720.6528
365.3539, 675.3413
365.8360, 626.6104
366.3181, 576.9277
366.8002, 527.5044
367.2823, 471.3799
367.7644, 423.5869
368.2466, 388.5361
368.7287, 365.2754
369.2108, 342.4248
369.6929, 318.1372
370.1750, 295.6719
370.6571, 276.9956
371.1393, 263.9019
371.6214, 251.2622
372.1035, 238.3130
372.5856, 225.8638
373.0677, 216.4009
373.5498, 211.1831
374.0320, 207.0942
374.5141, 202.9287
374.9962, 198.5547
375.4783, 194.3984
375.9604, 190.6128
376.4425, 187.6694
376.9247, 185.9199
377.4068, 185.2217
377.8889, 185.8501
378.3710, 187.8774
378.8531, 191.3618
379.3352, 197.1284
379.8174, 205.4258
380.2995, 214.0571
380.7816, 220.4365
381.2637, 224.9429
381.7458, 230.9985
382.2279, 239.6396
382.7101, 250.0713
383.1922, 260.7544
383.6743, 271.9692
384.1564, 285.2119
384.6385, 303.0195
385.1206, 323.1436
385.6028, 341.2710
386.0849, 357.1748
386.5670, 371.6396
387.0491, 387.6865
387.5312, 402.7930
388.0133, 412.1211
388.4955, 412.9741
388.9776, 408.0483
389.4597, 400.4937
389.9418, 389.7334
390.4239, 372.3857
390.9060, 341.1060
391.3882, 305.0562
391.8703, 272.5918
392.3524, 245.6841
392.8345, 221.3359
393.3166, 197.5239
393.7987, 175.1519
394.2809, 156.3613
394.7630, 145.2578
395.2451, 134.7676
395.7272, 120.6606
396.2093, 101.5186
396.6914, 86.23486
397.1736, 78.23291
397.6557, 74.00195
398.1378, 70.29834
398.6199, 67.22412
399.1020, 64.10791
399.5841, 61.30225
400.0663, 58.54785
400.5484, 54.10107
401.0305, 45.85205
401.5126, 38.20996
401.9947, 33.58447
402.4768, 33.95459
402.9590, 32.84912
403.4411, 29.83252
403.9232, 25.82520
404.4053, 22.59814
404.8874, 20.77637
405.3695, 18.06104
405.8517, 13.09668
406.3338, 6.244629
406.8159, 1.980957
407.2980, 0.5278320
407.7801, 1.020508
408.2622, 3.246582
408.7444, 7.102539
409.2265, 10.24219
409.7086, 12.00098
410.1907, 12.96338
410.6728, 14.81982
411.1549, 17.35449
411.6371, 18.58740
412.1192, 15.41113
412.6013, 10.22217
413.0834, 9.205566
413.5655, 13.33105
414.0476, 17.37305
414.5298, 15.80127
415.0119, 10.46680
415.4940, 5.095215
415.9761, 0.9716800
416.4582, 4.777344
416.9403, 0.9653320
417.4225, 8.959473
417.9046, 15.48096
418.3867, 9.773926
418.8688, 0.1455080
419.3509, 6.524902
419.8330, 8.120117
420.3152, 8.249023
420.7973, 7.530273
421.2794, 6.293457
421.7615, 5.161621
422.2436, 4.325195
422.7257, 3.490723
423.2079, 2.332520
423.6900, 0.7197270
424.1721, 0.2558590
424.6542, 1.936523
425.1363, 3.279785
425.6184, 0.6396480
426.1006, 9.691895
426.5827, 17.98633
427.0648, 22.53760
427.5469, 24.49121
428.0290, 27.83350
428.5111, 33.22803
428.9933, 38.41211
429.4754, 41.60059
429.9575, 42.00098
430.4396, 46.67822
430.9217, 57.22314
431.4038, 68.54053
431.8860, 73.05615
432.3681, 70.48975
432.8502, 69.26270
433.3323, 71.77344
433.8144, 77.11768
434.2965, 83.24609
434.7787, 90.22559
435.2608, 97.33545
435.7429, 104.1050
436.2250, 110.7339
436.7071, 117.1538
437.1892, 123.0117
437.6714, 130.7397
438.1535, 144.1533
438.6356, 161.2778
439.1177, 177.6562
439.5998, 190.3618
440.0819, 202.1562
440.5641, 214.5000
441.0462, 227.5117
441.5283, 242.7349
442.0104, 261.8696
442.4925, 282.8481
442.9746, 303.6958
443.4568, 324.2466
443.9389, 344.3130
444.4210, 363.7588
444.9031, 382.6436
445.3852, 401.2007
445.8673, 421.4351
446.3495, 439.2500
446.8316, 453.0151
447.3137, 462.1865
447.7958, 471.5239
448.2779, 481.3477
448.7600, 491.1021
449.2422, 500.3486
449.7243, 509.0708
450.2064, 517.4751
450.6885, 525.2949
451.1706, 533.1270
451.6527, 541.9565
452.1349, 551.2979
452.6170, 563.4873
453.0991, 580.1313
453.5812, 601.2456
454.0633, 621.2085
454.5454, 640.2510
455.0276, 659.2080
455.5097, 681.2915
455.9918, 705.6230
456.4739, 725.7021
456.9560, 740.4829
457.4381, 750.4941
457.9203, 757.6768
458.4024, 761.5410
458.8845, 759.9258
459.3666, 751.8374
459.8488, 737.4126
460.3309, 715.8921
460.8130, 687.0449
461.2951, 654.9185
461.7772, 622.6953
462.2593, 589.1616
462.7415, 553.4268
463.2236, 512.9565
463.7057, 472.5469
464.1878, 434.5850
464.6699, 398.6890
465.1520, 362.7734
465.6342, 323.0210
466.1163, 286.4390
466.5984, 256.1738
467.0805, 234.4507
467.5626, 213.7622
468.0447, 193.1714
468.5269, 174.3545
469.0090, 158.9780
469.4911, 148.6504
469.9732, 139.3511
470.4553, 130.5649
470.9374, 121.6714
471.4196, 111.2871
471.9017, 98.34570
472.3838, 87.47412
472.8659, 82.04199
473.3480, 81.99609
473.8301, 80.43066
474.3123, 76.86035
474.7944, 72.85547
475.2765, 70.37402
475.7586, 68.72900
476.2407, 64.73975
476.7228, 56.29785
477.2050, 45.90869
477.6871, 38.03125
478.1692, 32.53027
478.6513, 28.39795
479.1334, 25.63623
479.6155, 23.72314
480.0977, 22.33545
480.5798, 21.61426
481.0619, 20.63330
481.5440, 18.62354
482.0261, 16.17676
482.5082, 13.83301
482.9904, 12.23975
483.4725, 10.66455
483.9546, 7.380859
484.4367, 3.273926
484.9188, 2.617188
485.4009, 10.23047
485.8831, 17.53125
486.3652, 21.20898
486.8473, 20.38916
487.3294, 18.23975
487.8115, 12.64111
488.2936, 7.495117
488.7758, 7.576172
489.2579, 15.20361
489.7400, 20.21240
490.2221, 20.19629
490.7042, 16.90283
491.1863, 16.10938
491.6685, 18.21777
492.1506, 19.00342
492.6327, 15.07715
493.1148, 7.670410
493.5969, 2.561035
494.0790, 1.4650000E-03
494.5612, 1.404785
495.0433, 3.068848
495.5254, 4.518555
496.0075, 4.715820
496.4896, 2.922852
496.9717, 0.3471680
497.4539, 2.099121
497.9360, 4.424316
498.4181, 6.421387
498.9002, 8.091309
499.3823, 9.297363
499.8644, 9.782715
500.3466, 9.438477
500.8287, 8.895996
501.3108, 6.321777
501.7929, 4.610840
502.2750, 5.938477
502.7571, 15.79834
503.2393, 21.82373
503.7214, 20.81885
504.2035, 16.20557
504.6856, 15.22754
505.1677, 18.73975
505.6498, 24.56445
506.1320, 33.38281
506.6141, 45.04443
507.0962, 52.11670
507.5783, 54.57520
508.0604, 52.89990
508.5425, 45.61768
509.0247, 33.41650
509.5068, 24.67139
509.9889, 21.13232
510.4710, 19.12451
510.9531, 11.73047
511.4352, 1.001953
511.9174, 5.533691
512.3995, 0.3305660
512.8816, 7.802734
513.3637, 7.625977
513.8458, 0.4291990
514.3279, 5.774414
514.8101, 6.033203
515.2922, 3.660645
515.7743, 1.150391
516.2564, 1.115234
516.7385, 3.151855
517.2206, 5.065918
517.7028, 6.593750
518.1849, 7.444336
518.6670, 7.187988
519.1491, 6.706543
519.6312, 6.257324
520.1133, 5.799805
520.5955, 5.161133
521.0776, 4.985840
521.5597, 3.813965
522.0418, 0.5405270
522.5239, 5.147949
523.0060, 8.261230
523.4882, 8.413086
523.9703, 6.814453
524.4524, 3.882324
524.9345, 0.1840820
525.4166, 2.543457
525.8987, 2.448730
526.3809, 0.8154300
526.8630, 2.425293
527.3451, 6.465820
527.8272, 7.811523
528.3093, 2.541504
528.7914, 4.895508
529.2736, 9.433105
529.7557, 11.12939
530.2378, 12.70020
530.7199, 16.05225
531.2020, 19.70312
531.6841, 22.37744
532.1663, 23.70166
532.6484, 24.43506
533.1305, 24.73389
533.6126, 24.66553
534.0947, 24.37939
534.5768, 24.41797
535.0590, 23.74121
535.5411, 22.09961
536.0232, 19.70068
536.5053, 17.21729
536.9874, 14.30762
537.4695, 12.38525
537.9517, 12.61719
538.4338, 15.19434
538.9159, 16.54004
539.3980, 16.40186
539.8801, 16.04443
540.3622, 16.94727
540.8444, 18.81885
541.3265, 20.60596
541.8086, 22.30029
542.2907, 23.28613
542.7728, 21.83105
543.2549, 18.85498
543.7371, 17.06494
544.2192, 19.12451
544.7013, 21.89062
545.1834, 23.01953
545.6655, 22.55371
546.1476, 21.79150
546.6298, 20.68848
547.1119, 19.98877
547.5940, 20.33789
548.0761, 22.74902
548.5582, 24.47607
549.0403, 24.65039
549.5225, 24.45947
550.0046, 25.30469
550.4867, 27.70801
550.9688, 30.22510
551.4509, 33.29834
551.9330, 36.02148
552.4152, 34.32031
552.8973, 27.23486
553.3794, 20.95801
553.8615, 19.19189
554.3436, 21.21875
554.8257, 23.01172
555.3079, 24.41748
555.7900, 25.29688
556.2721, 25.09473
556.7542, 24.40088
557.2363, 24.32715
557.7184, 25.32422
558.2006, 26.50439
558.6827, 27.74023
559.1648, 28.65332
559.6469, 28.64258
560.1290, 26.95166
560.6111, 24.85400
561.0933, 22.38232
561.5754, 19.80615
562.0575, 18.40479
562.5396, 18.99805
563.0217, 20.25586
563.5038, 22.08936
563.9860, 25.07129
564.4681, 25.47510
564.9502, 21.85107
565.4323, 17.94824
565.9144, 18.35547
566.3965, 23.70557
566.8787, 25.46484
567.3608, 21.48193
567.8429, 15.35840
568.3250, 13.30664
568.8071, 14.82227
569.2892, 17.23340
569.7714, 19.71240
570.2535, 22.28125
570.7356, 23.29004
571.2177, 23.01758
571.6998, 23.04785
572.1819, 24.81494
572.6641, 26.67627
573.1462, 26.84961
573.6283, 24.57910
574.1104, 23.26367
574.5925, 25.16895
575.0746, 27.67432
575.5568, 28.41113
576.0389, 24.15820
576.5210, 22.31982
577.0031, 24.48877
577.4852, 28.71875
577.9673, 31.34717
578.4495, 32.74707
578.9316, 31.42627
579.4137, 25.49707
579.8958, 16.86035
580.3779, 14.19971
580.8600, 17.92725
581.3422, 21.37939
581.8243, 18.82275
582.3064, 12.94873
582.7885, 9.175293
583.2706, 7.646973
583.7527, 8.795898
584.2349, 17.17480
584.7170, 26.68359
585.1991, 29.05615
585.6812, 17.72412
586.1633, 7.436523
586.6454, 4.338867
587.1276, 5.908203
587.6097, 7.761719
588.0918, 9.346680
588.5739, 10.82031
589.0560, 12.84082
589.5381, 15.04346
590.0203, 14.30615
590.5024, 8.810547
590.9845, 4.145996
591.4666, 3.733398
591.9487, 7.712891
592.4308, 9.953613
592.9130, 10.50684
593.3951, 9.573242
593.8772, 6.325684
594.3593, 1.689453
594.8414, 1.444824
595.3235, 2.509277
595.8057, 2.022949
596.2878, 0.6865230
596.7699, 4.418457
597.2520, 6.866699
597.7341, 6.051758
598.2162, 4.703125
598.6984, 3.899902
599.1805, 3.522461
599.6626, 3.293457
600.1447, 2.798828
600.6268, 2.629883
601.1089, 2.677734
601.5911, 2.789063
602.0732, 4.910156
602.5553, 10.22412
603.0374, 15.62793
603.5195, 18.78125
604.0016, 19.53955
604.4838, 20.44531
604.9659, 22.02344
605.4480, 22.53320
605.9301, 17.82227
606.4122, 9.640137
606.8943, 5.309570
607.3765, 8.213867
607.8586, 13.35693
608.3407, 15.71582
608.8228, 15.94775
609.3049, 15.56055
609.7870, 14.88281
610.2692, 14.07227
610.7513, 13.06885
611.2334, 11.90479
611.7155, 11.05762
612.1976, 11.88037
612.6797, 11.92969
613.1619, 9.643555
613.6440, 3.936523
614.1261, 1.312500
614.6082, 3.126953
615.0903, 5.975098
615.5724, 6.933594
616.0546, 5.977051
616.5367, 3.783691
617.0188, 0.1962890
617.5009, 3.656738
617.9830, 2.293457
618.4651, 2.608398
618.9473, 6.699219
619.4294, 8.703125
619.9115, 8.812988
620.3936, 5.408203
620.8757, 9.7699999E-04
621.3578, 2.881836
621.8400, 0.9482420
622.3221, 5.922363
622.8042, 9.545898
623.2863, 11.71826
623.7684, 13.02832
624.2505, 12.66846
624.7327, 12.31299
625.2148, 12.67969
625.6969, 13.71826
626.1790, 16.07617
626.6611, 20.05225
627.1432, 24.56445
627.6254, 28.91309
628.1075, 33.05518
628.5896, 35.53906
629.0717, 35.74023
629.5538, 35.05078
630.0359, 33.45654
630.5181, 32.30420
631.0002, 35.25684
631.4823, 48.09668
631.9644, 61.33789
632.4465, 66.67822
632.9286, 66.48096
633.4108, 68.37012
633.8929, 79.47314
634.3750, 89.02832
634.8571, 91.25391
635.3392, 85.54395
635.8214, 83.65820
636.3035, 86.87305
636.7856, 92.35986
637.2677, 99.97705
637.7498, 110.8247
638.2319, 114.5674
638.7141, 110.3716
639.1962, 102.9038
639.6783, 97.34961
640.1604, 92.71289
640.6425, 84.42432
641.1246, 70.45508
641.6068, 56.62207
642.0889, 49.03174
642.5710, 45.54346
643.0531, 42.64404
643.5352, 38.45068
644.0173, 35.02148
644.4995, 33.41113
644.9816, 33.23389
645.4637, 33.34424
645.9458, 32.93848
646.4279, 33.34521
646.9100, 35.35205
647.3922, 38.70068
647.8743, 39.42334
648.3564, 36.16992
648.8385, 34.39014
649.3206, 38.83447
649.8027, 48.62500
650.2849, 53.66064
650.7670, 53.45410
651.2491, 52.18652
651.7312, 54.13281
652.2133, 57.36426
652.6954, 58.54443
653.1776, 56.60693
653.6597, 55.40039
654.1418, 57.57471
654.6239, 61.16748
655.1060, 64.08252
655.5881, 65.77881
656.0703, 67.03662
656.5524, 67.23438
657.0345, 67.42822
657.5166, 69.69629
657.9987, 75.16211
658.4808, 79.32275
658.9630, 81.56641
659.4451, 81.73633
659.9272, 77.71289
660.4093, 69.50244
660.8914, 63.90723
661.3735, 66.69385
661.8557, 74.01660
662.3378, 79.27148
662.8199, 82.50049
663.3020, 84.57227
663.7841, 85.83643
664.2662, 86.10742
664.7484, 84.67529
665.2305, 81.15918
665.7126, 78.95166
666.1947, 79.76953
666.6768, 81.92139
667.1589, 84.13574
667.6411, 87.35498
668.1232, 88.43652
668.6053, 87.04199
669.0874, 84.03174
669.5695, 79.43896
670.0516, 73.22900
670.5338, 70.45410
671.0159, 73.12256
671.4980, 77.25049
671.9801, 76.58545
672.4622, 72.38574
672.9443, 67.76807
673.4265, 62.81787
673.9086, 59.12793
674.3907, 58.84229
674.8728, 60.86377
675.3549, 61.69775
675.8370, 59.74707
676.3192, 57.40283
676.8013, 55.33301
677.2834, 53.56494
677.7655, 52.18359
678.2476, 51.48096
678.7297, 50.54004
679.2119, 48.87744
679.6940, 46.62549
680.1761, 43.69043
680.6582, 39.88281
681.1403, 36.81396
681.6224, 36.50244
682.1046, 37.67334
682.5867, 37.56299
683.0688, 35.58496
683.5509, 34.32764
684.0330, 37.07666
684.5151, 40.68945
684.9973, 41.91748
685.4794, 38.35889
685.9615, 35.32275
686.4436, 33.38379
686.9257, 32.55859
687.4078, 33.35498
687.8900, 37.47607
688.3721, 38.43115
688.8542, 33.83398
689.3363, 27.47754
689.8184, 28.83301
690.3005, 37.09521
690.7827, 41.98633
691.2648, 37.36670
691.7469, 29.46777
692.2290, 27.47314
692.7111, 29.85889
693.1932, 31.79297
693.6754, 29.16992
694.1575, 26.77051
694.6396, 27.81445
695.1217, 32.00635
695.6038, 35.22070
696.0859, 36.05273
696.5681, 36.42725
697.0502, 37.44092
697.5323, 39.23047
698.0144, 37.73145
698.4965, 32.32129
698.9786, 26.80225
699.4608, 23.92676
699.9429, 23.21143
700.4250, 23.00684
700.9071, 23.51807
701.3892, 23.55127
701.8713, 21.14404
702.3535, 17.77100
702.8356, 15.21387
703.3177, 13.92871
703.7998, 13.57080
704.2819, 14.91602
704.7640, 16.70996
705.2462, 17.62744
705.7283, 18.10645
706.2104, 16.32129
706.6925, 10.76514
707.1746, 4.310547
707.6567, 1.559570
708.1389, 2.623535
708.6210, 4.631836
709.1031, 7.807617
709.5852, 10.40625
710.0673, 8.106934
710.5494, 2.513184
711.0316, 1.383301
711.5137, 0.5478520
711.9958, 3.360840
712.4779, 4.251465
712.9600, 3.481445
713.4421, 1.756348
713.9243, 3.138672
714.4064, 6.292480
714.8885, 5.625488
715.3706, 1.687012
715.8527, 1.050293
716.3348, 2.371582
716.8170, 3.068848
717.2991, 3.790039
717.7812, 4.192871
718.2633, 1.943848
718.7454, 2.916016
719.2275, 8.170410
719.7097, 13.61230
720.1918, 17.84521
720.6739, 18.83789
721.1560, 16.41943
721.6381, 12.93896
722.1202, 7.455566
722.6024, 2.763672
723.0845, 1.338379
723.5666, 5.376465
724.0487, 5.943359
724.5308, 1.329102
725.0129, 4.617676
725.4951, 8.669434
725.9772, 10.77783
726.4593, 13.58984
726.9414, 17.73193
727.4235, 20.45898
727.9056, 16.15234
728.3878, 8.328125
728.8699, 5.206543
729.3520, 10.17383
729.8341, 15.52637
730.3162, 15.25781
730.7983, 12.59766
731.2805, 11.67432
731.7626, 15.82471
732.2447, 18.61182
732.7268, 18.26123
733.2089, 16.91406
733.6910, 18.42725
734.1732, 23.70752
734.6553, 27.87354
735.1374, 29.39014
735.6195, 30.00635
736.1016, 34.25146
736.5837, 40.90918
737.0659, 44.58740
737.5480, 40.36084
738.0301, 34.91748
738.5122, 34.83740
738.9943, 38.26221
739.4764, 40.48486
739.9586, 38.91553
740.4407, 36.83691
740.9228, 34.60645
741.4049, 32.57568
741.8870, 32.90137
742.3691, 36.80615
742.8513, 39.60254
743.3334, 39.30078
743.8155, 36.56396
744.2976, 32.88477
744.7797, 28.53857
745.2618, 27.03613
745.7440, 34.02686
746.2261, 43.00977
746.7082, 45.80127
747.1903, 42.70850
747.6724, 39.88867
748.1545, 40.00342
748.6367, 41.14453
749.1188, 42.60059
749.6009, 44.39746
750.0830, 45.30615
750.5651, 45.87305
751.0472, 44.70801
751.5294, 40.00293
752.0115, 31.89014
752.4936, 25.93652
752.9757, 22.18018
753.4578, 20.10596
753.9399, 22.28125
754.4221, 24.65918
754.9042, 19.64697
755.3863, 5.860352
755.8684, 6.388672
756.3505, 12.13770
756.8326, 14.03564
757.3148, 13.39014
757.7969, 7.795898
758.2790, 6.734375
758.7611, 12.95947
759.2432, 19.91113
759.7253, 21.50439
760.2075, 17.64648
760.6896, 14.76611
761.1717, 13.32764
761.6538, 12.77002
762.1359, 13.01953
762.6180, 13.48047
763.1002, 12.95752
763.5823, 10.80908
764.0644, 9.167969
764.5465, 10.37061
765.0286, 12.22266
765.5107, 12.11670
765.9929, 6.546387
766.4750, 3.170410
766.9571, 3.381348
767.4392, 4.098145
767.9213, 2.073730
768.4034, 2.498535
768.8856, 11.34668
769.3677, 26.02295
769.8498, 41.86377
770.3319, 53.05078
770.8140, 60.61914
771.2961, 66.96387
771.7783, 72.04639
772.2604, 76.79492
772.7425, 80.63965
773.2246, 85.15186
773.7067, 92.61816
774.1888, 106.7930
774.6710, 118.2480
775.1531, 124.7598
775.6352, 129.4766
776.1173, 138.3408
776.5994, 151.2759
777.0815, 163.9238
777.5637, 175.7827
778.0458, 186.0640
778.5279, 191.7812
779.0100, 195.4473
779.4921, 202.4375
779.9742, 217.8091
780.4564, 233.5342
780.9385, 246.6948
781.4206, 257.1060
781.9027, 265.2544
782.3848, 270.9512
782.8669, 275.7788
783.3491, 280.4600
783.8312, 283.7266
784.3133, 281.6426
784.7954, 274.3838
785.2775, 267.9902
785.7596, 266.5483
786.2418, 264.1646
786.7239, 251.0664
787.2060, 230.6602
787.6881, 210.4365
788.1702, 193.7769
788.6523, 178.3120
789.1345, 163.6992
789.6166, 149.6396
790.0987, 134.8320
790.5808, 118.3687
791.0629, 102.8516
791.5450, 88.43652
792.0272, 75.65674
792.5093, 67.34424
792.9914, 63.06787
793.4735, 58.87988
793.9556, 52.87354
794.4377, 46.38330
794.9199, 41.23486
795.4020, 36.89111
795.8841, 32.01221
796.3662, 22.87744
796.8483, 16.53076
797.3304, 16.65283
797.8126, 21.56494
798.2947, 26.09717
798.7768, 29.92480
799.2589, 34.29980
799.7410, 39.37012
800.2231, 45.47607
800.7053, 53.22021
801.1874, 62.66016
801.6695, 74.43457
802.1516, 90.19629
802.6337, 107.1191
803.1158, 122.9648
803.5980, 137.8101
804.0801, 152.6914
804.5622, 164.9771
805.0443, 180.5732
805.5264, 202.0708
806.0085, 227.6211
806.4907, 251.2080
806.9728, 272.3555
807.4549, 294.1274
807.9370, 317.6016
808.4191, 342.4961
808.9012, 368.7202
809.3834, 395.9722
809.8655, 423.1758
810.3476, 447.8906
810.8297, 474.3853
811.3118, 506.9556
811.7939, 543.4106
812.2761, 576.7720
812.7582, 606.6606
813.2403, 632.6113
813.7224, 653.9292
814.2045, 671.2837
814.6866, 687.4170
815.1688, 702.1621
815.6509, 712.6904
816.1330, 716.2949
816.6151, 716.3818
817.0972, 715.5283
817.5793, 715.4780
818.0615, 720.5840
818.5436, 735.5752
819.0257, 752.6045
819.5078, 764.7485
819.9899, 776.8398
820.4720, 800.9624
820.9542, 837.2300
821.4363, 884.4741
821.9184, 942.4512
822.4005, 1011.444
822.8826, 1092.717
823.3647, 1186.714
823.8469, 1291.350
824.3290, 1408.938
824.8111, 1533.831
825.2932, 1663.505
825.7753, 1798.868
826.2574, 1937.258
826.7396, 2074.858
827.2217, 2223.082
827.7038, 2386.109
828.1859, 2559.896
828.6681, 2737.884
829.1502, 2915.652
829.6323, 3119.552
830.1144, 3357.594
830.5966, 3616.730
831.0787, 3883.077
831.5608, 4159.093
832.0429, 4459.115
832.5250, 4795.199
833.0071, 5139.050
833.4893, 5488.886
833.9714, 5835.499
834.4535, 6174.131
834.9356, 6528.870
835.4177, 6834.218
835.8998, 7094.666
836.3820, 7285.623
836.8641, 7385.568
837.3462, 7389.491
837.8283, 7255.475
838.3104, 6966.635
838.7925, 6574.708
839.2747, 6080.097
839.7568, 5529.372
840.2389, 4980.601
840.7210, 4427.912
841.2031, 3914.666
841.6852, 3449.577
842.1674, 3032.656
842.6495, 2670.594
843.1316, 2367.408
843.6137, 2099.065
844.0958, 1863.072
844.5779, 1655.637
845.0601, 1473.793
845.5422, 1316.393
846.0243, 1178.263
846.5064, 1058.932
846.9885, 954.6021
847.4706, 865.3599
847.9528, 787.2373
848.4349, 717.5801
848.9170, 656.6357
849.3991, 600.8779
849.8812, 549.9683
850.3633, 503.8301
850.8455, 462.4365
851.3276, 425.5952
851.8097, 394.0391
852.2918, 367.6221
852.7739, 343.9351
853.2560, 320.4434
853.7382, 298.9839
854.2203, 281.3101
854.7024, 267.8857
855.1845, 256.5112
855.6666, 247.5107
856.1487, 239.8008
856.6309, 232.1924
857.1130, 224.8960
857.5951, 224.2544
858.0772, 230.6724
858.5593, 239.5889
859.0414, 246.2222
859.5236, 253.7134
860.0057, 267.3447
860.4878, 287.0742
860.9699, 310.4204
861.4520, 336.6509
861.9341, 365.4912
862.4163, 396.6890
862.8984, 430.3940
863.3805, 468.3564
863.8626, 511.4033
864.3447, 558.4072
864.8268, 609.7324
865.3090, 664.9072
865.7911, 721.1123
866.2732, 778.6235
866.7553, 837.1831
867.2374, 895.9512
867.7195, 957.8457
868.2017, 1024.005
868.6838, 1094.066
869.1659, 1165.495
869.6480, 1234.630
870.1301, 1310.822
870.6122, 1395.576
871.0944, 1487.741
871.5765, 1585.603
872.0586, 1689.020
872.5407, 1797.002
873.0228, 1911.049
873.5049, 2025.670
873.9871, 2140.064
874.4692, 2251.626
874.9513, 2357.120
875.4334, 2474.671
875.9155, 2559.980
876.3976, 2617.799
876.8798, 2638.276
877.3619, 2609.218
877.8440, 2529.921
878.3261, 2405.981
878.8082, 2233.308
879.2903, 2036.782
879.7725, 1824.280
880.2546, 1610.272
880.7367, 1415.429
881.2188, 1244.114
881.7009, 1088.757
882.1830, 947.9370
882.6652, 821.0581
883.1473, 708.1934
883.6294, 608.9648
884.1115, 524.7505
884.5936, 456.5884
885.0757, 398.4321
885.5579, 344.1924
886.0400, 295.8745
886.5221, 260.2002
887.0042, 236.8662
887.4863, 213.9116
887.9684, 181.6528
888.4506, 151.1587
888.9327, 129.4707
889.4148, 116.3687
889.8969, 103.1973
890.3790, 89.03467
890.8611, 77.27637
891.3433, 68.81641
891.8254, 63.45752
892.3075, 62.16650
892.7896, 63.84717
893.2717, 64.23242
893.7538, 59.14014
894.2360, 53.95752
894.7181, 52.32812
895.2002, 53.21777
895.6823, 53.62012
896.1644, 52.70264
896.6465, 51.75342
897.1287, 51.32861
897.6108, 51.49121
898.0929, 52.54834
898.5750, 53.96729
899.0571, 53.27002
899.5392, 49.26270
900.0214, 45.19336
900.5035, 45.15479
900.9856, 45.86475
901.4677, 43.24756
901.9498, 32.59814
902.4319, 26.18604
902.9141, 25.36475
903.3962, 26.93604
903.8783, 29.14990
904.3604, 31.60791
904.8425, 28.99316
905.3246, 20.66992
905.8068, 13.35693
906.2889, 12.90479
906.7710, 15.69336
907.2531, 19.82373
907.7352, 25.32959
908.2173, 25.42480
908.6995, 14.07275
909.1816, 4.564941
909.6637, 4.202148
910.1458, 11.00488
910.6279, 10.73975
911.1100, 3.762695
911.5922, 3.012695
912.0743, 6.285156
912.5564, 7.036621
913.0385, 5.093262
913.5206, 1.356445
914.0027, 1.453613
914.4849, 3.933594
914.9670, 3.450195
915.4491, 2.094727
915.9312, 9.629883
916.4133, 11.87012
916.8954, 9.000488
917.3776, 8.540039
917.8597, 13.06787
918.3418, 18.16797
918.8239, 19.51172
919.3060, 18.16895
919.7881, 15.37891
920.2703, 9.870117
920.7524, 6.324707
921.2345, 5.761230
921.7166, 6.986816
922.1987, 9.880859
922.6808, 14.61719
923.1630, 15.98047
923.6451, 13.56348
924.1272, 10.68555
924.6093, 11.60791
925.0914, 12.78857
925.5735, 9.257324
926.0557, 0.8061520
926.5378, 6.168945
927.0199, 9.355469
927.5020, 11.26514
927.9841, 12.54199
928.4662, 13.26953
928.9484, 13.79688
929.4305, 14.14941
929.9126, 14.84131
930.3947, 16.96729
930.8768, 18.72266
931.3589, 17.88916
931.8411, 15.07959
932.3232, 11.62646
932.8053, 5.314453
933.2874, 2.366699
933.7695, 5.522461
934.2516, 10.86230
934.7338, 12.00146
935.2159, 9.008301
935.6980, 7.864258
936.1801, 9.872070
936.6622, 11.94775
937.1443, 10.77979
937.6265, 7.806152
938.1086, 4.316406
938.5907, 0.2045900
939.0728, 2.339844
939.5549, 1.419434
940.0370, 1.548340
940.5192, 7.450195
941.0013, 15.83691
941.4834, 16.61279
941.9655, 9.935059
942.4476, 4.544434
942.9297, 8.180664
943.4119, 14.27246
943.8940, 16.76318
944.3761, 16.13330
944.8582, 15.30908
945.3403, 16.63574
945.8224, 15.46094
946.3046, 10.13574
946.7867, 2.396973
947.2688, 4.328613
947.7509, 9.909180
948.2330, 13.07568
948.7151, 13.04590
949.1973, 11.43750
949.6794, 8.771973
950.1615, 5.819336
950.6436, 3.245605
951.1257, 0.2182620
951.6078, 6.0547002E-02
952.0900, 6.845215
952.5721, 12.80859
953.0542, 9.494629
953.5363, 0.9067380
954.0184, 3.164063
954.5005, 2.970703
954.9827, 7.255371
955.4648, 0.3291020
955.9469, 9.128906
956.4290, 14.80713
956.9111, 16.55811
957.3932, 18.97217
957.8754, 22.04053
958.3575, 26.01416
958.8396, 31.60791
959.3217, 37.21680
959.8038, 37.86328
960.2859, 34.96484
960.7681, 33.80176
961.2502, 38.11230
961.7323, 41.66406
962.2144, 40.85840
962.6965, 37.42188
963.1786, 33.31104
963.6608, 27.54932
964.1429, 24.78174
964.6250, 25.79199
965.1071, 28.24023
965.5892, 30.76025
966.0714, 32.82959
966.5535, 33.38623
967.0356, 32.41992
967.5177, 30.27832
967.9998, 24.49756
968.4819, 20.17334
968.9641, 20.74561
969.4462, 25.38281
969.9283, 28.58447
970.4104, 30.10547
970.8925, 32.06445
971.3746, 35.57129
971.8568, 39.33301
972.3389, 41.29541
972.8210, 42.05371
973.3031, 42.93066
973.7852, 42.84375
974.2673, 44.51660
974.7495, 50.44238
975.2316, 56.88477
975.7137, 59.30566
976.1958, 57.49512
976.6779, 58.30469
977.1600, 62.77002
977.6422, 66.36230
978.1243, 64.05029
978.6064, 59.70508
979.0885, 57.50439
979.5706, 57.84912
980.0527, 57.69824
980.5349, 55.69238
981.0170, 54.46924
981.4991, 55.95166
981.9812, 58.61279
982.4633, 55.27246
982.9454, 47.16797
983.4276, 42.53809
983.9097, 47.31738
984.3918, 53.00342
984.8739, 53.24414
985.3560, 50.67578
985.8381, 49.48730
986.3203, 51.16504
986.8024, 51.78271
987.2845, 51.16895
987.7666, 49.83105
988.2487, 47.51758
988.7308, 45.09229
989.2130, 45.32520
989.6951, 48.33252
990.1772, 50.52393
990.6593, 47.81787
991.1414, 45.64551
991.6235, 48.34961
992.1057, 54.51123
992.5878, 56.59473
993.0699, 54.10254
993.5520, 50.10059
994.0341, 44.46631
994.5162, 39.70947
994.9984, 41.00879
995.4805, 45.53271
995.9626, 47.86865
996.4447, 44.21338
996.9268, 42.08203
997.4089, 44.62988
997.8911, 47.69531
998.3732, 47.39551
998.8553, 43.82568
999.3374, 39.38428
999.8195, 34.13867
1000.302, 31.04590
1000.784, 34.33447
1001.266, 39.77637
1001.748, 44.18457
1002.230, 47.29980
1002.712, 49.35547
1003.194, 49.65381
1003.676, 50.12744
1004.159, 51.11328
1004.641, 52.06201
1005.123, 53.18262
1005.605, 53.78027
1006.087, 51.17432
1006.569, 42.55615
1007.051, 36.96973
1007.533, 44.44238
1008.016, 53.23145
1008.498, 51.46729
1008.980, 35.65039
1009.462, 31.92383
1009.944, 41.55469
1010.426, 50.50488
1010.908, 47.21924
1011.390, 39.03760
1011.872, 32.63086
1012.355, 28.12744
1012.837, 27.17578
1013.319, 35.76025
1013.801, 42.28174
1014.283, 43.30371
1014.765, 41.03564
1015.247, 39.47656
1015.729, 38.67188
1016.211, 39.54590
1016.694, 42.93848
1017.176, 44.62256
1017.658, 38.97070
1018.140, 31.64404
1018.622, 28.60938
1019.104, 31.72217
1019.586, 30.28516
1020.068, 22.92480
1020.551, 15.92676
1021.033, 12.67236
1021.515, 12.04346
1021.997, 11.93555
1022.479, 12.53320
1022.961, 14.14209
1023.443, 18.13770
1023.925, 21.47754
1024.407, 22.44873
1024.890, 22.94385
1025.372, 25.32324
1025.854, 29.74854
1026.336, 33.26074
1026.818, 35.75928
1027.300, 36.70996
1027.782, 34.04248
1028.264, 30.54150
1028.746, 29.57373
1029.229, 31.35986
1029.711, 30.11377
1030.193, 22.54297
1030.675, 18.52197
1031.157, 22.62695
1031.639, 30.83301
1032.121, 34.98096
1032.603, 35.70020
1033.086, 34.45410
1033.568, 30.99121
1034.050, 27.59375
1034.532, 25.43994
1035.014, 23.88135
1035.496, 22.48340
1035.978, 21.43750
1036.460, 19.12744
1036.943, 15.46045
1037.425, 12.92578
1037.907, 14.06738
1038.389, 16.70947
1038.871, 18.73535
1039.353, 20.18164
1039.835, 21.38037
1040.317, 21.31689
1040.799, 22.60840
1041.281, 25.75488
1041.764, 30.11377
1042.246, 35.11230
1042.728, 40.40625
1043.210, 45.51709
1043.692, 50.85645
1044.174, 52.35352
1044.656, 42.54346
1045.138, 32.84424
1045.621, 31.25439
1046.103, 37.12744
1046.585, 41.66846
1047.067, 44.82861
1047.549, 47.34766
1048.031, 50.40137
1048.513, 51.70459
1048.995, 45.78125
1049.478, 36.91846
1049.960, 32.38379
1050.442, 38.37402
1050.924, 42.30225
1051.406, 44.18311
1051.888, 43.75391
1052.370, 39.16309
1052.852, 32.32129
1053.334, 29.95068
1053.817, 31.98584
1054.299, 34.74316
1054.781, 37.71484
1055.263, 39.43164
1055.745, 38.69922
1056.227, 36.36377
1056.709, 34.16748
1057.191, 32.06250
1057.673, 30.31396
1058.156, 29.24365
1058.638, 27.37598
1059.120, 20.49463
1059.602, 13.44287
1060.084, 12.11279
1060.566, 18.49854
1061.048, 23.79053
1061.530, 27.90723
1062.013, 30.29150
1062.495, 30.11230
1062.977, 28.48389
1063.459, 28.27881
1063.941, 28.98291
1064.423, 29.19678
1064.905, 30.62891
1065.387, 28.40186
1065.870, 16.00879
1066.352, 3.248535
1066.834, 0.4560550
1067.316, 4.884277
1067.798, 8.001465
1068.280, 8.589355
1068.762, 8.969727
1069.244, 12.71533
1069.726, 15.37646
1070.208, 11.63916
1070.691, 3.395020
1071.173, 0.7817380
1071.655, 0.6142580
1072.137, 3.087891
1072.619, 11.26953
1073.101, 19.89014
1073.583, 22.51465
1074.065, 22.25586
1074.548, 25.28857
1075.030, 33.38867
1075.512, 36.82275
1075.994, 29.21777
1076.476, 21.26465
1076.958, 17.10742
1077.440, 15.93994
1077.922, 15.54395
1078.405, 15.63672
1078.887, 14.70557
1079.369, 11.55127
1079.851, 8.562500
1080.333, 8.492676
1080.815, 8.425781
1081.297, 4.290039
1081.779, 5.914063
1082.261, 7.758789
1082.744, 0.6728520
1083.226, 7.351563
1083.708, 10.63965
1084.190, 11.72754
1084.672, 12.46484
1085.154, 13.35059
1085.636, 15.64746
1086.118, 20.69043
1086.601, 23.79004
1087.083, 24.09277
1087.565, 23.27441
1088.047, 23.47852
1088.529, 24.18066
1089.011, 24.42676
1089.493, 24.05957
1089.975, 22.46777
1090.458, 16.66895
1090.940, 12.49219
1091.422, 12.58984
1091.904, 15.90430
1092.386, 19.71973
1092.868, 23.18359
1093.350, 22.12012
1093.832, 13.75391
1094.314, 6.046875
1094.797, 3.848633
1095.279, 5.493164
1095.761, 10.79980
1096.243, 20.11426
1096.725, 23.78418
1097.207, 21.42578
1097.689, 18.75000
1098.171, 18.70020
1098.653, 20.25586
1099.136, 22.71289
1099.618, 25.78320
1100.100, 29.04980
1100.582, 33.91309
1101.064, 35.35449
1101.546, 31.70508
1102.028, 28.27734
1102.510, 30.04492
1102.993, 35.53906
1103.475, 42.70703
1103.957, 50.99023
1104.439, 57.76758
1104.921, 60.78809
1105.403, 63.45703
1105.885, 65.86523
1106.367, 69.27246
1106.849, 76.81250
1107.332, 87.56738
1107.814, 95.55762
1108.296, 99.67969
1108.778, 105.8398
1109.260, 122.6885
1109.742, 138.3701
1110.224, 144.1465
1110.706, 142.0244
1111.188, 143.2373
1111.671, 147.8145
1112.153, 151.6582
1112.635, 153.5352
1113.117, 153.8672
1113.599, 154.2002
1114.081, 152.8428
1114.563, 146.4346
1115.045, 133.9883
1115.528, 121.7197
1116.010, 109.2598
1116.492, 98.30371
1116.974, 90.84961
1117.456, 84.63770
1117.938, 76.02246
1118.420, 65.93750
1118.902, 56.24023
1119.385, 47.17578
1119.867, 39.45020
1120.349, 33.69141
1120.831, 28.22656
1121.313, 20.97461
1121.795, 12.95508
1122.277, 6.951172
1122.759, 2.893555
1123.241, 6.0547002E-02
1123.724, 3.007813
1124.206, 4.129883
1124.688, 3.177734
1125.170, 0.2031250
1125.652, 6.024414
1126.134, 14.56348
1126.616, 18.86523
1127.098, 18.10547
1127.580, 14.59668
1128.063, 5.440430
1128.545, 1.647461
1129.027, 0.2460940
1129.509, 8.165039
1129.991, 12.19336
1130.473, 12.35449
1130.955, 11.15234
1131.437, 9.042969
1131.920, 6.717773
1132.402, 4.393555
1132.884, 2.497070
1133.366, 1.328125
1133.848, 0.8691410
1134.330, 2.048828
1134.812, 5.173828
1135.294, 8.026367
1135.776, 9.721680
1136.259, 10.26562
1136.741, 8.894531
1137.223, 6.583984
1137.705, 4.720703
1138.187, 2.398438
1138.669, 4.130859
1139.151, 12.13867
1139.633, 18.02246
1140.115, 14.48145
1140.598, 6.434570
1141.080, 3.199219
1141.562, 3.268555
1142.044, 2.449219
1142.526, 2.681641
1143.008, 5.689453
1143.490, 5.098633
1143.972, 3.304688
1144.455, 2.276367
1144.937, 1.984375
1145.419, 2.750977
1145.901, 4.400391
1146.383, 5.833984
1146.865, 6.985352
1147.347, 7.083008
1147.829, 5.069336
1148.312, 2.726563
1148.794, 3.841797
1149.276, 7.538086
1149.758, 7.415039
1150.240, 2.698242
1150.722, 2.240234
1151.204, 5.380859
1151.686, 7.013672
1152.168, 6.586914
1152.651, 4.960938
1153.133, 4.041016
1153.615, 3.865234
1154.097, 6.829102
1154.579, 14.25879
1155.061, 20.21777
1155.543, 18.25293
1156.025, 13.98438
1156.507, 11.10352
1156.990, 9.910156
1157.472, 14.64453
1157.954, 25.98242
1158.436, 33.46777
1158.918, 33.05273
1159.400, 28.87012
1159.882, 20.76074
1160.364, 13.72754
1160.847, 15.48730
1161.329, 28.98340
1161.811, 33.39062
1162.293, 27.16504
1162.775, 21.10645
1163.257, 21.67578
1163.739, 24.06055
1164.221, 21.47168
1164.703, 16.61523
1165.186, 14.16602
1165.668, 16.24121
1166.150, 17.74902
1166.632, 18.77832
1167.114, 18.62012
1167.596, 15.85156
1168.078, 12.14844
1168.560, 10.44238
1169.042, 10.12695
1169.525, 9.504883
1170.007, 9.068359
1170.489, 6.225586
1170.971, 0.8554690
1171.453, 5.808594
1171.935, 0.3115230
1172.417, 11.70801
1172.899, 16.30078
1173.382, 15.17969
1173.864, 15.68945
1174.346, 24.39844
1174.828, 28.50684
1175.310, 24.58789
1175.792, 18.64062
1176.274, 18.13574
1176.756, 21.59473
1177.239, 25.98340
1177.721, 30.88672
1178.203, 36.14551
1178.685, 40.15234
1179.167, 46.68262
1179.649, 57.99023
1180.131, 70.44824
1180.613, 77.28125
1181.095, 80.00195
1181.578, 82.90430
1182.060, 86.79199
1182.542, 90.36426
1183.024, 92.20801
1183.506, 94.70898
1183.988, 98.22168
1184.470, 103.4648
1184.952, 115.5264
1185.434, 131.0645
1185.917, 137.4062
1186.399, 130.0957
1186.881, 121.1660
1187.363, 112.6523
1187.845, 108.1338
1188.327, 111.0615
1188.809, 118.3262
1189.291, 117.7695
1189.774, 110.7100
1190.256, 103.5391
1190.738, 98.03906
1191.220, 93.13672
1191.702, 89.07031
1192.184, 84.48047
1192.666, 77.87598
1193.148, 69.95605
1193.630, 65.99707
1194.113, 65.36035
1194.595, 64.35938
1195.077, 61.94434
1195.559, 58.05664
1196.041, 50.87598
1196.523, 43.91602
1197.005, 40.57812
1197.487, 40.50879
1197.969, 36.34863
1198.452, 28.80566
1198.934, 22.99023
1199.416, 23.22754
1199.898, 23.81250
1200.380, 21.79590
1200.862, 18.74512
1201.344, 15.94531
1201.826, 13.47754
1202.309, 14.41602
1202.791, 18.47559
1203.273, 22.40527
1203.755, 24.06543
1204.237, 25.36328
1204.719, 27.80566
1205.201, 30.02051
1205.683, 29.75293
1206.166, 27.02734
1206.648, 27.65430
1207.130, 31.36719
1207.612, 33.78418
1208.094, 28.18945
1208.576, 24.89355
1209.058, 33.50781
1209.540, 45.50098
1210.022, 47.87207
1210.505, 41.09668
1210.987, 38.86719
1211.469, 42.08691
1211.951, 44.61816
1212.433, 39.44922
1212.915, 35.69434
1213.397, 39.62695
1213.879, 47.83887
1214.361, 55.97559
1214.844, 63.82812
1215.326, 66.68359
1215.808, 63.92090
1216.290, 61.68359
1216.772, 63.69043
1217.254, 68.04688
1217.736, 75.45898
1218.218, 83.66406
1218.701, 87.69629
1219.183, 87.63281
1219.665, 87.31055
1220.147, 87.25000
1220.629, 89.98633
1221.111, 100.5508
1221.593, 110.9297
1222.075, 116.3711
1222.557, 118.5400
1223.040, 121.1631
1223.522, 124.2461
1224.004, 128.2275
1224.486, 133.6445
1224.968, 135.4932
1225.450, 127.6611
1225.932, 118.6855
1226.414, 112.5303
1226.896, 108.9688
1227.379, 107.7793
1227.861, 108.6348
1228.343, 109.5723
1228.825, 110.0908
1229.307, 110.4355
1229.789, 112.7041
1230.271, 113.3887
1230.753, 109.9180
1231.236, 104.1025
1231.718, 102.7295
1232.200, 104.6182
1232.682, 104.8291
1233.164, 101.5469
1233.646, 99.33496
1234.128, 103.5381
1234.610, 105.6455
1235.093, 100.9736
1235.575, 91.91699
1236.057, 85.69824
1236.539, 81.76270
1237.021, 78.27637
1237.503, 74.92969
1237.985, 71.50684
1238.467, 66.53125
1238.949, 63.47949
1239.432, 64.14160
1239.914, 67.32227
1240.396, 69.39746
1240.878, 70.62402
1241.360, 71.68164
1241.842, 72.83398
1242.324, 73.57129
1242.806, 73.31445
1243.288, 73.51562
1243.771, 75.48438
1244.253, 78.14648
1244.735, 77.32812
1245.217, 75.73633
1245.699, 80.95215
1246.181, 100.6172
1246.663, 110.4648
1247.145, 104.5859
1247.628, 96.86230
1248.110, 93.56738
1248.592, 94.48047
1249.074, 103.3320
1249.556, 114.9268
1250.038, 118.8027
1250.520, 107.2520
1251.002, 100.7314
1251.484, 101.2188
1251.967, 103.1250
1252.449, 103.4092
1252.931, 102.9473
1253.413, 103.3750
1253.895, 104.0098
1254.377, 103.1250
1254.859, 97.45898
1255.341, 100.3115
1255.823, 114.1357
1256.306, 124.5098
1256.788, 120.5957
1257.270, 111.4590
1257.752, 106.8389
1258.234, 105.0625
1258.716, 103.9023
1259.198, 104.0439
1259.680, 101.5508
1260.163, 96.47852
1260.645, 89.09082
1261.127, 76.52051
1261.609, 65.47070
1262.091, 64.72168
1262.573, 67.87012
1263.055, 65.61328
1263.537, 56.62500
1264.020, 50.05176
1264.502, 45.79980
1264.984, 44.24707
1265.466, 47.35547
1265.948, 50.80176
1266.430, 53.04102
1266.912, 52.87012
1267.394, 48.32910
1267.876, 39.30664
1268.359, 33.57129
1268.841, 31.08301
1269.323, 31.56250
1269.805, 39.60449
1270.287, 44.34863
1270.769, 38.59570
1271.251, 29.48730
1271.733, 21.47266
1272.215, 14.84863
1272.698, 13.34082
1273.180, 15.65723
1273.662, 15.53906
1274.144, 7.812500
1274.626, 0.6044920
1275.108, 5.571289
1275.590, 9.044922
1276.072, 7.423828
1276.555, 2.231445
1277.037, 2.525391
1277.519, 6.283203
1278.001, 7.544922
1278.483, 1.289063
1278.965, 0.2753910
1279.447, 5.068359
1279.929, 10.92969
1280.411, 11.83203
1280.894, 10.19238
1281.376, 9.856445
1281.858, 10.72949
1282.340, 12.68750
1282.822, 16.99414
1283.304, 19.51367
1283.786, 19.70996
1284.268, 21.12305
1284.750, 29.42969
1285.233, 37.54297
1285.715, 33.52441
1286.197, 24.79980
1286.679, 25.21680
1287.161, 38.51855
1287.643, 46.21582
1288.125, 45.25586
1288.607, 39.75195
1289.090, 42.21582
1289.572, 44.36328
1290.054, 35.00293
1290.536, 25.29102
1291.018, 24.34277
1291.500, 32.13477
1291.982, 37.47461
1292.464, 40.28516
1292.947, 40.84863
1293.429, 38.66113
1293.911, 35.20410
1294.393, 32.73633
1294.875, 28.52930
1295.357, 17.62207
1295.839, 2.279297
1296.321, 1.046875
1296.803, 4.908203
1297.286, 9.409180
1297.768, 5.321289
1298.250, 5.320313
1298.732, 10.02148
1299.214, 16.29980
1299.696, 10.95410
1300.178, 0.7861330
1300.660, 0.0000000E+00
##END=



