##NAMES=Galeite
##RRUFFID=R160078
##IDEAL CHEMISTRY=Na_15_(S^6+^O_4_)_5_ClF_4_
##LOCALITY=Searles Lake, San Bernardino County, California, USA
##OWNER=UAMM
##SOURCE=Rock Currier
##DESCRIPTION=Colorless to pale grey barrel-shaped crystals, intergrown with schairerite
##STATUS=The identification of this mineral has been confirmed by single-crystal X-ray diffraction.
##URL=rruff.info/R160078
146.4728, 0.0000000E+00
146.9550, 0.2187500
147.4371, 32.33984
147.9192, 52.52344
148.4013, 50.23633
148.8834, 35.04883
149.3655, 35.33398
149.8477, 62.27344
150.3298, 89.02539
150.8119, 108.4258
151.2940, 126.5938
151.7761, 136.2969
152.2583, 137.5449
152.7404, 103.4453
153.2225, 72.56055
153.7046, 75.39453
154.1867, 83.85742
154.6688, 85.11523
155.1510, 74.51953
155.6331, 61.22266
156.1152, 43.82031
156.5973, 24.08789
157.0794, 8.378906
157.5615, 6.851563
158.0437, 14.23438
158.5258, 9.054688
159.0079, 27.09375
159.4900, 57.96094
159.9721, 73.01953
160.4542, 73.87109
160.9364, 69.50391
161.4185, 53.82031
161.9006, 38.74219
162.3827, 33.81641
162.8648, 58.49219
163.3469, 79.04297
163.8291, 73.72266
164.3112, 45.30469
164.7933, 25.36328
165.2754, 41.26172
165.7575, 69.31250
166.2396, 84.82031
166.7218, 63.93359
167.2039, 38.74219
167.6860, 30.19922
168.1681, 38.02734
168.6502, 49.69922
169.1323, 62.80469
169.6145, 73.64844
170.0966, 76.90625
170.5787, 63.08594
171.0608, 45.39062
171.5429, 31.84375
172.0250, 22.70312
172.5072, 25.56641
172.9893, 58.22656
173.4714, 106.8945
173.9535, 146.0391
174.4356, 156.9531
174.9177, 155.4961
175.3999, 161.9258
175.8820, 177.9336
176.3641, 192.8242
176.8462, 194.6445
177.3283, 187.5312
177.8104, 182.5938
178.2926, 183.9297
178.7747, 190.2422
179.2568, 199.7656
179.7389, 211.8164
180.2210, 226.6445
180.7031, 244.9961
181.1853, 265.9023
181.6674, 285.3750
182.1495, 308.3047
182.6316, 328.0664
183.1137, 324.1836
183.5958, 292.9219
184.0780, 251.9648
184.5601, 221.9141
185.0422, 203.0430
185.5243, 196.0859
186.0064, 195.0664
186.4885, 197.7148
186.9707, 188.1914
187.4528, 164.8320
187.9349, 141.1133
188.4170, 128.4375
188.8991, 129.9688
189.3812, 139.1758
189.8634, 159.5156
190.3455, 186.8945
190.8276, 194.5195
191.3097, 175.1797
191.7918, 146.8047
192.2739, 143.4023
192.7561, 165.8164
193.2382, 188.6641
193.7203, 194.7930
194.2024, 185.5469
194.6845, 186.8008
195.1666, 203.6641
195.6488, 225.9688
196.1309, 232.2500
196.6130, 221.3047
197.0951, 208.1758
197.5772, 200.9609
198.0593, 199.8750
198.5415, 203.0078
199.0236, 213.2344
199.5057, 224.3438
199.9878, 217.5430
200.4699, 188.6602
200.9520, 162.8555
201.4342, 157.7148
201.9163, 175.5312
202.3984, 187.1172
202.8805, 190.8633
203.3626, 186.9453
203.8447, 173.4375
204.3269, 147.5898
204.8090, 122.4023
205.2911, 106.2383
205.7732, 100.5898
206.2553, 92.89453
206.7374, 80.25781
207.2196, 66.60156
207.7017, 64.75781
208.1838, 79.26953
208.6659, 93.53125
209.1480, 95.62109
209.6301, 81.23828
210.1123, 76.87500
210.5944, 88.12500
211.0765, 108.6953
211.5586, 119.6836
212.0407, 118.2305
212.5228, 113.8633
213.0050, 109.3867
213.4871, 101.3945
213.9692, 107.3906
214.4513, 137.0859
214.9334, 177.2656
215.4155, 187.1797
215.8977, 154.6133
216.3798, 116.3945
216.8619, 91.18359
217.3440, 77.98047
217.8261, 75.03906
218.3082, 86.26953
218.7904, 105.7969
219.2725, 115.6523
219.7546, 112.0859
220.2367, 104.7383
220.7188, 98.95312
221.2009, 98.14453
221.6831, 91.30469
222.1652, 78.51562
222.6473, 60.32422
223.1294, 35.16406
223.6115, 4.968750
224.0936, 37.08984
224.5758, 47.75000
225.0579, 25.04297
225.5400, 8.484375
226.0221, 1.207031
226.5042, 4.941406
226.9863, 3.117188
227.4685, 7.109375
227.9506, 18.12109
228.4327, 28.35156
228.9148, 44.32031
229.3969, 43.81250
229.8790, 19.66406
230.3612, 18.26953
230.8433, 44.30078
231.3254, 49.69531
231.8075, 56.02344
232.2896, 73.22266
232.7717, 106.8594
233.2539, 136.5938
233.7360, 163.3281
234.2181, 184.2695
234.7002, 191.0078
235.1823, 168.3945
235.6644, 153.2305
236.1466, 163.8672
236.6287, 217.9453
237.1108, 247.7344
237.5929, 242.5859
238.0750, 216.7852
238.5571, 199.8984
239.0393, 199.3047
239.5214, 196.5117
240.0035, 184.5078
240.4856, 160.4336
240.9677, 138.0508
241.4498, 118.4844
241.9320, 101.2344
242.4141, 85.31641
242.8962, 71.52734
243.3783, 59.46094
243.8604, 49.62500
244.3425, 43.05859
244.8247, 37.02734
245.3068, 31.41406
245.7889, 26.77734
246.2710, 24.58594
246.7531, 26.92969
247.2352, 27.44922
247.7174, 22.57422
248.1995, 9.292969
248.6816, 2.468750
249.1637, 1.121094
249.6458, 6.230469
250.1279, 20.80078
250.6101, 53.31250
251.0922, 78.86719
251.5743, 87.90234
252.0564, 77.59766
252.5385, 72.95312
253.0206, 76.29297
253.5028, 84.34375
253.9849, 91.35938
254.4670, 96.96875
254.9491, 101.9492
255.4312, 105.7422
255.9133, 107.7734
256.3955, 118.0234
256.8776, 145.5703
257.3597, 171.2695
257.8418, 171.7148
258.3239, 132.3789
258.8061, 102.0234
259.2882, 91.71875
259.7703, 101.2031
260.2524, 111.1484
260.7345, 123.4141
261.2166, 133.9648
261.6988, 139.9570
262.1809, 140.5977
262.6630, 137.3398
263.1451, 128.2500
263.6272, 114.8125
264.1093, 108.1172
264.5915, 110.0469
265.0736, 116.4805
265.5557, 128.6484
266.0378, 152.9297
266.5199, 157.6367
267.0020, 130.1133
267.4842, 79.58594
267.9663, 54.67578
268.4484, 62.39453
268.9305, 78.88281
269.4126, 86.88281
269.8947, 83.67188
270.3769, 84.99219
270.8590, 94.34375
271.3411, 108.2227
271.8232, 113.5469
272.3053, 107.6406
272.7874, 100.7070
273.2696, 97.76172
273.7517, 98.28125
274.2338, 107.1094
274.7159, 128.3555
275.1980, 154.7461
275.6801, 166.2227
276.1623, 159.7266
276.6444, 153.3906
277.1265, 159.4922
277.6086, 180.3711
278.0907, 190.0898
278.5728, 187.1016
279.0550, 175.2266
279.5371, 156.9570
280.0192, 130.4883
280.5013, 112.2539
280.9834, 112.3828
281.4655, 129.8945
281.9477, 142.0312
282.4298, 147.5664
282.9119, 153.9141
283.3940, 168.3398
283.8761, 190.0156
284.3582, 214.5430
284.8404, 245.5547
285.3225, 278.5156
285.8046, 285.9727
286.2867, 263.6914
286.7688, 232.7188
287.2509, 218.3711
287.7331, 220.8242
288.2152, 225.1523
288.6973, 231.4688
289.1794, 234.7930
289.6615, 212.3125
290.1436, 162.5859
290.6258, 111.6367
291.1079, 86.44141
291.5900, 83.09766
292.0721, 78.02344
292.5542, 64.45703
293.0363, 47.42188
293.5185, 37.70703
294.0006, 35.53516
294.4827, 33.55859
294.9648, 22.92188
295.4469, 7.722656
295.9290, 1.308594
296.4112, 8.246094
296.8933, 20.58594
297.3754, 22.78516
297.8575, 16.65234
298.3396, 16.28125
298.8217, 35.11328
299.3039, 65.02344
299.7860, 88.90234
300.2681, 103.5781
300.7502, 114.8984
301.2323, 134.1289
301.7144, 157.0391
302.1966, 167.3125
302.6787, 143.9844
303.1608, 108.1250
303.6429, 89.91406
304.1250, 93.21094
304.6071, 102.9688
305.0893, 109.1797
305.5714, 111.9336
306.0535, 110.2852
306.5356, 102.6445
307.0177, 91.50781
307.4998, 78.56641
307.9820, 64.07031
308.4641, 49.04297
308.9462, 35.49219
309.4283, 22.10547
309.9104, 6.890625
310.3925, 20.27344
310.8747, 41.35156
311.3568, 39.42969
311.8389, 16.95312
312.3210, 5.660156
312.8031, 20.34766
313.2852, 29.14453
313.7674, 33.62500
314.2495, 28.19531
314.7316, 25.91797
315.2137, 38.45312
315.6958, 60.30469
316.1779, 73.44922
316.6601, 58.71094
317.1422, 39.48828
317.6243, 30.71875
318.1064, 36.84766
318.5885, 48.20703
319.0706, 66.30469
319.5528, 86.66406
320.0349, 100.8125
320.5170, 99.44141
320.9991, 96.71094
321.4812, 98.69141
321.9633, 107.1719
322.4455, 116.6406
322.9276, 129.7188
323.4097, 142.8438
323.8918, 151.6719
324.3739, 151.7969
324.8560, 151.8711
325.3382, 154.8125
325.8203, 161.5273
326.3024, 167.3750
326.7845, 179.5625
327.2666, 187.5273
327.7487, 182.7695
328.2309, 152.5703
328.7130, 124.7109
329.1951, 101.2148
329.6772, 82.04297
330.1593, 66.64453
330.6414, 50.79297
331.1236, 42.12891
331.6057, 44.82422
332.0878, 61.65625
332.5699, 84.71875
333.0520, 120.4180
333.5341, 159.9570
334.0163, 177.1016
334.4984, 159.3789
334.9805, 138.8516
335.4626, 128.9375
335.9447, 132.7266
336.4268, 136.6875
336.9090, 143.7500
337.3911, 148.9922
337.8732, 141.6055
338.3553, 116.8047
338.8374, 98.13281
339.3195, 96.65234
339.8017, 111.6094
340.2838, 114.8633
340.7659, 103.9492
341.2480, 89.05078
341.7301, 82.08594
342.2122, 83.76953
342.6944, 81.17188
343.1765, 68.26953
343.6586, 50.17578
344.1407, 46.52344
344.6228, 58.14844
345.1049, 70.81250
345.5871, 70.63281
346.0692, 60.14453
346.5513, 56.76562
347.0334, 64.45312
347.5155, 76.41406
347.9977, 79.17969
348.4798, 74.18359
348.9619, 72.30078
349.4440, 86.41406
349.9261, 107.8203
350.4082, 114.1172
350.8904, 101.1328
351.3725, 84.32422
351.8546, 79.61719
352.3367, 85.12500
352.8188, 95.81641
353.3009, 122.2188
353.7831, 145.9102
354.2652, 139.2617
354.7473, 103.5430
355.2294, 67.10938
355.7115, 49.22266
356.1936, 43.48828
356.6758, 41.76953
357.1579, 43.75391
357.6400, 46.94531
358.1221, 48.96875
358.6042, 50.65625
359.0863, 55.31641
359.5685, 69.44922
360.0506, 84.61328
360.5327, 95.11328
361.0148, 100.5117
361.4969, 100.4414
361.9790, 88.37500
362.4612, 71.68359
362.9433, 63.19141
363.4254, 64.95312
363.9075, 75.60156
364.3896, 100.5000
364.8717, 143.1953
365.3539, 171.4688
365.8360, 168.8945
366.3181, 153.0273
366.8002, 140.7578
367.2823, 132.5156
367.7644, 129.0508
368.2466, 131.9023
368.7287, 139.7227
369.2108, 143.0586
369.6929, 140.1719
370.1750, 135.5508
370.6571, 130.6914
371.1393, 126.6914
371.6214, 121.5586
372.1035, 115.3281
372.5856, 108.6250
373.0677, 102.0781
373.5498, 94.80469
374.0320, 90.24609
374.5141, 89.28125
374.9962, 91.76172
375.4783, 101.6523
375.9604, 124.1016
376.4425, 145.4258
376.9247, 148.5859
377.4068, 131.6367
377.8889, 104.9219
378.3710, 63.78516
378.8531, 15.46484
379.3352, 6.378906
379.8174, 1.343750
380.2995, 19.97656
380.7816, 38.46484
381.2637, 55.46875
381.7458, 58.50391
382.2279, 39.49609
382.7101, 16.67188
383.1922, 24.44531
383.6743, 58.62500
384.1564, 87.85547
384.6385, 90.21875
385.1206, 76.53125
385.6028, 67.87891
386.0849, 65.65234
386.5670, 68.97266
387.0491, 82.90625
387.5312, 101.7031
388.0133, 112.8438
388.4955, 102.6406
388.9776, 90.21094
389.4597, 96.75000
389.9418, 118.8242
390.4239, 136.4766
390.9060, 131.8242
391.3882, 120.3242
391.8703, 116.8164
392.3524, 128.8867
392.8345, 140.0703
393.3166, 136.9258
393.7987, 127.6250
394.2809, 128.2734
394.7630, 155.8672
395.2451, 184.3555
395.7272, 200.8281
396.2093, 201.3281
396.6914, 206.6875
397.1736, 232.5586
397.6557, 259.0938
398.1378, 268.1328
398.6199, 230.6992
399.1020, 205.1602
399.5841, 205.9531
400.0663, 227.7070
400.5484, 235.5078
401.0305, 222.0039
401.5126, 202.6445
401.9947, 184.8203
402.4768, 169.9062
402.9590, 155.2461
403.4411, 143.2148
403.9232, 131.0352
404.4053, 113.2383
404.8874, 89.20703
405.3695, 63.82422
405.8517, 37.21484
406.3338, 10.38672
406.8159, 8.937500
407.2980, 21.21875
407.7801, 23.17578
408.2622, 6.464844
408.7444, 27.81250
409.2265, 52.57812
409.7086, 59.50781
410.1907, 57.44922
410.6728, 66.69141
411.1549, 85.66797
411.6371, 100.6250
412.1192, 92.50000
412.6013, 74.87500
413.0834, 82.30859
413.5655, 119.8008
414.0476, 160.0898
414.5298, 181.2461
415.0119, 185.6445
415.4940, 179.0508
415.9761, 154.9961
416.4582, 127.4844
416.9403, 107.3477
417.4225, 94.43750
417.9046, 87.09375
418.3867, 96.05859
418.8688, 104.1914
419.3509, 93.76172
419.8330, 48.71875
420.3152, 13.80859
420.7973, 18.24219
421.2794, 43.42578
421.7615, 55.49609
422.2436, 34.09766
422.7257, 9.976563
423.2079, 6.390625
423.6900, 13.33984
424.1721, 19.59375
424.6542, 29.60938
425.1363, 36.82422
425.6184, 36.69141
426.1006, 33.93750
426.5827, 17.16406
427.0648, 24.05078
427.5469, 78.72266
428.0290, 105.9062
428.5111, 92.46875
428.9933, 74.82812
429.4754, 69.07812
429.9575, 76.97656
430.4396, 78.85156
430.9217, 72.84375
431.4038, 63.68750
431.8860, 58.34375
432.3681, 57.20312
432.8502, 51.87109
433.3323, 39.15625
433.8144, 22.57812
434.2965, 10.48438
434.7787, 3.554688
435.2608, 1.156250
435.7429, 10.32812
436.2250, 24.32812
436.7071, 22.98828
437.1892, 1.484375
437.6714, 22.89062
438.1535, 37.37109
438.6356, 41.32422
439.1177, 33.20312
439.5998, 3.535156
440.0819, 40.54297
440.5641, 48.91797
441.0462, 30.98438
441.5283, 14.65234
442.0104, 15.61328
442.4925, 23.05859
442.9746, 25.92578
443.4568, 10.77344
443.9389, 9.964844
444.4210, 45.04297
444.9031, 99.81250
445.3852, 143.8086
445.8673, 175.0312
446.3495, 190.5273
446.8316, 183.1367
447.3137, 147.8984
447.7958, 130.0195
448.2779, 139.4141
448.7600, 159.0312
449.2422, 175.9727
449.7243, 185.3008
450.2064, 204.4844
450.6885, 238.9062
451.1706, 283.0078
451.6527, 320.0977
452.1349, 348.7109
452.6170, 375.7383
453.0991, 401.1562
453.5812, 425.5938
454.0633, 458.7695
454.5454, 501.3008
455.0276, 549.5195
455.5097, 598.0195
455.9918, 647.9414
456.4739, 706.0469
456.9560, 782.9805
457.4381, 856.5117
457.9203, 879.4727
458.4024, 862.7500
458.8845, 857.9570
459.3666, 905.1133
459.8488, 977.6719
460.3309, 1045.375
460.8130, 1105.582
461.2951, 1160.273
461.7772, 1208.504
462.2593, 1251.711
462.7415, 1290.664
463.2236, 1332.070
463.7057, 1362.391
464.1878, 1369.074
464.6699, 1358.508
465.1520, 1354.852
465.6342, 1362.770
466.1163, 1382.027
466.5984, 1413.016
467.0805, 1455.691
467.5626, 1503.359
468.0447, 1559.242
468.5269, 1618.484
469.0090, 1677.906
469.4911, 1741.324
469.9732, 1797.004
470.4553, 1844.238
470.9374, 1882.215
471.4196, 1910.645
471.9017, 1930.891
472.3838, 1934.309
472.8659, 1920.961
473.3480, 1890.219
473.8301, 1814.457
474.3123, 1687.992
474.7944, 1534.531
475.2765, 1375.164
475.7586, 1211.340
476.2407, 1049.852
476.7228, 886.9727
477.2050, 733.9453
477.6871, 606.6992
478.1692, 504.8203
478.6513, 430.2969
479.1334, 410.8828
479.6155, 406.4297
480.0977, 369.5781
480.5798, 290.6523
481.0619, 213.2773
481.5440, 164.4648
482.0261, 133.3320
482.5082, 106.6484
482.9904, 78.81250
483.4725, 57.74609
483.9546, 44.98828
484.4367, 41.53125
484.9188, 48.51562
485.4009, 81.01172
485.8831, 106.1406
486.3652, 106.0117
486.8473, 65.02734
487.3294, 52.64844
487.8115, 82.70312
488.2936, 126.8711
488.7758, 158.4766
489.2579, 177.8398
489.7400, 179.2891
490.2221, 154.4531
490.7042, 115.1562
491.1863, 103.2070
491.6685, 121.9570
492.1506, 133.2539
492.6327, 108.3672
493.1148, 57.25391
493.5969, 25.79297
494.0790, 16.23047
494.5612, 15.78516
495.0433, 18.25781
495.5254, 19.80078
496.0075, 12.23047
496.4896, 12.54297
496.9717, 34.81641
497.4539, 32.35156
497.9360, 12.42188
498.4181, 7.382813
498.9002, 12.56641
499.3823, 19.48438
499.8644, 42.82812
500.3466, 85.14844
500.8287, 116.5352
501.3108, 119.4961
501.7929, 110.9961
502.2750, 104.0898
502.7571, 91.26172
503.2393, 88.91016
503.7214, 103.3359
504.2035, 126.3086
504.6856, 142.1523
505.1677, 151.8672
505.6498, 151.7891
506.1320, 137.8125
506.6141, 111.1914
507.0962, 96.68359
507.5783, 98.12891
508.0604, 101.8516
508.5425, 98.29688
509.0247, 88.20703
509.5068, 72.01172
509.9889, 48.05469
510.4710, 25.15625
510.9531, 10.68359
511.4352, 6.628906
511.9174, 20.30078
512.3995, 80.31641
512.8816, 142.1719
513.3637, 145.9648
513.8458, 99.82031
514.3279, 54.93359
514.8101, 37.20703
515.2922, 34.50391
515.7743, 38.35156
516.2564, 48.30078
516.7385, 58.66406
517.2206, 71.80859
517.7028, 81.76172
518.1849, 81.71484
518.6670, 66.40234
519.1491, 45.87891
519.6312, 15.66797
520.1133, 18.90625
520.5955, 34.93359
521.0776, 18.94922
521.5597, 4.617188
522.0418, 7.070313
522.5239, 27.58594
523.0060, 42.26562
523.4882, 51.97266
523.9703, 50.97656
524.4524, 22.96875
524.9345, 28.74219
525.4166, 53.93750
525.8987, 34.70312
526.3809, 1.730469
526.8630, 5.441406
527.3451, 38.35547
527.8272, 70.58203
528.3093, 78.02344
528.7914, 81.13281
529.2736, 105.4570
529.7557, 149.5664
530.2378, 190.5820
530.7199, 221.0625
531.2020, 239.4570
531.6841, 241.7031
532.1663, 217.8711
532.6484, 199.0742
533.1305, 201.1133
533.6126, 211.0156
534.0947, 210.5508
534.5768, 194.9531
535.0590, 173.8633
535.5411, 145.5820
536.0232, 112.9844
536.5053, 92.80859
536.9874, 92.22266
537.4695, 90.59766
537.9517, 70.90625
538.4338, 31.12109
538.9159, 29.32812
539.3980, 73.26172
539.8801, 124.0625
540.3622, 132.2031
540.8444, 106.4062
541.3265, 90.21484
541.8086, 95.32422
542.2907, 108.5273
542.7728, 112.9805
543.2549, 111.2266
543.7371, 110.7656
544.2192, 113.8867
544.7013, 120.5625
545.1834, 134.9258
545.6655, 156.3242
546.1476, 169.9922
546.6298, 163.9414
547.1119, 152.9727
547.5940, 147.0312
548.0761, 150.0195
548.5582, 154.3242
549.0403, 163.9727
549.5225, 173.1016
550.0046, 172.8047
550.4867, 153.8633
550.9688, 144.3008
551.4509, 150.3633
551.9330, 168.3906
552.4152, 187.0586
552.8973, 207.1719
553.3794, 220.6211
553.8615, 216.9102
554.3436, 200.1172
554.8257, 198.5625
555.3079, 213.5977
555.7900, 230.9727
556.2721, 236.3086
556.7542, 233.5859
557.2363, 230.7734
557.7184, 230.4609
558.2006, 228.7930
558.6827, 219.5938
559.1648, 207.9688
559.6469, 202.3633
560.1290, 224.7773
560.6111, 235.8633
561.0933, 207.7852
561.5754, 148.6719
562.0575, 112.5352
562.5396, 127.0156
563.0217, 147.3828
563.5038, 157.6094
563.9860, 156.1367
564.4681, 149.6406
564.9502, 133.6836
565.4323, 119.1719
565.9144, 119.2344
566.3965, 135.6797
566.8787, 145.6953
567.3608, 144.7344
567.8429, 138.9570
568.3250, 138.7461
568.8071, 143.3320
569.2892, 147.0078
569.7714, 142.5742
570.2535, 138.9531
570.7356, 150.3594
571.2177, 174.8555
571.6998, 199.0312
572.1819, 220.3320
572.6641, 234.9688
573.1462, 234.6211
573.6283, 212.6484
574.1104, 205.4766
574.5925, 249.0781
575.0746, 298.4492
575.5568, 312.8125
576.0389, 243.1484
576.5210, 201.9414
577.0031, 209.7773
577.4852, 241.8906
577.9673, 244.9219
578.4495, 209.8867
578.9316, 176.9258
579.4137, 156.7578
579.8958, 148.4375
580.3779, 152.8203
580.8600, 171.0273
581.3422, 183.5273
581.8243, 169.1641
582.3064, 142.1562
582.7885, 131.5703
583.2706, 139.3398
583.7527, 157.6875
584.2349, 194.5312
584.7170, 232.3867
585.1991, 247.6680
585.6812, 221.0195
586.1633, 192.7930
586.6454, 181.2266
587.1276, 178.6758
587.6097, 171.5586
588.0918, 142.9609
588.5739, 125.4531
589.0560, 132.6953
589.5381, 159.6055
590.0203, 169.3281
590.5024, 157.9883
590.9845, 138.1250
591.4666, 112.5508
591.9487, 81.56250
592.4308, 66.62891
592.9130, 71.28516
593.3951, 77.96094
593.8772, 64.41016
594.3593, 38.51953
594.8414, 25.77344
595.3235, 32.40234
595.8057, 48.03125
596.2878, 68.52734
596.7699, 89.60547
597.2520, 102.7383
597.7341, 96.70703
598.2162, 89.03906
598.6984, 84.08203
599.1805, 82.85547
599.6626, 90.67578
600.1447, 123.2695
600.6268, 149.9297
601.1089, 153.7734
601.5911, 131.3828
602.0732, 130.4727
602.5553, 163.6680
603.0374, 199.0273
603.5195, 208.6953
604.0016, 187.9102
604.4838, 193.0391
604.9659, 234.8516
605.4480, 282.1562
605.9301, 280.8125
606.4122, 246.4805
606.8943, 244.6758
607.3765, 305.6562
607.8586, 377.8750
608.3407, 403.7773
608.8228, 400.8633
609.3049, 406.2070
609.7870, 439.1250
610.2692, 480.0664
610.7513, 524.6953
611.2334, 571.4961
611.7155, 608.0820
612.1976, 609.0352
612.6797, 622.1641
613.1619, 670.3320
613.6440, 762.6445
614.1261, 843.5625
614.6082, 909.3320
615.0903, 973.4766
615.5724, 1046.867
616.0546, 1126.957
616.5367, 1226.863
617.0188, 1350.309
617.5009, 1488.590
617.9830, 1624.680
618.4651, 1763.668
618.9473, 1923.992
619.4294, 2118.090
619.9115, 2329.211
620.3936, 2534.742
620.8757, 2741.734
621.3578, 2976.977
621.8400, 3308.055
622.3221, 3623.938
622.8042, 3889.258
623.2863, 4104.062
623.7684, 4198.723
624.2505, 4114.746
624.7327, 3955.957
625.2148, 3755.863
625.6969, 3483.543
626.1790, 3303.246
626.6611, 3232.785
627.1432, 3220.180
627.6254, 3219.598
628.1075, 3230.758
628.5896, 3252.555
629.0717, 3289.199
629.5538, 3321.738
630.0359, 3327.180
630.5181, 3307.613
631.0002, 3268.641
631.4823, 3190.375
631.9644, 3114.719
632.4465, 3082.711
632.9286, 3079.047
633.4108, 3056.469
633.8929, 2992.809
634.3750, 2912.859
634.8571, 2815.699
635.3392, 2699.809
635.8214, 2619.145
636.3035, 2605.059
636.7856, 2582.422
637.2677, 2514.098
637.7498, 2401.137
638.2319, 2236.508
638.7141, 2014.953
639.1962, 1760.074
639.6783, 1468.523
640.1604, 1156.863
640.6425, 894.1641
641.1246, 692.4727
641.6068, 535.9062
642.0889, 415.3438
642.5710, 325.7812
643.0531, 260.8750
643.5352, 230.0352
644.0173, 209.4258
644.4995, 191.5117
644.9816, 175.7148
645.4637, 161.1992
645.9458, 151.1680
646.4279, 137.3633
646.9100, 112.8477
647.3922, 79.49219
647.8743, 66.58594
648.3564, 78.68359
648.8385, 96.95703
649.3206, 108.7070
649.8027, 115.8438
650.2849, 137.6328
650.7670, 175.1836
651.2491, 207.7148
651.7312, 215.8555
652.2133, 206.1992
652.6954, 187.0469
653.1776, 157.1445
653.6597, 129.7305
654.1418, 109.0312
654.6239, 96.78125
655.1060, 94.85156
655.5881, 125.9336
656.0703, 140.3516
656.5524, 118.0352
657.0345, 78.30078
657.5166, 55.12891
657.9987, 54.48438
658.4808, 55.61719
658.9630, 55.98047
659.4451, 53.63672
659.9272, 38.66406
660.4093, 11.12891
660.8914, 11.71094
661.3735, 13.95703
661.8557, 7.285156
662.3378, 14.34766
662.8199, 33.57422
663.3020, 52.88281
663.7841, 74.74609
664.2662, 85.90234
664.7484, 68.49219
665.2305, 14.32031
665.7126, 24.56250
666.1947, 17.26953
666.6768, 2.476563
667.1589, 9.316406
667.6411, 58.57031
668.1232, 81.68750
668.6053, 69.78906
669.0874, 42.04688
669.5695, 16.89062
670.0516, 6.132813
670.5338, 5.574219
671.0159, 31.13281
671.4980, 72.67578
671.9801, 64.25781
672.4622, 21.64453
672.9443, 11.87109
673.4265, 10.28125
673.9086, 0.3867190
674.3907, 2.695313
674.8728, 0.4296880
675.3549, 3.878906
675.8370, 7.765625
676.3192, 13.78516
676.8013, 26.83594
677.2834, 45.08594
677.7655, 47.60547
678.2476, 30.33594
678.7297, 5.144531
679.2119, 29.20312
679.6940, 70.98438
680.1761, 72.52734
680.6582, 29.60547
681.1403, 12.17969
681.6224, 7.988281
682.1046, 22.42188
682.5867, 40.44922
683.0688, 39.90234
683.5509, 39.18359
684.0330, 54.52344
684.5151, 74.36719
684.9973, 87.29688
685.4794, 87.97266
685.9615, 86.83203
686.4436, 82.70703
686.9257, 79.38672
687.4078, 81.71484
687.8900, 92.00391
688.3721, 104.2773
688.8542, 118.6992
689.3363, 133.9492
689.8184, 148.6328
690.3005, 162.1953
690.7827, 166.3047
691.2648, 154.5312
691.7469, 134.5352
692.2290, 110.3008
692.7111, 85.62891
693.1932, 73.87891
693.6754, 81.08984
694.1575, 102.9219
694.6396, 148.7852
695.1217, 214.0820
695.6038, 253.4531
696.0859, 238.9883
696.5681, 217.1562
697.0502, 204.7422
697.5323, 202.3164
698.0144, 194.6094
698.4965, 180.9453
698.9786, 165.9414
699.4608, 148.9688
699.9429, 133.7031
700.4250, 141.6406
700.9071, 176.3906
701.3892, 201.0352
701.8713, 168.2969
702.3535, 113.4336
702.8356, 81.46875
703.3177, 87.55469
703.7998, 97.36719
704.2819, 94.73828
704.7640, 90.38281
705.2462, 96.83984
705.7283, 130.3438
706.2104, 146.2227
706.6925, 136.1211
707.1746, 113.5117
707.6567, 97.51953
708.1389, 87.98047
708.6210, 86.31641
709.1031, 94.69922
709.5852, 107.5977
710.0673, 117.8242
710.5494, 125.2070
711.0316, 129.9766
711.5137, 134.1641
711.9958, 133.8789
712.4779, 122.1289
712.9600, 104.1445
713.4421, 95.49219
713.9243, 108.2930
714.4064, 122.9883
714.8885, 136.0430
715.3706, 146.7422
715.8527, 147.0195
716.3348, 133.7734
716.8170, 118.6562
717.2991, 104.0273
717.7812, 91.49609
718.2633, 95.17578
718.7454, 113.7734
719.2275, 125.3164
719.7097, 102.7305
720.1918, 70.26562
720.6739, 60.39062
721.1560, 75.92969
721.6381, 89.89844
722.1202, 89.04688
722.6024, 85.69531
723.0845, 89.83203
723.5666, 103.5586
724.0487, 112.8086
724.5308, 116.0000
725.0129, 117.8281
725.4951, 121.8008
725.9772, 127.3242
726.4593, 133.1055
726.9414, 139.1406
727.4235, 142.7617
727.9056, 139.3203
728.3878, 131.6484
728.8699, 124.6523
729.3520, 117.0078
729.8341, 110.2266
730.3162, 103.7852
730.7983, 97.72266
731.2805, 95.63672
731.7626, 96.50781
732.2447, 104.7031
732.7268, 123.1523
733.2089, 147.2188
733.6910, 171.6875
734.1732, 199.3828
734.6553, 215.3242
735.1374, 214.7773
735.6195, 203.6289
736.1016, 183.2969
736.5837, 159.3828
737.0659, 155.3398
737.5480, 199.9102
738.0301, 245.2148
738.5122, 235.0156
738.9943, 188.3398
739.4764, 160.8242
739.9586, 199.4531
740.4407, 230.4258
740.9228, 220.5312
741.4049, 180.4727
741.8870, 158.1133
742.3691, 158.9180
742.8513, 163.7539
743.3334, 169.6484
743.8155, 173.7656
744.2976, 157.8516
744.7797, 123.6758
745.2618, 94.72266
745.7440, 87.06641
746.2261, 92.08203
746.7082, 103.6133
747.1903, 119.9961
747.6724, 132.1211
748.1545, 128.2227
748.6367, 125.1992
749.1188, 137.0078
749.6009, 167.2617
750.0830, 174.5977
750.5651, 149.9844
751.0472, 118.5938
751.5294, 92.61719
752.0115, 71.82812
752.4936, 60.68750
752.9757, 59.65234
753.4578, 59.93750
753.9399, 52.49609
754.4221, 42.48438
754.9042, 40.39844
755.3863, 49.06250
755.8684, 49.28125
756.3505, 19.37891
756.8326, 14.08203
757.3148, 29.81250
757.7969, 18.37891
758.2790, 7.113281
758.7611, 2.503906
759.2432, 14.50781
759.7253, 35.47266
760.2075, 65.82812
760.6896, 84.35156
761.1717, 89.67188
761.6538, 80.43359
762.1359, 40.20703
762.6180, 11.88281
763.1002, 38.31641
763.5823, 25.68750
764.0644, 6.937500
764.5465, 7.441406
765.0286, 16.14844
765.5107, 17.49609
765.9929, 2.937500
766.4750, 5.304688
766.9571, 25.58594
767.4392, 60.34766
767.9213, 51.49219
768.4034, 3.660156
768.8856, 22.47656
769.3677, 14.51953
769.8498, 69.92969
770.3319, 98.69141
770.8140, 109.0391
771.2961, 118.7812
771.7783, 132.2773
772.2604, 146.5508
772.7425, 160.0898
773.2246, 172.8398
773.7067, 185.7227
774.1888, 209.5352
774.6710, 216.3633
775.1531, 194.9297
775.6352, 163.6641
776.1173, 155.7656
776.5994, 171.9062
777.0815, 198.9961
777.5637, 241.0078
778.0458, 278.2227
778.5279, 271.5703
779.0100, 238.5195
779.4921, 218.7578
779.9742, 238.7656
780.4564, 262.7578
780.9385, 282.6484
781.4206, 294.0742
781.9027, 285.7500
782.3848, 234.6992
782.8669, 205.1289
783.3491, 220.6836
783.8312, 254.4844
784.3133, 230.6914
784.7954, 151.4688
785.2775, 91.41797
785.7596, 81.91406
786.2418, 96.73438
786.7239, 106.0000
787.2060, 110.7539
787.6881, 113.9453
788.1702, 111.9570
788.6523, 113.1641
789.1345, 125.4570
789.6166, 143.1172
790.0987, 149.6758
790.5808, 136.9062
791.0629, 127.3945
791.5450, 124.7578
792.0272, 129.1914
792.5093, 144.8711
792.9914, 170.5898
793.4735, 189.7852
793.9556, 195.5078
794.4377, 191.8008
794.9199, 178.3711
795.4020, 159.4492
795.8841, 145.9648
796.3662, 142.9062
796.8483, 145.3164
797.3304, 155.8008
797.8126, 170.7617
798.2947, 178.0117
798.7768, 175.2227
799.2589, 172.3789
799.7410, 173.9766
800.2231, 176.7930
800.7053, 170.8203
801.1874, 157.1602
801.6695, 140.0430
802.1516, 111.4414
802.6337, 89.54297
803.1158, 95.79297
803.5980, 121.8672
804.0801, 145.9297
804.5622, 160.3164
805.0443, 171.9062
805.5264, 180.6289
806.0085, 187.7578
806.4907, 201.9805
806.9728, 228.0273
807.4549, 231.7773
807.9370, 189.7461
808.4191, 131.7383
808.9012, 123.6328
809.3834, 154.6133
809.8655, 186.0391
810.3476, 203.2891
810.8297, 211.3555
811.3118, 208.8555
811.7939, 199.5273
812.2761, 193.5820
812.7582, 194.4648
813.2403, 196.9258
813.7224, 199.2617
814.2045, 203.2266
814.6866, 216.0820
815.1688, 237.3945
815.6509, 254.3789
816.1330, 259.2969
816.6151, 260.0273
817.0972, 262.2539
817.5793, 270.0898
818.0615, 292.6523
818.5436, 356.6680
819.0257, 412.1875
819.5078, 434.8984
819.9899, 430.0781
820.4720, 418.2656
820.9542, 397.2734
821.4363, 375.0234
821.9184, 352.4297
822.4005, 332.9883
822.8826, 326.6602
823.3647, 330.9727
823.8469, 338.4844
824.3290, 357.9062
824.8111, 370.7188
825.2932, 355.2500
825.7753, 322.1484
826.2574, 292.3086
826.7396, 261.1094
827.2217, 248.7969
827.7038, 269.6484
828.1859, 304.6172
828.6681, 315.9297
829.1502, 298.0664
829.6323, 289.1055
830.1144, 301.2266
830.5966, 317.4062
831.0787, 308.5273
831.5608, 284.6562
832.0429, 272.2266
832.5250, 288.0312
833.0071, 301.8555
833.4893, 301.7383
833.9714, 292.1055
834.4535, 279.6797
834.9356, 260.6211
835.4177, 246.6562
835.8998, 237.3750
836.3820, 235.1602
836.8641, 246.7383
837.3462, 270.3398
837.8283, 294.2109
838.3104, 317.9727
838.7925, 331.6445
839.2747, 317.7891
839.7568, 290.3164
840.2389, 268.5039
840.7210, 259.8516
841.2031, 252.3164
841.6852, 252.0664
842.1674, 246.2344
842.6495, 216.8633
843.1316, 155.9648
843.6137, 126.8711
844.0958, 140.3945
844.5779, 164.2734
845.0601, 161.3594
845.5422, 141.2031
846.0243, 121.5234
846.5064, 104.0664
846.9885, 95.00000
847.4706, 98.66016
847.9528, 110.8359
848.4349, 128.7227
848.9170, 153.8203
849.3991, 176.9062
849.8812, 200.8789
850.3633, 214.7969
850.8455, 199.0859
851.3276, 160.7852
851.8097, 159.4414
852.2918, 199.2852
852.7739, 227.7969
853.2560, 190.4805
853.7382, 131.6367
854.2203, 93.90625
854.7024, 84.55859
855.1845, 74.41797
855.6666, 58.33203
856.1487, 40.94922
856.6309, 22.31641
857.1130, 2.796875
857.5951, 4.070313
858.0772, 2.054688
858.5593, 16.06250
859.0414, 40.25000
859.5236, 67.03516
860.0057, 79.64453
860.4878, 80.51562
860.9699, 90.14062
861.4520, 125.8359
861.9341, 164.4336
862.4163, 199.7500
862.8984, 230.5508
863.3805, 243.5195
863.8626, 233.7422
864.3447, 224.3633
864.8268, 227.2070
865.3090, 234.3594
865.7911, 214.2070
866.2732, 176.6016
866.7553, 163.6445
867.2374, 223.0430
867.7195, 286.9141
868.2017, 313.9922
868.6838, 312.4141
869.1659, 304.6641
869.6480, 290.9570
870.1301, 274.0664
870.6122, 252.8242
871.0944, 230.6445
871.5765, 219.0742
872.0586, 216.2539
872.5407, 204.1641
873.0228, 178.7812
873.5049, 143.2031
873.9871, 92.44531
874.4692, 37.35938
874.9513, 6.488281
875.4334, 22.48438
875.9155, 42.40625
876.3976, 80.52734
876.8798, 112.8086
877.3619, 106.1680
877.8440, 58.43359
878.3261, 17.45312
878.8082, 12.08594
879.2903, 27.09375
879.7725, 7.546875
880.2546, 22.58594
880.7367, 24.34766
881.2188, 15.05859
881.7009, 48.49609
882.1830, 57.25391
882.6652, 54.28906
883.1473, 47.51172
883.6294, 35.94531
884.1115, 28.75781
884.5936, 27.57031
885.0757, 26.14844
885.5579, 16.23438
886.0400, 5.082031
886.5221, 14.66016
887.0042, 43.46875
887.4863, 56.76953
887.9684, 17.93359
888.4506, 24.12500
888.9327, 43.90234
889.4148, 41.01562
889.8969, 20.67188
890.3790, 26.59766
890.8611, 59.21484
891.3433, 48.40625
891.8254, 19.03516
892.3075, 38.32812
892.7896, 95.32422
893.2717, 146.9141
893.7538, 169.4258
894.2360, 182.7461
894.7181, 188.5547
895.2002, 192.7461
895.6823, 213.4141
896.1644, 266.0781
896.6465, 297.1875
897.1287, 292.5977
897.6108, 275.4375
898.0929, 300.7148
898.5750, 354.4609
899.0571, 362.5391
899.5392, 290.1914
900.0214, 216.7070
900.5035, 217.7500
900.9856, 248.1602
901.4677, 254.1836
901.9498, 195.3281
902.4319, 168.5117
902.9141, 189.9805
903.3962, 220.8320
903.8783, 223.4102
904.3604, 200.7266
904.8425, 181.6016
905.3246, 167.2852
905.8068, 166.8203
906.2889, 201.0000
906.7710, 242.7148
907.2531, 265.8828
907.7352, 266.2812
908.2173, 268.9062
908.6995, 286.1289
909.1816, 293.6602
909.6637, 275.5195
910.1458, 237.6797
910.6279, 225.1211
911.1100, 236.5391
911.5922, 241.2617
912.0743, 211.0703
912.5564, 175.0195
913.0385, 158.5859
913.5206, 161.0508
914.0027, 178.6641
914.4849, 241.1953
914.9670, 278.5547
915.4491, 267.4883
915.9312, 232.2461
916.4133, 223.5508
916.8954, 240.6797
917.3776, 254.3633
917.8597, 256.5000
918.3418, 255.7969
918.8239, 261.3750
919.3060, 270.1055
919.7881, 277.4609
920.2703, 280.7773
920.7524, 285.0391
921.2345, 287.3906
921.7166, 293.8711
922.1987, 313.3438
922.6808, 346.6680
923.1630, 363.1289
923.6451, 360.6680
924.1272, 354.3867
924.6093, 355.7344
925.0914, 361.2344
925.5735, 368.9609
926.0557, 378.2031
926.5378, 381.8438
927.0199, 371.8164
927.5020, 362.4141
927.9841, 361.7734
928.4662, 366.2930
928.9484, 346.8867
929.4305, 304.0664
929.9126, 278.0625
930.3947, 297.0117
930.8768, 333.1367
931.3589, 368.4414
931.8411, 394.8281
932.3232, 392.9727
932.8053, 330.6250
933.2874, 272.2812
933.7695, 224.6680
934.2516, 188.2266
934.7338, 171.0703
935.2159, 175.6992
935.6980, 171.0586
936.1801, 147.9688
936.6622, 131.1406
937.1443, 152.5781
937.6265, 189.2305
938.1086, 209.1016
938.5907, 201.4453
939.0728, 210.5703
939.5549, 259.2695
940.0370, 299.4375
940.5192, 294.6523
941.0013, 248.1523
941.4834, 237.4336
941.9655, 261.6523
942.4476, 287.9141
942.9297, 308.5898
943.4119, 309.8164
943.8940, 264.4883
944.3761, 184.7070
944.8582, 121.3828
945.3403, 90.93359
945.8224, 73.30078
946.3046, 67.90625
946.7867, 68.83203
947.2688, 61.98828
947.7509, 48.91797
948.2330, 29.75000
948.7151, 2.238281
949.1973, 28.55469
949.6794, 23.12500
950.1615, 5.687500
950.6436, 0.6367190
951.1257, 19.55859
951.6078, 37.48828
952.0900, 57.53906
952.5721, 69.87500
953.0542, 66.96484
953.5363, 49.26172
954.0184, 11.39062
954.5005, 44.96094
954.9827, 88.65234
955.4648, 84.00000
955.9469, 68.60156
956.4290, 62.03906
956.9111, 66.84766
957.3932, 98.81250
957.8754, 178.5469
958.3575, 232.5859
958.8396, 225.8477
959.3217, 189.9141
959.8038, 209.2773
960.2859, 266.5430
960.7681, 299.2695
961.2502, 266.1250
961.7323, 233.3828
962.2144, 252.4180
962.6965, 287.7344
963.1786, 292.5391
963.6608, 255.7773
964.1429, 213.9727
964.6250, 161.4922
965.1071, 131.1406
965.5892, 193.9883
966.0714, 294.1875
966.5535, 297.0039
967.0356, 194.6562
967.5177, 100.3242
967.9998, 64.82031
968.4819, 60.65625
968.9641, 82.07422
969.4462, 123.5547
969.9283, 152.0352
970.4104, 165.6250
970.8925, 174.5078
971.3746, 176.6445
971.8568, 182.7031
972.3389, 211.0078
972.8210, 255.2695
973.3031, 303.5625
973.7852, 356.6289
974.2673, 404.2812
974.7495, 438.5312
975.2316, 471.7930
975.7137, 520.5156
976.1958, 586.4727
976.6779, 641.9336
977.1600, 685.8516
977.6422, 716.4180
978.1243, 712.4805
978.6064, 709.5625
979.0885, 750.0430
979.5706, 838.3438
980.0527, 928.8555
980.5349, 999.7344
981.0170, 1093.668
981.4991, 1221.109
981.9812, 1380.664
982.4633, 1574.062
982.9454, 1802.820
983.4276, 2071.629
983.9097, 2393.004
984.3918, 2744.605
984.8739, 3109.949
985.3560, 3499.230
985.8381, 3929.898
986.3203, 4397.402
986.8024, 4910.281
987.2845, 5461.492
987.7666, 6079.070
988.2487, 6788.629
988.7308, 7586.391
989.2130, 8472.062
989.6951, 9439.980
990.1772, 10538.02
990.6593, 11745.23
991.1414, 13132.80
991.6235, 14705.77
992.1057, 16468.95
992.5878, 18619.77
993.0699, 21182.16
993.5520, 24098.91
994.0341, 27684.13
994.5162, 31098.30
994.9984, 33323.72
995.4805, 34442.33
995.9626, 34595.91
996.4447, 33125.04
996.9268, 31865.89
997.4089, 31321.06
997.8911, 30862.51
998.3732, 29978.52
998.8553, 28680.17
999.3374, 26955.30
999.8195, 24807.43
1000.302, 22553.37
1000.784, 20140.58
1001.266, 17936.38
1001.748, 16187.86
1002.230, 14908.17
1002.712, 14067.49
1003.194, 13693.32
1003.676, 13650.04
1004.159, 14023.95
1004.641, 14535.89
1005.123, 14819.95
1005.605, 14771.16
1006.087, 14027.58
1006.569, 12276.52
1007.051, 10350.07
1007.533, 8379.766
1008.016, 6602.227
1008.498, 5180.875
1008.980, 4151.891
1009.462, 3339.734
1009.944, 2749.539
1010.426, 2293.945
1010.908, 1941.375
1011.390, 1669.000
1011.872, 1455.281
1012.355, 1293.984
1012.837, 1167.562
1013.319, 1088.641
1013.801, 1017.352
1014.283, 947.3281
1014.765, 875.7891
1015.247, 784.7969
1015.729, 678.7578
1016.211, 602.1719
1016.694, 568.0859
1017.176, 542.7266
1017.658, 501.6562
1018.140, 456.2188
1018.622, 420.2109
1019.104, 399.9609
1019.586, 355.9609
1020.068, 280.7031
1020.551, 210.2734
1021.033, 163.3984
1021.515, 136.2031
1021.997, 122.0000
1022.479, 119.7500
1022.961, 127.0781
1023.443, 152.4609
1023.925, 173.3125
1024.407, 175.9766
1024.890, 173.4844
1025.372, 185.1172
1025.854, 211.8906
1026.336, 226.7422
1026.818, 227.7188
1027.300, 217.1719
1027.782, 178.6797
1028.264, 139.5156
1028.746, 132.5781
1029.229, 164.7500
1029.711, 171.2266
1030.193, 131.0703
1030.675, 101.9844
1031.157, 103.2422
1031.639, 127.2344
1032.121, 174.6562
1032.603, 231.8984
1033.086, 251.9297
1033.568, 205.3359
1034.050, 154.6953
1034.532, 129.1719
1035.014, 112.8438
1035.496, 91.66406
1035.978, 65.25781
1036.460, 40.46875
1036.943, 17.73438
1037.425, 3.328125
1037.907, 33.77344
1038.389, 54.68750
1038.871, 41.11719
1039.353, 0.7968750
1039.835, 45.42188
1040.317, 97.71094
1040.799, 132.0625
1041.281, 139.3828
1041.764, 134.3281
1042.246, 134.6719
1042.728, 142.4141
1043.210, 175.1406
1043.692, 243.1641
1044.174, 277.6797
1044.656, 194.8594
1045.138, 106.8516
1045.621, 91.96875
1046.103, 144.2344
1046.585, 180.4609
1047.067, 200.3672
1047.549, 202.3359
1048.031, 176.6953
1048.513, 144.8828
1048.995, 131.4062
1049.478, 130.0703
1049.960, 130.2578
1050.442, 128.8672
1050.924, 131.1328
1051.406, 140.8906
1051.888, 148.4219
1052.370, 141.9062
1052.852, 126.7188
1053.334, 121.6953
1053.817, 126.8281
1054.299, 131.4609
1054.781, 129.7891
1055.263, 126.2891
1055.745, 120.8984
1056.227, 115.6875
1056.709, 114.9922
1057.191, 118.5391
1057.673, 126.8672
1058.156, 140.0859
1058.638, 156.4219
1059.120, 177.1562
1059.602, 198.0078
1060.084, 213.7812
1060.566, 222.5234
1061.048, 234.3750
1061.530, 257.8359
1062.013, 264.5312
1062.495, 233.4531
1062.977, 182.5312
1063.459, 152.6406
1063.941, 140.2109
1064.423, 134.6094
1064.905, 145.3203
1065.387, 143.2734
1065.870, 107.1797
1066.352, 64.03906
1066.834, 36.65625
1067.316, 25.26562
1067.798, 21.64062
1068.280, 25.63281
1068.762, 28.35156
1069.244, 24.03906
1069.726, 15.56250
1070.208, 4.351563
1070.691, 27.62500
1071.173, 19.39844
1071.655, 35.70312
1072.137, 74.13281
1072.619, 82.67188
1073.101, 75.97656
1073.583, 65.78906
1074.065, 56.89844
1074.548, 61.62500
1075.030, 84.57812
1075.512, 93.09375
1075.994, 66.89844
1076.476, 39.46094
1076.958, 24.75000
1077.440, 18.91406
1077.922, 8.382813
1078.405, 6.250000
1078.887, 23.48438
1079.369, 45.48438
1079.851, 63.96094
1080.333, 75.05469
1080.815, 78.67969
1081.297, 75.96875
1081.779, 67.03125
1082.261, 45.98438
1082.744, 10.89062
1083.226, 14.24219
1083.708, 5.171875
1084.190, 17.73438
1084.672, 47.20312
1085.154, 73.39844
1085.636, 60.96875
1086.118, 30.25000
1086.601, 80.78906
1087.083, 65.89844
1087.565, 32.43750
1088.047, 44.25000
1088.529, 80.55469
1089.011, 98.59375
1089.493, 93.38281
1089.975, 80.92188
1090.458, 47.33594
1090.940, 32.28125
1091.422, 57.43750
1091.904, 106.1094
1092.386, 128.8672
1092.868, 127.5859
1093.350, 108.7578
1093.832, 62.66406
1094.314, 36.82812
1094.797, 91.99219
1095.279, 162.3750
1095.761, 181.9375
1096.243, 146.1172
1096.725, 137.4375
1097.207, 159.6719
1097.689, 193.8047
1098.171, 228.5156
1098.653, 270.6250
1099.136, 341.4453
1099.618, 422.9766
1100.100, 480.0469
1100.582, 473.5078
1101.064, 503.5469
1101.546, 584.7422
1102.028, 670.0312
1102.510, 714.5078
1102.993, 732.1406
1103.475, 759.0312
1103.957, 791.8594
1104.439, 800.8594
1104.921, 750.7891
1105.403, 704.0859
1105.885, 675.4609
1106.367, 660.7969
1106.849, 653.4766
1107.332, 654.2578
1107.814, 661.9375
1108.296, 675.9922
1108.778, 710.3047
1109.260, 806.9375
1109.742, 896.4609
1110.224, 930.3750
1110.706, 917.9531
1111.188, 908.3125
1111.671, 900.8516
1112.153, 894.5391
1112.635, 889.1172
1113.117, 882.4844
1113.599, 878.6797
1114.081, 868.6016
1114.563, 835.8125
1115.045, 768.6250
1115.528, 735.6875
1116.010, 744.4609
1116.492, 755.4844
1116.974, 741.4375
1117.456, 721.7344
1117.938, 738.8750
1118.420, 773.7500
1118.902, 784.7422
1119.385, 720.9766
1119.867, 697.4531
1120.349, 737.4219
1120.831, 783.8750
1121.313, 762.5391
1121.795, 709.9688
1122.277, 747.8984
1122.759, 864.4922
1123.241, 969.7422
1123.724, 1002.312
1124.206, 1041.508
1124.688, 1117.719
1125.170, 1203.977
1125.652, 1266.258
1126.134, 1302.453
1126.616, 1287.688
1127.098, 1217.766
1127.580, 1140.969
1128.063, 1079.539
1128.545, 1030.234
1129.027, 1007.133
1129.509, 998.7656
1129.991, 953.0938
1130.473, 869.9844
1130.955, 786.8281
1131.437, 711.2891
1131.920, 646.9844
1132.402, 598.7578
1132.884, 561.9297
1133.366, 535.5547
1133.848, 520.4297
1134.330, 487.9922
1134.812, 433.0156
1135.294, 386.7109
1135.776, 363.8281
1136.259, 351.7031
1136.741, 335.4453
1137.223, 316.8359
1137.705, 300.0078
1138.187, 288.2578
1138.669, 272.0703
1139.151, 251.0312
1139.633, 226.4766
1140.115, 195.6484
1140.598, 165.4688
1141.080, 156.1172
1141.562, 155.8672
1142.044, 135.8984
1142.526, 52.71875
1143.008, 9.3750000E-02
1143.490, 1.382813
1143.972, 23.39844
1144.455, 47.69531
1144.937, 69.38281
1145.419, 78.09375
1145.901, 75.17188
1146.383, 72.22656
1146.865, 86.28125
1147.347, 85.57812
1147.829, 51.06250
1148.312, 7.710938
1148.794, 9.132813
1149.276, 0.2500000
1149.758, 33.50000
1150.240, 92.05469
1150.722, 153.5703
1151.204, 205.4062
1151.686, 253.8203
1152.168, 295.7109
1152.651, 338.3047
1153.133, 412.5469
1153.615, 515.7031
1154.097, 594.0469
1154.579, 633.5000
1155.061, 647.3594
1155.543, 654.4375
1156.025, 633.4219
1156.507, 547.7344
1156.990, 407.9375
1157.472, 307.4219
1157.954, 248.4531
1158.436, 193.6797
1158.918, 125.9844
1159.400, 68.13281
1159.882, 44.06250
1160.364, 42.49219
1160.847, 53.77344
1161.329, 79.32812
1161.811, 101.5312
1162.293, 122.2734
1162.775, 122.8203
1163.257, 70.76562
1163.739, 20.63281
1164.221, 54.69531
1164.703, 133.5938
1165.186, 190.7266
1165.668, 194.8828
1166.150, 219.7500
1166.632, 268.8906
1167.114, 322.6484
1167.596, 353.7109
1168.078, 388.7344
1168.560, 492.8984
1169.042, 636.4531
1169.525, 737.5859
1170.007, 771.9219
1170.489, 761.1719
1170.971, 694.6094
1171.453, 614.0312
1171.935, 555.5625
1172.417, 513.2188
1172.899, 474.1797
1173.382, 439.4219
1173.864, 416.8359
1174.346, 437.8594
1174.828, 424.1406
1175.310, 346.9688
1175.792, 264.5859
1176.274, 261.2109
1176.756, 306.7344
1177.239, 336.3828
1177.721, 344.3750
1178.203, 349.4922
1178.685, 344.6797
1179.167, 357.9688
1179.649, 407.7188
1180.131, 463.1172
1180.613, 470.4062
1181.095, 442.3203
1181.578, 417.2031
1182.060, 401.3438
1182.542, 376.9453
1183.024, 325.1953
1183.506, 279.7734
1183.988, 253.2344
1184.470, 236.2891
1184.952, 210.4453
1185.434, 180.6562
1185.917, 165.9453
1186.399, 174.5625
1186.881, 178.9688
1187.363, 141.9609
1187.845, 125.6875
1188.327, 170.1016
1188.809, 252.7578
1189.291, 284.3828
1189.774, 276.1094
1190.256, 287.0234
1190.738, 349.1719
1191.220, 392.3594
1191.702, 366.7578
1192.184, 324.3516
1192.666, 297.2656
1193.148, 282.5938
1193.630, 256.8672
1194.113, 223.8984
1194.595, 206.8906
1195.077, 227.0234
1195.559, 244.3359
1196.041, 241.8438
1196.523, 226.1406
1197.005, 201.1875
1197.487, 167.6016
1197.969, 126.8906
1198.452, 81.42188
1198.934, 46.18750
1199.416, 28.99219
1199.898, 24.50781
1200.380, 45.59375
1200.862, 67.39844
1201.344, 59.20312
1201.826, 21.28125
1202.309, 17.49219
1202.791, 45.79688
1203.273, 75.94531
1203.755, 93.78906
1204.237, 105.2969
1204.719, 114.3203
1205.201, 116.8516
1205.683, 103.8828
1206.166, 75.53906
1206.648, 55.18750
1207.130, 44.36719
1207.612, 54.01562
1208.094, 120.0234
1208.576, 176.4453
1209.058, 182.0000
1209.540, 157.9766
1210.022, 124.4766
1210.505, 82.67188
1210.987, 73.92969
1211.469, 100.3828
1211.951, 117.6328
1212.433, 81.53125
1212.915, 44.56250
1213.397, 38.04688
1213.879, 50.06250
1214.361, 66.63281
1214.844, 86.78125
1215.326, 86.71094
1215.808, 63.43750
1216.290, 46.78906
1216.772, 63.74219
1217.254, 85.42969
1217.736, 94.20312
1218.218, 99.88281
1218.701, 126.6406
1219.183, 170.5859
1219.665, 197.2344
1220.147, 200.1328
1220.629, 189.4219
1221.111, 145.3594
1221.593, 114.6406
1222.075, 128.2578
1222.557, 169.0938
1223.040, 199.1719
1223.522, 218.6484
1224.004, 226.3047
1224.486, 222.3672
1224.968, 208.2891
1225.450, 172.8047
1225.932, 141.7578
1226.414, 128.3672
1226.896, 129.5938
1227.379, 142.3828
1227.861, 162.4922
1228.343, 161.8906
1228.825, 130.7812
1229.307, 102.9375
1229.789, 100.8516
1230.271, 101.6953
1230.753, 91.43750
1231.236, 75.28906
1231.718, 78.89062
1232.200, 93.81250
1232.682, 79.73438
1233.164, 16.34375
1233.646, 26.47656
1234.128, 1.679688
1234.610, 43.24219
1235.093, 81.31250
1235.575, 107.2031
1236.057, 73.10938
1236.539, 0.8437500
1237.021, 34.57812
1237.503, 0.9531250
1237.985, 29.36719
1238.467, 30.09375
1238.949, 20.30469
1239.432, 5.500000
1239.914, 12.95312
1240.396, 40.18750
1240.878, 66.91406
1241.360, 62.89844
1241.842, 3.507813
1242.324, 35.81250
1242.806, 25.56250
1243.288, 14.83594
1243.771, 30.90625
1244.253, 62.00000
1244.735, 80.99219
1245.217, 92.14062
1245.699, 106.2500
1246.181, 130.3906
1246.663, 146.1328
1247.145, 149.5625
1247.628, 149.5625
1248.110, 143.4219
1248.592, 144.2344
1249.074, 204.3359
1249.556, 285.3281
1250.038, 309.0781
1250.520, 215.3672
1251.002, 166.9922
1251.484, 178.6484
1251.967, 209.5078
1252.449, 245.1172
1252.931, 275.3984
1253.413, 285.6797
1253.895, 278.8438
1254.377, 255.5781
1254.859, 195.6875
1255.341, 182.8984
1255.823, 226.6406
1256.306, 271.4141
1256.788, 285.4766
1257.270, 281.9297
1257.752, 269.6953
1258.234, 253.8906
1258.716, 243.4766
1259.198, 241.7031
1259.680, 242.0469
1260.163, 246.9688
1260.645, 240.1094
1261.127, 207.2734
1261.609, 166.3359
1262.091, 129.2344
1262.573, 96.68750
1263.055, 68.34375
1263.537, 42.99219
1264.020, 23.42969
1264.502, 9.250000
1264.984, 16.56250
1265.466, 59.86719
1265.948, 118.7891
1266.430, 210.3750
1266.912, 286.5781
1267.394, 286.0469
1267.876, 209.1328
1268.359, 167.6094
1268.841, 158.2031
1269.323, 149.8281
1269.805, 134.3828
1270.287, 114.2109
1270.769, 80.18750
1271.251, 43.69531
1271.733, 33.16406
1272.215, 38.91406
1272.698, 66.06250
1273.180, 106.9141
1273.662, 121.9141
1274.144, 74.13281
1274.626, 24.93750
1275.108, 26.50781
1275.590, 55.07031
1276.072, 22.73438
1276.555, 45.05469
1277.037, 55.81250
1277.519, 25.87500
1278.001, 4.500000
1278.483, 13.05469
1278.965, 25.98438
1279.447, 42.19531
1279.929, 57.67969
1280.411, 67.39062
1280.894, 74.63281
1281.376, 89.99219
1281.858, 107.5781
1282.340, 114.6094
1282.822, 106.0938
1283.304, 88.46875
1283.786, 56.78906
1284.268, 42.39062
1284.750, 83.41406
1285.233, 139.3906
1285.715, 160.6328
1286.197, 164.1094
1286.679, 180.2969
1287.161, 216.0859
1287.643, 236.7812
1288.125, 230.7344
1288.607, 205.7812
1289.090, 223.7344
1289.572, 236.3906
1290.054, 238.2109
1290.536, 229.9609
1291.018, 207.1797
1291.500, 168.0156
1291.982, 174.2812
1292.464, 218.7500
1292.947, 236.2109
1293.429, 171.8438
1293.911, 104.9297
1294.393, 73.51562
1294.875, 56.27344
1295.357, 35.02344
1295.839, 11.00000
1296.321, 11.90625
1296.803, 31.63281
1297.286, 40.28125
1297.768, 8.359375
1298.250, 1.351563
1298.732, 25.10156
1299.214, 60.27344
1299.696, 34.69531
1300.178, 1.679688
1300.660, 0.0000000E+00
##END=



