##NAMES=Galeite
##RRUFFID=R160078
##IDEAL CHEMISTRY=Na_15_(S^6+^O_4_)_5_ClF_4_
##LOCALITY=Searles Lake, San Bernardino County, California, USA
##OWNER=UAMM
##SOURCE=Rock Currier
##DESCRIPTION=Colorless to pale grey barrel-shaped crystals, intergrown with schairerite
##STATUS=The identification of this mineral has been confirmed by single-crystal X-ray diffraction.
##URL=rruff.info/R160078
9.324341e+001, 0.000000e+000
9.517188e+001, 6.100154e+003
9.710034e+001, 6.259542e+003
9.902881e+001, 6.463052e+003
1.009573e+002, 6.854962e+003
1.028857e+002, 7.276653e+003
1.048142e+002, 7.697125e+003
1.067427e+002, 8.142792e+003
1.086711e+002, 8.555124e+003
1.105996e+002, 8.926050e+003
1.125281e+002, 9.285076e+003
1.144565e+002, 9.598101e+003
1.163850e+002, 9.865205e+003
1.183135e+002, 1.011008e+004
1.202419e+002, 1.034018e+004
1.221704e+002, 1.055433e+004
1.240989e+002, 1.077494e+004
1.260273e+002, 1.099723e+004
1.279558e+002, 1.121648e+004
1.298843e+002, 1.144990e+004
1.318127e+002, 1.167713e+004
1.337412e+002, 1.191612e+004
1.356697e+002, 1.217641e+004
1.375981e+002, 1.246672e+004
1.395266e+002, 1.275842e+004
1.414551e+002, 1.303857e+004
1.433835e+002, 1.330354e+004
1.453120e+002, 1.357587e+004
1.472405e+002, 1.386297e+004
1.491689e+002, 1.416076e+004
1.510974e+002, 1.446615e+004
1.530259e+002, 1.480595e+004
1.549543e+002, 1.513395e+004
1.568828e+002, 1.542124e+004
1.588113e+002, 1.566332e+004
1.607397e+002, 1.590962e+004
1.626682e+002, 1.616704e+004
1.645967e+002, 1.643165e+004
1.665251e+002, 1.669885e+004
1.684536e+002, 1.698316e+004
1.703821e+002, 1.724992e+004
1.723105e+002, 1.748446e+004
1.742390e+002, 1.767909e+004
1.761675e+002, 1.785037e+004
1.780959e+002, 1.800276e+004
1.800244e+002, 1.813442e+004
1.819529e+002, 1.825095e+004
1.838813e+002, 1.835509e+004
1.858098e+002, 1.844480e+004
1.877383e+002, 1.852017e+004
1.896667e+002, 1.857844e+004
1.915952e+002, 1.862992e+004
1.935237e+002, 1.867038e+004
1.954521e+002, 1.870548e+004
1.973806e+002, 1.875308e+004
1.993091e+002, 1.883986e+004
2.012375e+002, 1.893181e+004
2.031660e+002, 1.899761e+004
2.050945e+002, 1.901838e+004
2.070229e+002, 1.904381e+004
2.089514e+002, 1.908919e+004
2.108799e+002, 1.915256e+004
2.128083e+002, 1.921070e+004
2.147368e+002, 1.926358e+004
2.166653e+002, 1.930898e+004
2.185938e+002, 1.934425e+004
2.205222e+002, 1.936974e+004
2.224507e+002, 1.938782e+004
2.243792e+002, 1.939656e+004
2.263076e+002, 1.939019e+004
2.282361e+002, 1.940349e+004
2.301646e+002, 1.943608e+004
2.320930e+002, 1.948922e+004
2.340215e+002, 1.956229e+004
2.359500e+002, 1.967088e+004
2.378784e+002, 1.977530e+004
2.398069e+002, 1.986172e+004
2.417354e+002, 1.992344e+004
2.436638e+002, 1.998556e+004
2.455923e+002, 2.004670e+004
2.475208e+002, 2.010782e+004
2.494492e+002, 2.017020e+004
2.513777e+002, 2.023260e+004
2.533062e+002, 2.029790e+004
2.552346e+002, 2.037268e+004
2.571631e+002, 2.045851e+004
2.590916e+002, 2.053056e+004
2.610200e+002, 2.057324e+004
2.629485e+002, 2.060515e+004
2.648770e+002, 2.064828e+004
2.668054e+002, 2.071747e+004
2.687339e+002, 2.078434e+004
2.706624e+002, 2.083748e+004
2.725908e+002, 2.087775e+004
2.745193e+002, 2.092412e+004
2.764478e+002, 2.097840e+004
2.783762e+002, 2.103885e+004
2.803047e+002, 2.110606e+004
2.822332e+002, 2.120275e+004
2.841616e+002, 2.127894e+004
2.860901e+002, 2.129951e+004
2.880186e+002, 2.126881e+004
2.899470e+002, 2.128222e+004
2.918755e+002, 2.140262e+004
2.938040e+002, 2.155069e+004
2.957324e+002, 2.163185e+004
2.976609e+002, 2.162318e+004
2.995894e+002, 2.161073e+004
3.015178e+002, 2.161697e+004
3.034463e+002, 2.164040e+004
3.053748e+002, 2.168364e+004
3.073032e+002, 2.176053e+004
3.092317e+002, 2.184618e+004
3.111602e+002, 2.191822e+004
3.130886e+002, 2.197472e+004
3.150171e+002, 2.202386e+004
3.169456e+002, 2.205499e+004
3.188740e+002, 2.206845e+004
3.208025e+002, 2.212286e+004
3.227310e+002, 2.225429e+004
3.246594e+002, 2.239533e+004
3.265879e+002, 2.249992e+004
3.285164e+002, 2.255543e+004
3.304448e+002, 2.261045e+004
3.323733e+002, 2.268170e+004
3.343018e+002, 2.276267e+004
3.362302e+002, 2.282214e+004
3.381587e+002, 2.284747e+004
3.400872e+002, 2.286831e+004
3.420156e+002, 2.290222e+004
3.439441e+002, 2.295768e+004
3.458726e+002, 2.301123e+004
3.478010e+002, 2.305010e+004
3.497295e+002, 2.308940e+004
3.516580e+002, 2.316028e+004
3.535864e+002, 2.328126e+004
3.555149e+002, 2.340236e+004
3.574434e+002, 2.349999e+004
3.593718e+002, 2.356062e+004
3.613003e+002, 2.362708e+004
3.632288e+002, 2.370408e+004
3.651572e+002, 2.378099e+004
3.670857e+002, 2.384567e+004
3.690142e+002, 2.389205e+004
3.709426e+002, 2.394028e+004
3.728711e+002, 2.400446e+004
3.747996e+002, 2.408824e+004
3.767280e+002, 2.414859e+004
3.786565e+002, 2.416597e+004
3.805850e+002, 2.417749e+004
3.825134e+002, 2.421066e+004
3.844419e+002, 2.427450e+004
3.863704e+002, 2.433622e+004
3.882988e+002, 2.438437e+004
3.902273e+002, 2.442478e+004
3.921558e+002, 2.448089e+004
3.940842e+002, 2.455230e+004
3.960127e+002, 2.463835e+004
3.979412e+002, 2.474463e+004
3.998696e+002, 2.487904e+004
4.017981e+002, 2.498474e+004
4.037266e+002, 2.502883e+004
4.056550e+002, 2.504670e+004
4.075835e+002, 2.509754e+004
4.095120e+002, 2.520103e+004
4.114404e+002, 2.529190e+004
4.133689e+002, 2.534412e+004
4.152974e+002, 2.535609e+004
4.172258e+002, 2.537925e+004
4.191543e+002, 2.542505e+004
4.210828e+002, 2.547867e+004
4.230112e+002, 2.553327e+004
4.249397e+002, 2.559351e+004
4.268682e+002, 2.564680e+004
4.287966e+002, 2.567816e+004
4.307251e+002, 2.569999e+004
4.326536e+002, 2.575111e+004
4.345820e+002, 2.584346e+004
4.365105e+002, 2.594981e+004
4.384390e+002, 2.606354e+004
4.403674e+002, 2.618294e+004
4.422959e+002, 2.630587e+004
4.442244e+002, 2.643209e+004
4.461528e+002, 2.655694e+004
4.480813e+002, 2.667273e+004
4.500098e+002, 2.674689e+004
4.519382e+002, 2.685265e+004
4.538667e+002, 2.702842e+004
4.557952e+002, 2.724883e+004
4.577236e+002, 2.744844e+004
4.596521e+002, 2.760804e+004
4.615806e+002, 2.776437e+004
4.635090e+002, 2.793874e+004
4.654375e+002, 2.814435e+004
4.673660e+002, 2.833728e+004
4.692944e+002, 2.857865e+004
4.712229e+002, 2.877739e+004
4.731514e+002, 2.883172e+004
4.750798e+002, 2.859128e+004
4.770083e+002, 2.838274e+004
4.789368e+002, 2.825876e+004
4.808652e+002, 2.821115e+004
4.827937e+002, 2.817641e+004
4.847222e+002, 2.816136e+004
4.866506e+002, 2.814891e+004
4.885791e+002, 2.813313e+004
4.905076e+002, 2.811615e+004
4.924360e+002, 2.811167e+004
4.943645e+002, 2.813027e+004
4.962930e+002, 2.816821e+004
4.982214e+002, 2.822111e+004
5.001499e+002, 2.829587e+004
5.020784e+002, 2.836621e+004
5.040068e+002, 2.840411e+004
5.059353e+002, 2.841388e+004
5.078638e+002, 2.846401e+004
5.097922e+002, 2.858746e+004
5.117207e+002, 2.870870e+004
5.136492e+002, 2.878915e+004
5.155776e+002, 2.883290e+004
5.175061e+002, 2.887269e+004
5.194346e+002, 2.891484e+004
5.213630e+002, 2.896302e+004
5.232915e+002, 2.902096e+004
5.252200e+002, 2.909696e+004
5.271484e+002, 2.917772e+004
5.290769e+002, 2.927187e+004
5.310054e+002, 2.936795e+004
5.329338e+002, 2.944257e+004
5.348623e+002, 2.947250e+004
5.367908e+002, 2.949949e+004
5.387192e+002, 2.953215e+004
5.406477e+002, 2.956861e+004
5.425762e+002, 2.962554e+004
5.445046e+002, 2.975341e+004
5.464331e+002, 2.986557e+004
5.483616e+002, 2.989381e+004
5.502900e+002, 2.979923e+004
5.522185e+002, 2.976917e+004
5.541470e+002, 2.987359e+004
5.560754e+002, 3.005023e+004
5.580039e+002, 3.018304e+004
5.599324e+002, 3.025697e+004
5.618608e+002, 3.031935e+004
5.637893e+002, 3.037790e+004
5.657178e+002, 3.043088e+004
5.676462e+002, 3.047850e+004
5.695747e+002, 3.048639e+004
5.715032e+002, 3.051163e+004
5.734316e+002, 3.059757e+004
5.753601e+002, 3.075759e+004
5.772886e+002, 3.086208e+004
5.792170e+002, 3.086714e+004
5.811455e+002, 3.084003e+004
5.830740e+002, 3.083027e+004
5.850024e+002, 3.083230e+004
5.869309e+002, 3.088177e+004
5.888594e+002, 3.101720e+004
5.907878e+002, 3.119654e+004
5.927163e+002, 3.133032e+004
5.946448e+002, 3.138587e+004
5.965732e+002, 3.145219e+004
5.985017e+002, 3.155947e+004
6.004302e+002, 3.169974e+004
6.023586e+002, 3.183613e+004
6.042871e+002, 3.197094e+004
6.062156e+002, 3.209517e+004
6.081440e+002, 3.219335e+004
6.100725e+002, 3.226821e+004
6.120010e+002, 3.237482e+004
6.139294e+002, 3.253007e+004
6.158579e+002, 3.272493e+004
6.177864e+002, 3.295814e+004
6.197148e+002, 3.327408e+004
6.216433e+002, 3.355152e+004
6.235718e+002, 3.376648e+004
6.255002e+002, 3.394442e+004
6.274287e+002, 3.413359e+004
6.293572e+002, 3.436172e+004
6.312856e+002, 3.451090e+004
6.332141e+002, 3.451927e+004
6.351426e+002, 3.441603e+004
6.370710e+002, 3.429121e+004
6.389995e+002, 3.410676e+004
6.409280e+002, 3.394103e+004
6.428564e+002, 3.382207e+004
6.447849e+002, 3.374678e+004
6.467134e+002, 3.368629e+004
6.486418e+002, 3.363837e+004
6.505703e+002, 3.361173e+004
6.524988e+002, 3.361007e+004
6.544272e+002, 3.363749e+004
6.563557e+002, 3.368019e+004
6.582842e+002, 3.374777e+004
6.602126e+002, 3.382266e+004
6.621411e+002, 3.389776e+004
6.640696e+002, 3.397792e+004
6.659980e+002, 3.403855e+004
6.679265e+002, 3.405707e+004
6.698550e+002, 3.406334e+004
6.717834e+002, 3.408788e+004
6.737119e+002, 3.411890e+004
6.756404e+002, 3.418531e+004
6.775688e+002, 3.432077e+004
6.794973e+002, 3.448399e+004
6.814258e+002, 3.459415e+004
6.833542e+002, 3.461363e+004
6.852827e+002, 3.464297e+004
6.872112e+002, 3.472168e+004
6.891396e+002, 3.483954e+004
6.910681e+002, 3.493829e+004
6.929966e+002, 3.502496e+004
6.949250e+002, 3.509302e+004
6.968535e+002, 3.512874e+004
6.987820e+002, 3.514351e+004
7.007104e+002, 3.518151e+004
7.026389e+002, 3.525772e+004
7.045674e+002, 3.534998e+004
7.064958e+002, 3.544884e+004
7.084243e+002, 3.555446e+004
7.103528e+002, 3.565135e+004
7.122813e+002, 3.573547e+004
7.142097e+002, 3.580910e+004
7.161382e+002, 3.587104e+004
7.180667e+002, 3.592169e+004
7.199951e+002, 3.597104e+004
7.219236e+002, 3.602351e+004
7.238521e+002, 3.607874e+004
7.257805e+002, 3.613663e+004
7.277090e+002, 3.619574e+004
7.296375e+002, 3.626753e+004
7.315659e+002, 3.637664e+004
7.334944e+002, 3.648840e+004
7.354229e+002, 3.655508e+004
7.373513e+002, 3.655861e+004
7.392798e+002, 3.658913e+004
7.412083e+002, 3.668082e+004
7.431367e+002, 3.680684e+004
7.450652e+002, 3.693216e+004
7.469937e+002, 3.706397e+004
7.489221e+002, 3.717852e+004
7.508506e+002, 3.725575e+004
7.527791e+002, 3.731415e+004
7.547075e+002, 3.739697e+004
7.566360e+002, 3.752700e+004
7.585645e+002, 3.763651e+004
7.604929e+002, 3.769676e+004
7.624214e+002, 3.772568e+004
7.643499e+002, 3.777173e+004
7.662783e+002, 3.783416e+004
7.682068e+002, 3.791511e+004
7.701353e+002, 3.801313e+004
7.720637e+002, 3.812543e+004
7.739922e+002, 3.825034e+004
7.759207e+002, 3.840236e+004
7.778491e+002, 3.852830e+004
7.797776e+002, 3.859935e+004
7.817061e+002, 3.862186e+004
7.836345e+002, 3.865526e+004
7.855630e+002, 3.874058e+004
7.874915e+002, 3.880480e+004
7.894199e+002, 3.881168e+004
7.913484e+002, 3.877461e+004
7.932769e+002, 3.876625e+004
7.952053e+002, 3.880114e+004
7.971338e+002, 3.884841e+004
7.990623e+002, 3.889504e+004
8.009907e+002, 3.894003e+004
8.029192e+002, 3.898257e+004
8.048477e+002, 3.901371e+004
8.067761e+002, 3.905311e+004
8.087046e+002, 3.911112e+004
8.106331e+002, 3.919059e+004
8.125615e+002, 3.928275e+004
8.144900e+002, 3.939971e+004
8.164185e+002, 3.951838e+004
8.183469e+002, 3.962544e+004
8.202754e+002, 3.971977e+004
8.222039e+002, 3.981252e+004
8.241323e+002, 3.989557e+004
8.260608e+002, 3.997629e+004
8.279893e+002, 4.005208e+004
8.299177e+002, 4.012044e+004
8.318462e+002, 4.019697e+004
8.337747e+002, 4.029832e+004
8.357031e+002, 4.039020e+004
8.376316e+002, 4.045564e+004
8.395601e+002, 4.049781e+004
8.414885e+002, 4.053930e+004
8.434170e+002, 4.058057e+004
8.453455e+002, 4.062546e+004
8.472739e+002, 4.066901e+004
8.492024e+002, 4.071013e+004
8.511309e+002, 4.077760e+004
8.530593e+002, 4.089914e+004
8.549878e+002, 4.101348e+004
8.569163e+002, 4.109603e+004
8.588447e+002, 4.114997e+004
8.607732e+002, 4.117709e+004
8.627017e+002, 4.114817e+004
8.646301e+002, 4.113042e+004
8.665586e+002, 4.114388e+004
8.684871e+002, 4.119148e+004
8.704155e+002, 4.128388e+004
8.723440e+002, 4.149197e+004
8.742725e+002, 4.166972e+004
8.762009e+002, 4.172171e+004
8.781294e+002, 4.168667e+004
8.800579e+002, 4.170688e+004
8.819863e+002, 4.182488e+004
8.839148e+002, 4.195071e+004
8.858433e+002, 4.206136e+004
8.877717e+002, 4.215354e+004
8.897002e+002, 4.220640e+004
8.916287e+002, 4.218344e+004
8.935571e+002, 4.216736e+004
8.954856e+002, 4.218781e+004
8.974141e+002, 4.223670e+004
8.993425e+002, 4.228173e+004
9.012710e+002, 4.231277e+004
9.031995e+002, 4.236919e+004
9.051279e+002, 4.247838e+004
9.070564e+002, 4.262283e+004
9.089849e+002, 4.275506e+004
9.109133e+002, 4.285690e+004
9.128418e+002, 4.295839e+004
9.147703e+002, 4.306080e+004
9.166987e+002, 4.315880e+004
9.186272e+002, 4.324650e+004
9.205557e+002, 4.332408e+004
9.224841e+002, 4.339014e+004
9.244126e+002, 4.344745e+004
9.263411e+002, 4.349706e+004
9.282695e+002, 4.353602e+004
9.301980e+002, 4.355612e+004
9.321265e+002, 4.359929e+004
9.340549e+002, 4.368815e+004
9.359834e+002, 4.379436e+004
9.379119e+002, 4.388774e+004
9.398403e+002, 4.396854e+004
9.417688e+002, 4.402659e+004
9.436973e+002, 4.400589e+004
9.456257e+002, 4.399595e+004
9.475542e+002, 4.406342e+004
9.494827e+002, 4.421155e+004
9.514111e+002, 4.437840e+004
9.533396e+002, 4.456978e+004
9.552681e+002, 4.476575e+004
9.571965e+002, 4.494547e+004
9.591250e+002, 4.509972e+004
9.610535e+002, 4.531257e+004
9.629819e+002, 4.565508e+004
9.649104e+002, 4.598418e+004
9.668389e+002, 4.622723e+004
9.687673e+002, 4.639686e+004
9.706958e+002, 4.653807e+004
9.726243e+002, 4.660988e+004
9.745527e+002, 4.672403e+004
9.764812e+002, 4.689952e+004
9.784097e+002, 4.714359e+004
9.803381e+002, 4.749521e+004
9.822666e+002, 4.784513e+004
9.841951e+002, 4.844738e+004
9.861235e+002, 4.934332e+004
9.880520e+002, 5.053132e+004
9.899805e+002, 5.213721e+004
9.919089e+002, 5.448489e+004
9.938374e+002, 5.623432e+004
9.957659e+002, 5.695954e+004
9.976943e+002, 5.691225e+004
9.996228e+002, 5.626339e+004
1.001551e+003, 5.484602e+004
1.003480e+003, 5.342462e+004
1.005408e+003, 5.200367e+004
1.007337e+003, 5.069322e+004
1.009265e+003, 4.956199e+004
1.011194e+003, 4.861878e+004
1.013122e+003, 4.790706e+004
1.015051e+003, 4.751341e+004
1.016979e+003, 4.727732e+004
1.018907e+003, 4.716567e+004
1.020836e+003, 4.715814e+004
1.022764e+003, 4.718628e+004
1.024693e+003, 4.724766e+004
1.026621e+003, 4.734163e+004
1.028550e+003, 4.748252e+004
1.030478e+003, 4.765002e+004
1.032407e+003, 4.778422e+004
1.034335e+003, 4.782558e+004
1.036264e+003, 4.789307e+004
1.038192e+003, 4.802652e+004
1.040121e+003, 4.817486e+004
1.042049e+003, 4.825462e+004
1.043978e+003, 4.825007e+004
1.045906e+003, 4.827356e+004
1.047834e+003, 4.837725e+004
1.049763e+003, 4.849796e+004
1.051691e+003, 4.860477e+004
1.053620e+003, 4.870497e+004
1.055548e+003, 4.875503e+004
1.057477e+003, 4.870737e+004
1.059405e+003, 4.866571e+004
1.061334e+003, 4.866518e+004
1.063262e+003, 4.870993e+004
1.065191e+003, 4.880789e+004
1.067119e+003, 4.901536e+004
1.069048e+003, 4.919302e+004
1.070976e+003, 4.926709e+004
1.072905e+003, 4.928678e+004
1.074833e+003, 4.932821e+004
1.076761e+003, 4.937779e+004
1.078690e+003, 4.947342e+004
1.080618e+003, 4.968255e+004
1.082547e+003, 4.990011e+004
1.084475e+003, 5.004070e+004
1.086404e+003, 5.008370e+004
1.088332e+003, 5.012854e+004
1.090261e+003, 5.015736e+004
1.092189e+003, 5.021941e+004
1.094118e+003, 5.035640e+004
1.096046e+003, 5.056145e+004
1.097975e+003, 5.074788e+004
1.099903e+003, 5.090351e+004
1.101832e+003, 5.105419e+004
1.103760e+003, 5.121401e+004
1.105688e+003, 5.137098e+004
1.107617e+003, 5.150573e+004
1.109545e+003, 5.161609e+004
1.111474e+003, 5.170995e+004
1.113402e+003, 5.178047e+004
1.115331e+003, 5.184221e+004
1.117259e+003, 5.189788e+004
1.119188e+003, 5.193404e+004
1.121116e+003, 5.201035e+004
1.123045e+003, 5.217414e+004
1.124973e+003, 5.232038e+004
1.126902e+003, 5.241532e+004
1.128830e+003, 5.245844e+004
1.130759e+003, 5.244739e+004
1.132687e+003, 5.236299e+004
1.134615e+003, 5.228716e+004
1.136544e+003, 5.222492e+004
1.138472e+003, 5.220460e+004
1.140401e+003, 5.227557e+004
1.142329e+003, 5.246909e+004
1.144258e+003, 5.262429e+004
1.146186e+003, 5.267593e+004
1.148115e+003, 5.271510e+004
1.150043e+003, 5.280504e+004
1.151972e+003, 5.294316e+004
1.153900e+003, 5.301722e+004
1.155829e+003, 5.297365e+004
1.157757e+003, 5.293962e+004
1.159686e+003, 5.295289e+004
1.161614e+003, 5.299955e+004
1.163542e+003, 5.306114e+004
1.165471e+003, 5.314866e+004
1.167399e+003, 5.321008e+004
1.169328e+003, 5.318648e+004
1.171256e+003, 5.317851e+004
1.173185e+003, 5.327237e+004
1.175113e+003, 5.347899e+004
1.177042e+003, 5.363549e+004
1.178970e+003, 5.368113e+004
1.180899e+003, 5.374034e+004
1.182827e+003, 5.384568e+004
1.184756e+003, 5.398006e+004
1.186684e+003, 5.411166e+004
1.188613e+003, 5.425086e+004
1.190541e+003, 5.433878e+004
1.192469e+003, 5.430102e+004
1.194398e+003, 5.425425e+004
1.196326e+003, 5.431641e+004
1.198255e+003, 5.447331e+004
1.200183e+003, 5.458438e+004
1.202112e+003, 5.462772e+004
1.204040e+003, 5.466261e+004
1.205969e+003, 5.470357e+004
1.207897e+003, 5.476080e+004
1.209826e+003, 5.485260e+004
1.211754e+003, 5.498907e+004
1.213683e+003, 5.512267e+004
1.215611e+003, 5.522126e+004
1.217540e+003, 5.532239e+004
1.219468e+003, 5.546661e+004
1.221396e+003, 5.565205e+004
1.223325e+003, 5.577087e+004
1.225253e+003, 5.578365e+004
1.227182e+003, 5.579131e+004
1.229110e+003, 5.583288e+004
1.231039e+003, 5.588904e+004
1.232967e+003, 5.592452e+004
1.234896e+003, 5.593670e+004
1.236824e+003, 5.597830e+004
1.238753e+003, 5.607136e+004
1.240681e+003, 5.619029e+004
1.242610e+003, 5.632153e+004
1.244538e+003, 5.646460e+004
1.246467e+003, 5.661804e+004
1.248395e+003, 5.678481e+004
1.250323e+003, 5.694501e+004
1.252252e+003, 5.710728e+004
1.254180e+003, 5.724314e+004
1.256109e+003, 5.730698e+004
1.258037e+003, 5.726273e+004
1.259966e+003, 5.727610e+004
1.261894e+003, 5.739459e+004
1.263823e+003, 5.751803e+004
1.265751e+003, 5.761147e+004
1.267680e+003, 5.768536e+004
1.269608e+003, 5.777016e+004
1.271537e+003, 5.788340e+004
1.273465e+003, 5.795586e+004
1.275394e+003, 5.792723e+004
1.277322e+003, 5.790398e+004
1.279250e+003, 5.796517e+004
1.281179e+003, 5.810202e+004
1.283107e+003, 5.822843e+004
1.285036e+003, 5.834117e+004
1.286964e+003, 5.842663e+004
1.288893e+003, 5.843771e+004
1.290821e+003, 5.843369e+004
1.292750e+003, 5.849105e+004
1.294678e+003, 5.863001e+004
1.296607e+003, 5.875913e+004
1.298535e+003, 5.889448e+004
1.300464e+003, 5.901198e+004
1.302392e+003, 5.909469e+004
1.304321e+003, 5.915881e+004
1.306249e+003, 5.923954e+004
1.308177e+003, 5.933946e+004
1.310106e+003, 5.943424e+004
1.312034e+003, 5.950819e+004
1.313963e+003, 5.957737e+004
1.315891e+003, 5.967110e+004
1.317820e+003, 5.977316e+004
1.319748e+003, 5.981170e+004
1.321677e+003, 5.975321e+004
1.323605e+003, 5.973924e+004
1.325534e+003, 5.985873e+004
1.327462e+003, 6.001824e+004
1.329391e+003, 6.012759e+004
1.331319e+003, 6.017182e+004
1.333248e+003, 6.028926e+004
1.335176e+003, 6.054607e+004
1.337104e+003, 6.077106e+004
1.339033e+003, 6.090825e+004
1.340961e+003, 6.098452e+004
1.342890e+003, 6.103680e+004
1.344818e+003, 6.105622e+004
1.346747e+003, 6.108385e+004
1.348675e+003, 6.118718e+004
1.350604e+003, 6.124433e+004
1.352532e+003, 6.117421e+004
1.354461e+003, 6.105282e+004
1.356389e+003, 6.102452e+004
1.358318e+003, 6.110351e+004
1.360246e+003, 6.121008e+004
1.362175e+003, 6.135477e+004
1.364103e+003, 6.149014e+004
1.366031e+003, 6.156164e+004
1.367960e+003, 6.159785e+004
1.369888e+003, 6.167691e+004
1.371817e+003, 6.180487e+004
1.373745e+003, 6.194623e+004
1.375674e+003, 6.211937e+004
1.377602e+003, 6.227662e+004
1.379531e+003, 6.237873e+004
1.381459e+003, 6.243626e+004
1.383388e+003, 6.252466e+004
1.385316e+003, 6.268423e+004
1.387245e+003, 6.280107e+004
1.389173e+003, 6.281102e+004
1.391102e+003, 6.281457e+004
1.393030e+003, 6.289776e+004
1.394958e+003, 6.305638e+004
1.396887e+003, 6.318364e+004
1.398815e+003, 6.325918e+004
1.400744e+003, 6.334648e+004
1.402672e+003, 6.348549e+004
1.404601e+003, 6.361651e+004
1.406529e+003, 6.366056e+004
1.408458e+003, 6.362822e+004
1.410386e+003, 6.366007e+004
1.412315e+003, 6.379607e+004
1.414243e+003, 6.389945e+004
1.416172e+003, 6.390103e+004
1.418100e+003, 6.387362e+004
1.420029e+003, 6.387598e+004
1.421957e+003, 6.391352e+004
1.423885e+003, 6.399725e+004
1.425814e+003, 6.416301e+004
1.427742e+003, 6.431676e+004
1.429671e+003, 6.441032e+004
1.431599e+003, 6.449223e+004
1.433528e+003, 6.459661e+004
1.435456e+003, 6.471941e+004
1.437385e+003, 6.485080e+004
1.439313e+003, 6.498127e+004
1.441242e+003, 6.512046e+004
1.443170e+003, 6.528034e+004
1.445099e+003, 6.543507e+004
1.447027e+003, 6.554977e+004
1.448956e+003, 6.562159e+004
1.450884e+003, 6.573731e+004
1.452813e+003, 6.598532e+004
1.454741e+003, 6.615755e+004
1.456669e+003, 6.614888e+004
1.458598e+003, 6.611263e+004
1.460526e+003, 6.620193e+004
1.462455e+003, 6.640933e+004
1.464383e+003, 6.654538e+004
1.466312e+003, 6.657275e+004
1.468240e+003, 6.659038e+004
1.470169e+003, 6.661390e+004
1.472097e+003, 6.664085e+004
1.474026e+003, 6.667820e+004
1.475954e+003, 6.673023e+004
1.477883e+003, 6.678838e+004
1.479811e+003, 6.686541e+004
1.481740e+003, 6.694230e+004
1.483668e+003, 6.700220e+004
1.485596e+003, 6.707130e+004
1.487525e+003, 6.714434e+004
1.489453e+003, 6.722471e+004
1.491382e+003, 6.735053e+004
1.493310e+003, 6.752470e+004
1.495239e+003, 6.768048e+004
1.497167e+003, 6.780997e+004
1.499096e+003, 6.790407e+004
1.501024e+003, 6.795570e+004
1.502953e+003, 6.798351e+004
1.504881e+003, 6.803213e+004
1.506810e+003, 6.812118e+004
1.508738e+003, 6.819127e+004
1.510667e+003, 6.819438e+004
1.512595e+003, 6.823145e+004
1.514523e+003, 6.837999e+004
1.516452e+003, 6.856609e+004
1.518380e+003, 6.864275e+004
1.520309e+003, 6.855964e+004
1.522237e+003, 6.855948e+004
1.524166e+003, 6.873957e+004
1.526094e+003, 6.889188e+004
1.528023e+003, 6.894016e+004
1.529951e+003, 6.895523e+004
1.531880e+003, 6.903364e+004
1.533808e+003, 6.919127e+004
1.535737e+003, 6.929125e+004
1.537665e+003, 6.925459e+004
1.539594e+003, 6.927630e+004
1.541522e+003, 6.942810e+004
1.543450e+003, 6.960916e+004
1.545379e+003, 6.972670e+004
1.547307e+003, 6.978684e+004
1.549236e+003, 6.987188e+004
1.551164e+003, 6.999630e+004
1.553093e+003, 7.010909e+004
1.555021e+003, 7.021437e+004
1.556950e+003, 7.030412e+004
1.558878e+003, 7.035991e+004
1.560807e+003, 7.040659e+004
1.562735e+003, 7.051221e+004
1.564664e+003, 7.069485e+004
1.566592e+003, 7.082548e+004
1.568521e+003, 7.083121e+004
1.570449e+003, 7.084872e+004
1.572377e+003, 7.094092e+004
1.574306e+003, 7.105402e+004
1.576234e+003, 7.111905e+004
1.578163e+003, 7.114063e+004
1.580091e+003, 7.117178e+004
1.582020e+003, 7.122893e+004
1.583948e+003, 7.128604e+004
1.585877e+003, 7.134345e+004
1.587805e+003, 7.140947e+004
1.589734e+003, 7.149151e+004
1.591662e+003, 7.158931e+004
1.593591e+003, 7.170113e+004
1.595519e+003, 7.182653e+004
1.597448e+003, 7.193225e+004
1.599376e+003, 7.197955e+004
1.601304e+003, 7.203607e+004
1.603233e+003, 7.214558e+004
1.605161e+003, 7.227505e+004
1.607090e+003, 7.239627e+004
1.609018e+003, 7.251066e+004
1.610947e+003, 7.257469e+004
1.612875e+003, 7.256009e+004
1.614804e+003, 7.256849e+004
1.616732e+003, 7.264825e+004
1.618661e+003, 7.274767e+004
1.620589e+003, 7.282395e+004
1.622518e+003, 7.288391e+004
1.624446e+003, 7.296193e+004
1.626375e+003, 7.306057e+004
1.628303e+003, 7.315252e+004
1.630231e+003, 7.322168e+004
1.632160e+003, 7.330798e+004
1.634088e+003, 7.345541e+004
1.636017e+003, 7.361956e+004
1.637945e+003, 7.373284e+004
1.639874e+003, 7.379491e+004
1.641802e+003, 7.387332e+004
1.643731e+003, 7.396932e+004
1.645659e+003, 7.406502e+004
1.647588e+003, 7.416218e+004
1.649516e+003, 7.424256e+004
1.651445e+003, 7.429296e+004
1.653373e+003, 7.432558e+004
1.655302e+003, 7.436645e+004
1.657230e+003, 7.442172e+004
1.659158e+003, 7.449711e+004
1.661087e+003, 7.462097e+004
1.663015e+003, 7.472478e+004
1.664944e+003, 7.474941e+004
1.666872e+003, 7.477152e+004
1.668801e+003, 7.486429e+004
1.670729e+003, 7.501670e+004
1.672658e+003, 7.516125e+004
1.674586e+003, 7.531318e+004
1.676515e+003, 7.542931e+004
1.678443e+003, 7.544666e+004
1.680372e+003, 7.551741e+004
1.682300e+003, 7.572825e+004
1.684229e+003, 7.600273e+004
1.686157e+003, 7.625668e+004
1.688085e+003, 7.648359e+004
1.690014e+003, 7.664441e+004
1.691942e+003, 7.668871e+004
1.693871e+003, 7.674134e+004
1.695799e+003, 7.678879e+004
1.697728e+003, 7.687304e+004
1.699656e+003, 7.707284e+004
1.701585e+003, 7.729951e+004
1.703513e+003, 7.739334e+004
1.705442e+003, 7.734707e+004
1.707370e+003, 7.731480e+004
1.709299e+003, 7.730207e+004
1.711227e+003, 7.732311e+004
1.713156e+003, 7.741092e+004
1.715084e+003, 7.750476e+004
1.717012e+003, 7.757063e+004
1.718941e+003, 7.761513e+004
1.720869e+003, 7.763695e+004
1.722798e+003, 7.761765e+004
1.724726e+003, 7.769110e+004
1.726655e+003, 7.795331e+004
1.728583e+003, 7.813470e+004
1.730512e+003, 7.811303e+004
1.732440e+003, 7.806838e+004
1.734369e+003, 7.812923e+004
1.736297e+003, 7.824413e+004
1.738226e+003, 7.827873e+004
1.740154e+003, 7.821630e+004
1.742083e+003, 7.820476e+004
1.744011e+003, 7.826461e+004
1.745939e+003, 7.834212e+004
1.747868e+003, 7.844988e+004
1.749796e+003, 7.854358e+004
1.751725e+003, 7.859984e+004
1.753653e+003, 7.863211e+004
1.755582e+003, 7.865667e+004
1.757510e+003, 7.867503e+004
1.759439e+003, 7.873220e+004
1.761367e+003, 7.884943e+004
1.763296e+003, 7.895520e+004
1.765224e+003, 7.901177e+004
1.767153e+003, 7.905060e+004
1.769081e+003, 7.905559e+004
1.771010e+003, 7.905892e+004
1.772938e+003, 7.915225e+004
1.774866e+003, 7.933679e+004
1.776795e+003, 7.945445e+004
1.778723e+003, 7.949504e+004
1.780652e+003, 7.949675e+004
1.782580e+003, 7.941323e+004
1.784509e+003, 7.937955e+004
1.786437e+003, 7.952057e+004
1.788366e+003, 7.971938e+004
1.790294e+003, 7.978223e+004
1.792223e+003, 7.973144e+004
1.794151e+003, 7.979930e+004
1.796080e+003, 8.003538e+004
1.798008e+003, 8.021815e+004
1.799937e+003, 8.028582e+004
1.801865e+003, 8.030713e+004
1.803793e+003, 8.025718e+004
1.805722e+003, 8.022210e+004
1.807650e+003, 8.031426e+004
1.809579e+003, 8.049548e+004
1.811507e+003, 8.062205e+004
1.813436e+003, 8.068376e+004
1.815364e+003, 8.074951e+004
1.817293e+003, 8.084939e+004
1.819221e+003, 8.093295e+004
1.821150e+003, 8.093336e+004
1.823078e+003, 8.096315e+004
1.825007e+003, 8.114376e+004
1.826935e+003, 8.141116e+004
1.828864e+003, 8.161045e+004
1.830792e+003, 8.173398e+004
1.832720e+003, 8.184823e+004
1.834649e+003, 8.193712e+004
1.836577e+003, 8.203690e+004
1.838506e+003, 8.218687e+004
1.840434e+003, 8.230516e+004
1.842363e+003, 8.232398e+004
1.844291e+003, 8.230136e+004
1.846220e+003, 8.232597e+004
1.848148e+003, 8.239517e+004
1.850077e+003, 8.243398e+004
1.852005e+003, 8.243046e+004
1.853934e+003, 8.244386e+004
1.855862e+003, 8.251894e+004
1.857791e+003, 8.257054e+004
1.859719e+003, 8.256497e+004
1.861647e+003, 8.254962e+004
1.863576e+003, 8.254557e+004
1.865504e+003, 8.256772e+004
1.867433e+003, 8.263827e+004
1.869361e+003, 8.273787e+004
1.871290e+003, 8.295841e+004
1.873218e+003, 8.346026e+004
1.875147e+003, 8.376880e+004
1.877075e+003, 8.366710e+004
1.879004e+003, 8.355305e+004
1.880932e+003, 8.362825e+004
1.882861e+003, 8.376502e+004
1.884789e+003, 8.381366e+004
1.886718e+003, 8.380408e+004
1.888646e+003, 8.388556e+004
1.890574e+003, 8.408886e+004
1.892503e+003, 8.420367e+004
1.894431e+003, 8.414858e+004
1.896360e+003, 8.412845e+004
1.898288e+003, 8.420375e+004
1.900217e+003, 8.431069e+004
1.902145e+003, 8.444927e+004
1.904074e+003, 8.457423e+004
1.906002e+003, 8.461150e+004
1.907931e+003, 8.458511e+004
1.909859e+003, 8.459680e+004
1.911788e+003, 8.465730e+004
1.913716e+003, 8.474368e+004
1.915645e+003, 8.488232e+004
1.917573e+003, 8.498137e+004
1.919501e+003, 8.496288e+004
1.921430e+003, 8.493509e+004
1.923358e+003, 8.497523e+004
1.925287e+003, 8.504037e+004
1.927215e+003, 8.505512e+004
1.929144e+003, 8.502959e+004
1.931072e+003, 8.506231e+004
1.933001e+003, 8.517266e+004
1.934929e+003, 8.529020e+004
1.936858e+003, 8.543175e+004
1.938786e+003, 8.555659e+004
1.940715e+003, 8.563598e+004
1.942643e+003, 8.571656e+004
1.944572e+003, 8.583509e+004
1.946500e+003, 8.596580e+004
1.948428e+003, 8.607209e+004
1.950357e+003, 8.615275e+004
1.952285e+003, 8.621480e+004
1.954214e+003, 8.625250e+004
1.956142e+003, 8.627156e+004
1.958071e+003, 8.623747e+004
1.959999e+003, 8.623095e+004
1.961928e+003, 8.628542e+004
1.963856e+003, 8.634838e+004
1.965785e+003, 8.639530e+004
1.967713e+003, 8.644680e+004
1.969642e+003, 8.656774e+004
1.971570e+003, 8.672357e+004
1.973499e+003, 8.673387e+004
1.975427e+003, 8.659508e+004
1.977355e+003, 8.657816e+004
1.979284e+003, 8.673588e+004
1.981212e+003, 8.692765e+004
1.983141e+003, 8.714436e+004
1.985069e+003, 8.731773e+004
1.986998e+003, 8.735168e+004
1.988926e+003, 8.736343e+004
1.990855e+003, 8.748870e+004
1.992783e+003, 8.766088e+004
1.994712e+003, 8.773747e+004
1.996640e+003, 8.772139e+004
1.998569e+003, 8.767380e+004
2.000497e+003, 8.757209e+004
2.002426e+003, 8.752881e+004
2.004354e+003, 8.761086e+004
2.006282e+003, 8.768141e+004
2.008211e+003, 8.767211e+004
2.010139e+003, 8.767956e+004
2.012068e+003, 8.778077e+004
2.013996e+003, 8.791320e+004
2.015925e+003, 8.799044e+004
2.017853e+003, 8.802359e+004
2.019782e+003, 8.807723e+004
2.021710e+003, 8.815508e+004
2.023639e+003, 8.823561e+004
2.025567e+003, 8.831112e+004
2.027496e+003, 8.841423e+004
2.029424e+003, 8.856484e+004
2.031353e+003, 8.870717e+004
2.033281e+003, 8.879698e+004
2.035209e+003, 8.887820e+004
2.037138e+003, 8.899988e+004
2.039066e+003, 8.912823e+004
2.040995e+003, 8.922052e+004
2.042923e+003, 8.927552e+004
2.044852e+003, 8.926210e+004
2.046780e+003, 8.915305e+004
2.048709e+003, 8.911440e+004
2.050637e+003, 8.919634e+004
2.052566e+003, 8.927549e+004
2.054494e+003, 8.936015e+004
2.056423e+003, 8.940959e+004
2.058351e+003, 8.939009e+004
2.060280e+003, 8.936028e+004
2.062208e+003, 8.935748e+004
2.064136e+003, 8.938752e+004
2.066065e+003, 8.947140e+004
2.067993e+003, 8.959852e+004
2.069922e+003, 8.967797e+004
2.071850e+003, 8.969821e+004
2.073779e+003, 8.973455e+004
2.075707e+003, 8.978805e+004
2.077636e+003, 8.984163e+004
2.079564e+003, 8.989615e+004
2.081493e+003, 8.993675e+004
2.083421e+003, 8.997310e+004
2.085350e+003, 8.998998e+004
2.087278e+003, 8.996798e+004
2.089207e+003, 8.993838e+004
2.091135e+003, 8.994524e+004
2.093063e+003, 8.998336e+004
2.094992e+003, 9.002988e+004
2.096920e+003, 9.009581e+004
2.098849e+003, 9.005129e+004
2.100777e+003, 8.973109e+004
2.102706e+003, 8.962502e+004
2.104634e+003, 8.995720e+004
2.106563e+003, 9.020096e+004
2.108491e+003, 9.018402e+004
2.110420e+003, 9.012245e+004
2.112348e+003, 9.006572e+004
2.114277e+003, 9.007213e+004
2.116205e+003, 9.028094e+004
2.118134e+003, 9.055188e+004
2.120062e+003, 9.054782e+004
2.121990e+003, 9.032896e+004
2.123919e+003, 9.032034e+004
2.125847e+003, 9.056609e+004
2.127776e+003, 9.074730e+004
2.129704e+003, 9.078204e+004
2.131633e+003, 9.085413e+004
2.133561e+003, 9.106791e+004
2.135490e+003, 9.120123e+004
2.137418e+003, 9.109920e+004
2.139347e+003, 9.098432e+004
2.141275e+003, 9.105117e+004
2.143204e+003, 9.115212e+004
2.145132e+003, 9.110932e+004
2.147061e+003, 9.098029e+004
2.148989e+003, 9.087967e+004
2.150917e+003, 9.082017e+004
2.152846e+003, 9.085999e+004
2.154774e+003, 9.100214e+004
2.156703e+003, 9.113411e+004
2.158631e+003, 9.122261e+004
2.160560e+003, 9.129513e+004
2.162488e+003, 9.135317e+004
2.164417e+003, 9.137731e+004
2.166345e+003, 9.135279e+004
2.168274e+003, 9.131469e+004
2.170202e+003, 9.131835e+004
2.172131e+003, 9.132075e+004
2.174059e+003, 9.124465e+004
2.175988e+003, 9.115477e+004
2.177916e+003, 9.119209e+004
2.179844e+003, 9.134235e+004
2.181773e+003, 9.144161e+004
2.183701e+003, 9.147526e+004
2.185630e+003, 9.156511e+004
2.187558e+003, 9.173076e+004
2.189487e+003, 9.183554e+004
2.191415e+003, 9.183363e+004
2.193344e+003, 9.180608e+004
2.195272e+003, 9.175363e+004
2.197201e+003, 9.172259e+004
2.199129e+003, 9.177180e+004
2.201058e+003, 9.182152e+004
2.202986e+003, 9.178054e+004
2.204915e+003, 9.173445e+004
2.206843e+003, 9.182225e+004
2.208771e+003, 9.199903e+004
2.210700e+003, 9.211654e+004
2.212628e+003, 9.217638e+004
2.214557e+003, 9.224173e+004
2.216485e+003, 9.230673e+004
2.218414e+003, 9.238063e+004
2.220342e+003, 9.245811e+004
2.222271e+003, 9.251259e+004
2.224199e+003, 9.250693e+004
2.226128e+003, 9.253284e+004
2.228056e+003, 9.269619e+004
2.229985e+003, 9.281173e+004
2.231913e+003, 9.278484e+004
2.233842e+003, 9.271477e+004
2.235770e+003, 9.264857e+004
2.237698e+003, 9.261483e+004
2.239627e+003, 9.264749e+004
2.241555e+003, 9.273126e+004
2.243484e+003, 9.284972e+004
2.245412e+003, 9.298409e+004
2.247341e+003, 9.303609e+004
2.249269e+003, 9.300293e+004
2.251198e+003, 9.298956e+004
2.253126e+003, 9.301454e+004
2.255055e+003, 9.301762e+004
2.256983e+003, 9.297466e+004
2.258912e+003, 9.295981e+004
2.260840e+003, 9.299470e+004
2.262769e+003, 9.305339e+004
2.264697e+003, 9.315113e+004
2.266625e+003, 9.323441e+004
2.268554e+003, 9.324004e+004
2.270482e+003, 9.325210e+004
2.272411e+003, 9.335880e+004
2.274339e+003, 9.350530e+004
2.276268e+003, 9.364096e+004
2.278196e+003, 9.374642e+004
2.280125e+003, 9.374426e+004
2.282053e+003, 9.366502e+004
2.283982e+003, 9.368266e+004
2.285910e+003, 9.381202e+004
2.287839e+003, 9.390601e+004
2.289767e+003, 9.393595e+004
2.291696e+003, 9.399895e+004
2.293624e+003, 9.413144e+004
2.295552e+003, 9.422886e+004
2.297481e+003, 9.422779e+004
2.299409e+003, 9.426657e+004
2.301338e+003, 9.442411e+004
2.303266e+003, 9.455321e+004
2.305195e+003, 9.455762e+004
2.307123e+003, 9.455007e+004
2.309052e+003, 9.465377e+004
2.310980e+003, 9.474738e+004
2.312909e+003, 9.465843e+004
2.314837e+003, 9.449563e+004
2.316766e+003, 9.444156e+004
2.318694e+003, 9.447785e+004
2.320623e+003, 9.455459e+004
2.322551e+003, 9.467350e+004
2.324479e+003, 9.476149e+004
2.326408e+003, 9.482005e+004
2.328336e+003, 9.488842e+004
2.330265e+003, 9.497267e+004
2.332193e+003, 9.502022e+004
2.334122e+003, 9.500084e+004
2.336050e+003, 9.500130e+004
2.337979e+003, 9.506392e+004
2.339907e+003, 9.509734e+004
2.341836e+003, 9.504497e+004
2.343764e+003, 9.501291e+004
2.345693e+003, 9.504628e+004
2.347621e+003, 9.511519e+004
2.349550e+003, 9.521679e+004
2.351478e+003, 9.533115e+004
2.353406e+003, 9.547453e+004
2.355335e+003, 9.558595e+004
2.357263e+003, 9.554047e+004
2.359192e+003, 9.543611e+004
2.361120e+003, 9.544323e+004
2.363049e+003, 9.554030e+004
2.364977e+003, 9.569630e+004
2.366906e+003, 9.589960e+004
2.368834e+003, 9.594066e+004
2.370763e+003, 9.579602e+004
2.372691e+003, 9.567116e+004
2.374620e+003, 9.556794e+004
2.376548e+003, 9.552986e+004
2.378477e+003, 9.558107e+004
2.380405e+003, 9.563480e+004
2.382333e+003, 9.567930e+004
2.384262e+003, 9.572337e+004
2.386190e+003, 9.574721e+004
2.388119e+003, 9.579597e+004
2.390047e+003, 9.585766e+004
2.391976e+003, 9.596627e+004
2.393904e+003, 9.620770e+004
2.395833e+003, 9.640477e+004
2.397761e+003, 9.640920e+004
2.399690e+003, 9.637007e+004
2.401618e+003, 9.636719e+004
2.403547e+003, 9.641677e+004
2.405475e+003, 9.658794e+004
2.407404e+003, 9.678388e+004
2.409332e+003, 9.684820e+004
2.411260e+003, 9.681938e+004
2.413189e+003, 9.678845e+004
2.415117e+003, 9.676345e+004
2.417046e+003, 9.675123e+004
2.418974e+003, 9.676128e+004
2.420903e+003, 9.682288e+004
2.422831e+003, 9.693729e+004
2.424760e+003, 9.709761e+004
2.426688e+003, 9.730348e+004
2.428617e+003, 9.741052e+004
2.430545e+003, 9.733826e+004
2.432474e+003, 9.734280e+004
2.434402e+003, 9.755497e+004
2.436331e+003, 9.766887e+004
2.438259e+003, 9.759516e+004
2.440188e+003, 9.755949e+004
2.442116e+003, 9.764888e+004
2.444044e+003, 9.772948e+004
2.445973e+003, 9.776607e+004
2.447901e+003, 9.777298e+004
2.449830e+003, 9.765154e+004
2.451758e+003, 9.761248e+004
2.453687e+003, 9.785635e+004
2.455615e+003, 9.811082e+004
2.457544e+003, 9.816981e+004
2.459472e+003, 9.812509e+004
2.461401e+003, 9.802846e+004
2.463329e+003, 9.793848e+004
2.465258e+003, 9.799036e+004
2.467186e+003, 9.807863e+004
2.469115e+003, 9.798518e+004
2.471043e+003, 9.781595e+004
2.472971e+003, 9.780598e+004
2.474900e+003, 9.790334e+004
2.476828e+003, 9.788709e+004
2.478757e+003, 9.777413e+004
2.480685e+003, 9.784394e+004
2.482614e+003, 9.808523e+004
2.484542e+003, 9.826413e+004
2.486471e+003, 9.837870e+004
2.488399e+003, 9.843509e+004
2.490328e+003, 9.843397e+004
2.492256e+003, 9.844634e+004
2.494185e+003, 9.848048e+004
2.496113e+003, 9.852817e+004
2.498042e+003, 9.859307e+004
2.499970e+003, 9.863928e+004
2.501898e+003, 9.866595e+004
2.503827e+003, 9.863309e+004
2.505755e+003, 9.849726e+004
2.507684e+003, 9.841336e+004
2.509612e+003, 9.846102e+004
2.511541e+003, 9.851538e+004
2.513469e+003, 9.856634e+004
2.515398e+003, 9.860241e+004
2.517326e+003, 9.859008e+004
2.519255e+003, 9.860602e+004
2.521183e+003, 9.867624e+004
2.523112e+003, 9.876413e+004
2.525040e+003, 9.886406e+004
2.526969e+003, 9.893535e+004
2.528897e+003, 9.893331e+004
2.530825e+003, 9.892010e+004
2.532754e+003, 9.894916e+004
2.534682e+003, 9.900802e+004
2.536611e+003, 9.910063e+004
2.538539e+003, 9.920734e+004
2.540468e+003, 9.929605e+004
2.542396e+003, 9.937898e+004
2.544325e+003, 9.948050e+004
2.546253e+003, 9.956905e+004
2.548182e+003, 9.957445e+004
2.550110e+003, 9.955517e+004
2.552039e+003, 9.966191e+004
2.553967e+003, 9.982875e+004
2.555896e+003, 9.985591e+004
2.557824e+003, 9.980098e+004
2.559752e+003, 9.985179e+004
2.561681e+003, 9.998440e+004
2.563609e+003, 1.001674e+005
2.565538e+003, 1.003584e+005
2.567466e+003, 1.003074e+005
2.569395e+003, 1.000478e+005
2.571323e+003, 1.000413e+005
2.573252e+003, 1.003023e+005
2.575180e+003, 1.003991e+005
2.577109e+003, 1.003341e+005
2.579037e+003, 1.003802e+005
2.580966e+003, 1.005420e+005
2.582894e+003, 1.005947e+005
2.584823e+003, 1.005044e+005
2.586751e+003, 1.004484e+005
2.588679e+003, 1.004304e+005
2.590608e+003, 1.004839e+005
2.592536e+003, 1.006408e+005
2.594465e+003, 1.007600e+005
2.596393e+003, 1.008447e+005
2.598322e+003, 1.008103e+005
2.600250e+003, 1.005830e+005
2.602179e+003, 1.005455e+005
2.604107e+003, 1.008911e+005
2.606036e+003, 1.011091e+005
2.607964e+003, 1.011059e+005
2.609893e+003, 1.010590e+005
2.611821e+003, 1.009304e+005
2.613750e+003, 1.009361e+005
2.615678e+003, 1.011758e+005
2.617606e+003, 1.013672e+005
2.619535e+003, 1.014186e+005
2.621463e+003, 1.014477e+005
2.623392e+003, 1.014412e+005
2.625320e+003, 1.014680e+005
2.627249e+003, 1.015760e+005
2.629177e+003, 1.016335e+005
2.631106e+003, 1.015879e+005
2.633034e+003, 1.015473e+005
2.634963e+003, 1.015599e+005
2.636891e+003, 1.015805e+005
2.638820e+003, 1.015955e+005
2.640748e+003, 1.016257e+005
2.642677e+003, 1.016579e+005
2.644605e+003, 1.017324e+005
2.646533e+003, 1.019012e+005
2.648462e+003, 1.020112e+005
2.650390e+003, 1.019735e+005
2.652319e+003, 1.018968e+005
2.654247e+003, 1.018075e+005
2.656176e+003, 1.017375e+005
2.658104e+003, 1.017231e+005
2.660033e+003, 1.017287e+005
2.661961e+003, 1.017477e+005
2.663890e+003, 1.017848e+005
2.665818e+003, 1.018779e+005
2.667747e+003, 1.019186e+005
2.669675e+003, 1.017291e+005
2.671604e+003, 1.016198e+005
2.673532e+003, 1.018405e+005
2.675460e+003, 1.020558e+005
2.677389e+003, 1.021108e+005
2.679317e+003, 1.020978e+005
2.681246e+003, 1.020134e+005
2.683174e+003, 1.019555e+005
2.685103e+003, 1.019920e+005
2.687031e+003, 1.020620e+005
2.688960e+003, 1.021566e+005
2.690888e+003, 1.022491e+005
2.692817e+003, 1.023053e+005
2.694745e+003, 1.023944e+005
2.696674e+003, 1.025648e+005
2.698602e+003, 1.027565e+005
2.700531e+003, 1.029736e+005
2.702459e+003, 1.031161e+005
2.704387e+003, 1.030438e+005
2.706316e+003, 1.029577e+005
2.708244e+003, 1.029733e+005
2.710173e+003, 1.030052e+005
2.712101e+003, 1.030451e+005
2.714030e+003, 1.030667e+005
2.715958e+003, 1.030693e+005
2.717887e+003, 1.030591e+005
2.719815e+003, 1.029716e+005
2.721744e+003, 1.029720e+005
2.723672e+003, 1.032511e+005
2.725601e+003, 1.034548e+005
2.727529e+003, 1.032759e+005
2.729458e+003, 1.031522e+005
2.731386e+003, 1.033991e+005
2.733314e+003, 1.036391e+005
2.735243e+003, 1.037029e+005
2.737171e+003, 1.036898e+005
2.739100e+003, 1.035913e+005
2.741028e+003, 1.035268e+005
2.742957e+003, 1.035933e+005
2.744885e+003, 1.036499e+005
2.746814e+003, 1.036363e+005
2.748742e+003, 1.036121e+005
2.750671e+003, 1.035577e+005
2.752599e+003, 1.035818e+005
2.754528e+003, 1.037221e+005
2.756456e+003, 1.039316e+005
2.758385e+003, 1.042470e+005
2.760313e+003, 1.044992e+005
2.762241e+003, 1.045897e+005
2.764170e+003, 1.046336e+005
2.766098e+003, 1.046389e+005
2.768027e+003, 1.046320e+005
2.769955e+003, 1.046173e+005
2.771884e+003, 1.046108e+005
2.773812e+003, 1.046752e+005
2.775741e+003, 1.046737e+005
2.777669e+003, 1.045434e+005
2.779598e+003, 1.044394e+005
2.781526e+003, 1.044040e+005
2.783455e+003, 1.043637e+005
2.785383e+003, 1.043037e+005
2.787312e+003, 1.042410e+005
2.789240e+003, 1.040962e+005
2.791168e+003, 1.040993e+005
2.793097e+003, 1.043238e+005
2.795025e+003, 1.044846e+005
2.796954e+003, 1.045538e+005
2.798882e+003, 1.045384e+005
2.800811e+003, 1.044123e+005
2.802739e+003, 1.043671e+005
2.804668e+003, 1.044925e+005
2.806596e+003, 1.045425e+005
2.808525e+003, 1.045076e+005
2.810453e+003, 1.044686e+005
2.812382e+003, 1.044240e+005
2.814310e+003, 1.044728e+005
2.816239e+003, 1.046511e+005
2.818167e+003, 1.046257e+005
2.820095e+003, 1.043561e+005
2.822024e+003, 1.043578e+005
2.823952e+003, 1.046029e+005
2.825881e+003, 1.046833e+005
2.827809e+003, 1.046081e+005
2.829738e+003, 1.046919e+005
2.831666e+003, 1.048939e+005
2.833595e+003, 1.049027e+005
2.835523e+003, 1.047595e+005
2.837452e+003, 1.046793e+005
2.839380e+003, 1.046616e+005
2.841309e+003, 1.047247e+005
2.843237e+003, 1.048192e+005
2.845166e+003, 1.047493e+005
2.847094e+003, 1.046267e+005
2.849022e+003, 1.046930e+005
2.850951e+003, 1.048620e+005
2.852879e+003, 1.050351e+005
2.854808e+003, 1.051588e+005
2.856736e+003, 1.051008e+005
2.858665e+003, 1.050159e+005
2.860593e+003, 1.051455e+005
2.862522e+003, 1.053003e+005
2.864450e+003, 1.052486e+005
2.866379e+003, 1.052117e+005
2.868307e+003, 1.054284e+005
2.870236e+003, 1.056412e+005
2.872164e+003, 1.056678e+005
2.874093e+003, 1.056344e+005
2.876021e+003, 1.055812e+005
2.877949e+003, 1.055488e+005
2.879878e+003, 1.055626e+005
2.881806e+003, 1.056017e+005
2.883735e+003, 1.056725e+005
2.885663e+003, 1.057278e+005
2.887592e+003, 1.057136e+005
2.889520e+003, 1.057492e+005
2.891449e+003, 1.058671e+005
2.893377e+003, 1.059986e+005
2.895306e+003, 1.061802e+005
2.897234e+003, 1.062737e+005
2.899163e+003, 1.062748e+005
2.901091e+003, 1.061982e+005
2.903020e+003, 1.060298e+005
2.904948e+003, 1.059803e+005
2.906876e+003, 1.060777e+005
2.908805e+003, 1.062119e+005
2.910733e+003, 1.063872e+005
2.912662e+003, 1.064218e+005
2.914590e+003, 1.063364e+005
2.916519e+003, 1.063005e+005
2.918447e+003, 1.063118e+005
2.920376e+003, 1.062832e+005
2.922304e+003, 1.062415e+005
2.924233e+003, 1.062509e+005
2.926161e+003, 1.063083e+005
2.928090e+003, 1.064473e+005
2.930018e+003, 1.065826e+005
2.931947e+003, 1.065581e+005
2.933875e+003, 1.064728e+005
2.935803e+003, 1.064228e+005
2.937732e+003, 1.064224e+005
2.939660e+003, 1.065216e+005
2.941589e+003, 1.066388e+005
2.943517e+003, 1.067667e+005
2.945446e+003, 1.068265e+005
2.947374e+003, 1.067153e+005
2.949303e+003, 1.066158e+005
2.951231e+003, 1.066114e+005
2.953160e+003, 1.065846e+005
2.955088e+003, 1.064065e+005
2.957017e+003, 1.063840e+005
2.958945e+003, 1.067469e+005
2.960874e+003, 1.069250e+005
2.962802e+003, 1.068314e+005
2.964730e+003, 1.067696e+005
2.966659e+003, 1.067684e+005
2.968587e+003, 1.068290e+005
2.970516e+003, 1.069636e+005
2.972444e+003, 1.069541e+005
2.974373e+003, 1.068162e+005
2.976301e+003, 1.067672e+005
2.978230e+003, 1.068031e+005
2.980158e+003, 1.068572e+005
2.982087e+003, 1.069165e+005
2.984015e+003, 1.069341e+005
2.985944e+003, 1.069101e+005
2.987872e+003, 1.068251e+005
2.989801e+003, 1.067162e+005
2.991729e+003, 1.065694e+005
2.993657e+003, 1.064993e+005
2.995586e+003, 1.067456e+005
2.997514e+003, 1.069480e+005
2.999443e+003, 1.068081e+005
3.001371e+003, 1.066683e+005
3.003300e+003, 1.066849e+005
3.005228e+003, 1.067611e+005
3.007157e+003, 1.068827e+005
3.009085e+003, 1.070190e+005
3.011014e+003, 1.072119e+005
3.012942e+003, 1.072483e+005
3.014871e+003, 1.069900e+005
3.016799e+003, 1.068600e+005
3.018728e+003, 1.068844e+005
3.020656e+003, 1.069215e+005
3.022584e+003, 1.069601e+005
3.024513e+003, 1.069841e+005
3.026441e+003, 1.069945e+005
3.028370e+003, 1.070644e+005
3.030298e+003, 1.071518e+005
3.032227e+003, 1.070803e+005
3.034155e+003, 1.069706e+005
3.036084e+003, 1.070664e+005
3.038012e+003, 1.072017e+005
3.039941e+003, 1.071745e+005
3.041869e+003, 1.070763e+005
3.043798e+003, 1.069015e+005
3.045726e+003, 1.068077e+005
3.047655e+003, 1.069602e+005
3.049583e+003, 1.070972e+005
3.051511e+003, 1.071389e+005
3.053440e+003, 1.071217e+005
3.055368e+003, 1.070393e+005
3.057297e+003, 1.069723e+005
3.059225e+003, 1.069309e+005
3.061154e+003, 1.069417e+005
3.063082e+003, 1.070064e+005
3.065011e+003, 1.071133e+005
3.066939e+003, 1.072413e+005
3.068868e+003, 1.071995e+005
3.070796e+003, 1.070484e+005
3.072725e+003, 1.070792e+005
3.074653e+003, 1.071974e+005
3.076582e+003, 1.071999e+005
3.078510e+003, 1.071717e+005
3.080438e+003, 1.072737e+005
3.082367e+003, 1.073289e+005
3.084295e+003, 1.070897e+005
3.086224e+003, 1.069020e+005
3.088152e+003, 1.069572e+005
3.090081e+003, 1.070507e+005
3.092009e+003, 1.071672e+005
3.093938e+003, 1.071497e+005
3.095866e+003, 1.069204e+005
3.097795e+003, 1.068181e+005
3.099723e+003, 1.069058e+005
3.101652e+003, 1.069373e+005
3.103580e+003, 1.069004e+005
3.105509e+003, 1.070235e+005
3.107437e+003, 1.072493e+005
3.109365e+003, 1.072676e+005
3.111294e+003, 1.071807e+005
3.113222e+003, 1.072068e+005
3.115151e+003, 1.072801e+005
3.117079e+003, 1.073275e+005
3.119008e+003, 1.073580e+005
3.120936e+003, 1.073354e+005
3.122865e+003, 1.073686e+005
3.124793e+003, 1.075547e+005
3.126722e+003, 1.077368e+005
3.128650e+003, 1.078847e+005
3.130579e+003, 1.079682e+005
3.132507e+003, 1.079593e+005
3.134436e+003, 1.079482e+005
3.136364e+003, 1.079403e+005
3.138292e+003, 1.080183e+005
3.140221e+003, 1.081625e+005
3.142149e+003, 1.081776e+005
3.144078e+003, 1.081128e+005
3.146006e+003, 1.080880e+005
3.147935e+003, 1.081115e+005
3.149863e+003, 1.082623e+005
3.151792e+003, 1.083858e+005
3.153720e+003, 1.083366e+005
3.155649e+003, 1.082352e+005
3.157577e+003, 1.081262e+005
3.159506e+003, 1.080501e+005
3.161434e+003, 1.080241e+005
3.163363e+003, 1.080218e+005
3.165291e+003, 1.080262e+005
3.167219e+003, 1.080959e+005
3.169148e+003, 1.082308e+005
3.171076e+003, 1.082553e+005
3.173005e+003, 1.081843e+005
3.174933e+003, 1.080786e+005
3.176862e+003, 1.080137e+005
3.178790e+003, 1.082698e+005
3.180719e+003, 1.085711e+005
3.182647e+003, 1.085848e+005
3.184576e+003, 1.084916e+005
3.186504e+003, 1.083313e+005
3.188433e+003, 1.082853e+005
3.190361e+003, 1.085048e+005
3.192290e+003, 1.086626e+005
3.194218e+003, 1.086375e+005
3.196146e+003, 1.086343e+005
3.198075e+003, 1.086584e+005
3.200003e+003, 1.087094e+005
3.201932e+003, 1.087726e+005
3.203860e+003, 1.087640e+005
3.205789e+003, 1.087151e+005
3.207717e+003, 1.087487e+005
3.209646e+003, 1.087915e+005
3.211574e+003, 1.086850e+005
3.213503e+003, 1.086386e+005
3.215431e+003, 1.088969e+005
3.217360e+003, 1.091038e+005
3.219288e+003, 1.091135e+005
3.221217e+003, 1.090623e+005
3.223145e+003, 1.089740e+005
3.225073e+003, 1.088272e+005
3.227002e+003, 1.086279e+005
3.228930e+003, 1.085331e+005
3.230859e+003, 1.085341e+005
3.232787e+003, 1.084618e+005
3.234716e+003, 1.083612e+005
3.236644e+003, 1.082723e+005
3.238573e+003, 1.082722e+005
3.240501e+003, 1.085023e+005
3.242430e+003, 1.087360e+005
3.244358e+003, 1.088431e+005
3.246287e+003, 1.088655e+005
3.248215e+003, 1.087957e+005
3.250144e+003, 1.086906e+005
3.252072e+003, 1.085528e+005
3.254000e+003, 1.084030e+005
3.255929e+003, 1.082570e+005
3.257857e+003, 1.082632e+005
3.259786e+003, 1.083566e+005
3.261714e+003, 1.083708e+005
3.263643e+003, 1.083185e+005
3.265571e+003, 1.081301e+005
3.267500e+003, 1.080122e+005
3.269428e+003, 1.081771e+005
3.271357e+003, 1.083227e+005
3.273285e+003, 1.083486e+005
3.275214e+003, 1.083289e+005
3.277142e+003, 1.082514e+005
3.279071e+003, 1.082578e+005
3.280999e+003, 1.083468e+005
3.282927e+003, 1.083574e+005
3.284856e+003, 1.083347e+005
3.286784e+003, 1.084840e+005
3.288713e+003, 1.085989e+005
3.290641e+003, 1.082754e+005
3.292570e+003, 1.079974e+005
3.294498e+003, 1.081176e+005
3.296427e+003, 1.082645e+005
3.298355e+003, 1.083171e+005
3.300284e+003, 1.083143e+005
3.302212e+003, 1.082410e+005
3.304141e+003, 1.082986e+005
3.306069e+003, 1.084617e+005
3.307998e+003, 1.084146e+005
3.309926e+003, 1.082529e+005
3.311854e+003, 1.082412e+005
3.313783e+003, 1.082582e+005
3.315711e+003, 1.082424e+005
3.317640e+003, 1.081292e+005
3.319568e+003, 1.078147e+005
3.321497e+003, 1.076490e+005
3.323425e+003, 1.077774e+005
3.325354e+003, 1.079361e+005
3.327282e+003, 1.081041e+005
3.329211e+003, 1.081254e+005
3.331139e+003, 1.080425e+005
3.333068e+003, 1.080534e+005
3.334996e+003, 1.081008e+005
3.336925e+003, 1.080887e+005
3.338853e+003, 1.080899e+005
3.340781e+003, 1.081799e+005
3.342710e+003, 1.082450e+005
3.344638e+003, 1.082116e+005
3.346567e+003, 1.082790e+005
3.348495e+003, 1.084795e+005
3.350424e+003, 1.085429e+005
3.352352e+003, 1.084821e+005
3.354281e+003, 1.084778e+005
3.356209e+003, 1.084836e+005
3.358138e+003, 1.084080e+005
3.360066e+003, 1.083256e+005
3.361995e+003, 1.083263e+005
3.363923e+003, 1.083106e+005
3.365852e+003, 1.082451e+005
3.367780e+003, 1.081884e+005
3.369708e+003, 1.081594e+005
3.371637e+003, 1.081148e+005
3.373565e+003, 1.080863e+005
3.375494e+003, 1.082451e+005
3.377422e+003, 1.085101e+005
3.379351e+003, 1.087903e+005
3.381279e+003, 1.089864e+005
3.383208e+003, 1.089340e+005
3.385136e+003, 1.089112e+005
3.387065e+003, 1.090395e+005
3.388993e+003, 1.092065e+005
3.390922e+003, 1.094195e+005
3.392850e+003, 1.093077e+005
3.394779e+003, 1.089389e+005
3.396707e+003, 1.087676e+005
3.398635e+003, 1.087197e+005
3.400564e+003, 1.087094e+005
3.402492e+003, 1.087003e+005
3.404421e+003, 1.086814e+005
3.406349e+003, 1.086373e+005
3.408278e+003, 1.085410e+005
3.410206e+003, 1.085530e+005
3.412135e+003, 1.087137e+005
3.414063e+003, 1.086903e+005
3.415992e+003, 1.085560e+005
3.417920e+003, 1.085506e+005
3.419849e+003, 1.086468e+005
3.421777e+003, 1.089235e+005
3.423706e+003, 1.091117e+005
3.425634e+003, 1.089884e+005
3.427563e+003, 1.089311e+005
3.429491e+003, 1.090259e+005
3.431419e+003, 1.091889e+005
3.433348e+003, 1.093922e+005
3.435276e+003, 1.094195e+005
3.437205e+003, 1.093375e+005
3.439133e+003, 1.092798e+005
3.441062e+003, 1.092439e+005
3.442990e+003, 1.092409e+005
3.444919e+003, 1.092464e+005
3.446847e+003, 1.092667e+005
3.448776e+003, 1.092507e+005
3.450704e+003, 1.091849e+005
3.452633e+003, 1.092454e+005
3.454561e+003, 1.093919e+005
3.456490e+003, 1.094719e+005
3.458418e+003, 1.094829e+005
3.460346e+003, 1.093961e+005
3.462275e+003, 1.092839e+005
3.464203e+003, 1.091765e+005
3.466132e+003, 1.091008e+005
3.468060e+003, 1.090779e+005
3.469989e+003, 1.090286e+005
3.471917e+003, 1.089698e+005
3.473846e+003, 1.090740e+005
3.475774e+003, 1.092128e+005
3.477703e+003, 1.091733e+005
3.479631e+003, 1.090997e+005
3.481560e+003, 1.091151e+005
3.483488e+003, 1.090550e+005
3.485417e+003, 1.088282e+005
3.487345e+003, 1.087576e+005
3.489273e+003, 1.088345e+005
3.491202e+003, 1.088943e+005
3.493130e+003, 1.089164e+005
3.495059e+003, 1.088004e+005
3.496987e+003, 1.087309e+005
3.498916e+003, 1.089371e+005
3.500844e+003, 1.090372e+005
3.502773e+003, 1.089354e+005
3.504701e+003, 1.087974e+005
3.506630e+003, 1.086548e+005
3.508558e+003, 1.087803e+005
3.510487e+003, 1.089778e+005
3.512415e+003, 1.087316e+005
3.514344e+003, 1.084879e+005
3.516272e+003, 1.086506e+005
3.518200e+003, 1.087913e+005
3.520129e+003, 1.088251e+005
3.522057e+003, 1.087702e+005
3.523986e+003, 1.086405e+005
3.525914e+003, 1.086558e+005
3.527843e+003, 1.087766e+005
3.529771e+003, 1.090230e+005
3.531700e+003, 1.091759e+005
3.533628e+003, 1.090189e+005
3.535557e+003, 1.088494e+005
3.537485e+003, 1.087398e+005
3.539414e+003, 1.086877e+005
3.541342e+003, 1.087036e+005
3.543271e+003, 1.088398e+005
3.545199e+003, 1.090081e+005
3.547127e+003, 1.090575e+005
3.549056e+003, 1.090672e+005
3.550984e+003, 1.090312e+005
3.552913e+003, 1.090769e+005
3.554841e+003, 1.092863e+005
3.556770e+003, 1.093117e+005
3.558698e+003, 1.091972e+005
3.560627e+003, 1.091552e+005
3.562555e+003, 1.091242e+005
3.564484e+003, 1.089802e+005
3.566412e+003, 1.089163e+005
3.568341e+003, 1.091243e+005
3.570269e+003, 1.091724e+005
3.572198e+003, 1.090238e+005
3.574126e+003, 1.090066e+005
3.576054e+003, 1.090857e+005
3.577983e+003, 1.091579e+005
3.579911e+003, 1.092098e+005
3.581840e+003, 1.091913e+005
3.583768e+003, 1.092185e+005
3.585697e+003, 1.093441e+005
3.587625e+003, 1.094992e+005
3.589554e+003, 1.096507e+005
3.591482e+003, 1.095399e+005
3.593411e+003, 1.093181e+005
3.595339e+003, 1.092469e+005
3.597268e+003, 1.091999e+005
3.599196e+003, 1.090318e+005
3.601125e+003, 1.090932e+005
3.603053e+003, 1.094343e+005
3.604981e+003, 1.093953e+005
3.606910e+003, 1.091094e+005
3.608838e+003, 1.091349e+005
3.610767e+003, 1.092506e+005
3.612695e+003, 1.092939e+005
3.614624e+003, 1.092906e+005
3.616552e+003, 1.092356e+005
3.618481e+003, 1.092489e+005
3.620409e+003, 1.093291e+005
3.622338e+003, 1.093539e+005
3.624266e+003, 1.093885e+005
3.626195e+003, 1.095688e+005
3.628123e+003, 1.097512e+005
3.630052e+003, 1.098600e+005
3.631980e+003, 1.099466e+005
3.633908e+003, 1.100123e+005
3.635837e+003, 1.100172e+005
3.637765e+003, 1.099559e+005
3.639694e+003, 1.097690e+005
3.641622e+003, 1.095923e+005
3.643551e+003, 1.095553e+005
3.645479e+003, 1.095663e+005
3.647408e+003, 1.096367e+005
3.649336e+003, 1.095747e+005
3.651265e+003, 1.094265e+005
3.653193e+003, 1.093761e+005
3.655122e+003, 1.094264e+005
3.657050e+003, 1.095690e+005
3.658979e+003, 1.098119e+005
3.660907e+003, 1.101972e+005
3.662835e+003, 1.102425e+005
3.664764e+003, 1.099573e+005
3.666692e+003, 1.099262e+005
3.668621e+003, 1.099468e+005
3.670549e+003, 1.096913e+005
3.672478e+003, 1.095098e+005
3.674406e+003, 1.095730e+005
3.676335e+003, 1.096645e+005
3.678263e+003, 1.097609e+005
3.680192e+003, 1.098130e+005
3.682120e+003, 1.098662e+005
3.684049e+003, 1.100520e+005
3.685977e+003, 1.101569e+005
3.687906e+003, 1.099580e+005
3.689834e+003, 1.099686e+005
3.691762e+003, 1.102578e+005
3.693691e+003, 1.103883e+005
3.695619e+003, 1.104031e+005
3.697548e+003, 1.104121e+005
3.699476e+003, 1.103685e+005
3.701405e+003, 1.101881e+005
3.703333e+003, 1.100981e+005
3.705262e+003, 1.101377e+005
3.707190e+003, 1.101172e+005
3.709119e+003, 1.100593e+005
3.711047e+003, 1.099890e+005
3.712976e+003, 1.099653e+005
3.714904e+003, 1.100700e+005
3.716833e+003, 1.101202e+005
3.718761e+003, 1.100841e+005
3.720689e+003, 1.101551e+005
3.722618e+003, 1.102804e+005
3.724546e+003, 1.103384e+005
3.726475e+003, 1.103629e+005
3.728403e+003, 1.103734e+005
3.730332e+003, 1.103667e+005
3.732260e+003, 1.103458e+005
3.734189e+003, 1.104689e+005
3.736117e+003, 1.106833e+005
3.738046e+003, 1.109330e+005
3.739974e+003, 1.110835e+005
3.741903e+003, 1.109802e+005
3.743831e+003, 1.108940e+005
3.745760e+003, 1.108565e+005
3.747688e+003, 1.107012e+005
3.749616e+003, 1.105472e+005
3.751545e+003, 1.107228e+005
3.753473e+003, 1.108843e+005
3.755402e+003, 1.107820e+005
3.757330e+003, 1.107368e+005
3.759259e+003, 1.107740e+005
3.761187e+003, 1.108552e+005
3.763116e+003, 1.109792e+005
3.765044e+003, 1.112159e+005
3.766973e+003, 1.113686e+005
3.768901e+003, 1.112893e+005
3.770830e+003, 1.111965e+005
3.772758e+003, 1.111144e+005
3.774687e+003, 1.111233e+005
3.776615e+003, 1.112102e+005
3.778543e+003, 1.114322e+005
3.780472e+003, 1.115392e+005
3.782400e+003, 1.113672e+005
3.784329e+003, 1.112830e+005
3.786257e+003, 1.112996e+005
3.788186e+003, 1.114657e+005
3.790114e+003, 1.115480e+005
3.792043e+003, 1.112354e+005
3.793971e+003, 1.110535e+005
3.795900e+003, 1.111668e+005
3.797828e+003, 1.112394e+005
3.799757e+003, 1.112709e+005
3.801685e+003, 1.113454e+005
3.803614e+003, 1.113278e+005
3.805542e+003, 1.111045e+005
3.807470e+003, 1.109066e+005
3.809399e+003, 1.107793e+005
3.811327e+003, 1.106800e+005
3.813256e+003, 1.106360e+005
3.815184e+003, 1.107598e+005
3.817113e+003, 1.108198e+005
3.819041e+003, 1.106843e+005
3.820970e+003, 1.106449e+005
3.822898e+003, 1.107124e+005
3.824827e+003, 1.108852e+005
3.826755e+003, 1.110296e+005
3.828684e+003, 1.109246e+005
3.830612e+003, 1.109163e+005
3.832541e+003, 1.111286e+005
3.834469e+003, 1.111011e+005
3.836397e+003, 1.109112e+005
3.838326e+003, 1.107616e+005
3.840254e+003, 1.106927e+005
3.842183e+003, 1.107757e+005
3.844111e+003, 1.107792e+005
3.846040e+003, 1.106754e+005
3.847968e+003, 1.108094e+005
3.849897e+003, 1.110507e+005
3.851825e+003, 1.112584e+005
3.853754e+003, 1.114031e+005
3.855682e+003, 1.114779e+005
3.857611e+003, 1.114955e+005
3.859539e+003, 1.114559e+005
3.861468e+003, 1.113009e+005
3.863396e+003, 1.111465e+005
3.865324e+003, 1.110474e+005
3.867253e+003, 1.110787e+005
3.869181e+003, 1.112341e+005
3.871110e+003, 1.113226e+005
3.873038e+003, 1.113347e+005
3.874967e+003, 1.111939e+005
3.876895e+003, 1.111128e+005
3.878824e+003, 1.112236e+005
3.880752e+003, 1.113098e+005
3.882681e+003, 1.113166e+005
3.884609e+003, 1.109724e+005
3.886538e+003, 1.107163e+005
3.888466e+003, 1.109055e+005
3.890395e+003, 1.110642e+005
3.892323e+003, 1.111146e+005
3.894251e+003, 1.110436e+005
3.896180e+003, 1.109862e+005
3.898108e+003, 1.112207e+005
3.900037e+003, 1.113382e+005
3.901965e+003, 1.111684e+005
3.903894e+003, 1.112702e+005
3.905822e+003, 1.115044e+005
3.907751e+003, 1.113326e+005
3.909679e+003, 1.111296e+005
3.911608e+003, 1.110962e+005
3.913536e+003, 1.111748e+005
3.915465e+003, 1.113361e+005
3.917393e+003, 1.114022e+005
3.919322e+003, 1.113863e+005
3.921250e+003, 1.112588e+005
3.923178e+003, 1.111810e+005
3.925107e+003, 1.111879e+005
3.927035e+003, 1.113183e+005
3.928964e+003, 1.114797e+005
3.930892e+003, 1.114735e+005
3.932821e+003, 1.114724e+005
3.934749e+003, 1.115794e+005
3.936678e+003, 1.114840e+005
3.938606e+003, 1.112863e+005
3.940535e+003, 1.114372e+005
3.942463e+003, 1.115716e+005
3.944392e+003, 1.114343e+005
3.946320e+003, 1.113623e+005
3.948249e+003, 1.113980e+005
3.950177e+003, 1.116061e+005
3.952105e+003, 1.118108e+005
3.954034e+003, 1.117819e+005
3.955962e+003, 1.117996e+005
3.957891e+003, 1.119264e+005
3.959819e+003, 1.119089e+005
3.961748e+003, 1.118221e+005
3.963676e+003, 1.117698e+005
3.965605e+003, 1.117635e+005
3.967533e+003, 1.118176e+005
3.969462e+003, 1.118410e+005
3.971390e+003, 1.118608e+005
3.973319e+003, 1.119717e+005
3.975247e+003, 1.120600e+005
3.977176e+003, 1.120278e+005
3.979104e+003, 1.120994e+005
3.981032e+003, 1.122210e+005
3.982961e+003, 1.121445e+005
3.984889e+003, 1.119974e+005
3.986818e+003, 1.118485e+005
3.988746e+003, 1.117342e+005
3.990675e+003, 1.116798e+005
3.992603e+003, 1.118445e+005
3.994532e+003, 1.120195e+005
3.996460e+003, 1.120208e+005
3.998389e+003, 1.119167e+005
4.000317e+003, 1.117110e+005
4.002246e+003, 1.117845e+005
4.004174e+003, 1.118974e+005
4.006103e+003, 1.117363e+005
4.008031e+003, 1.116095e+005
4.009959e+003, 1.115928e+005
4.011888e+003, 1.116412e+005
4.013816e+003, 1.116836e+005
4.015745e+003, 1.115413e+005
4.017673e+003, 1.115076e+005
4.019602e+003, 1.116565e+005
4.021530e+003, 1.115740e+005
4.023459e+003, 1.114155e+005
4.025387e+003, 1.116129e+005
4.027316e+003, 1.117262e+005
4.029244e+003, 1.115505e+005
4.031173e+003, 1.114277e+005
4.033101e+003, 1.113698e+005
4.035030e+003, 1.113945e+005
4.036958e+003, 1.114125e+005
4.038886e+003, 1.113628e+005
4.040815e+003, 1.113802e+005
4.042743e+003, 1.113979e+005
4.044672e+003, 1.111840e+005
4.046600e+003, 1.109992e+005
4.048529e+003, 1.109800e+005
4.050457e+003, 1.110526e+005
4.052386e+003, 1.111755e+005
4.054314e+003, 1.112491e+005
4.056243e+003, 1.112120e+005
4.058171e+003, 1.108792e+005
4.060100e+003, 1.108549e+005
4.062028e+003, 1.110459e+005
4.063957e+003, 1.110941e+005
4.065885e+003, 1.110337e+005
4.067813e+003, 1.108439e+005
4.069742e+003, 1.107876e+005
4.071670e+003, 1.108374e+005
4.073599e+003, 1.108822e+005
4.075527e+003, 1.107982e+005
4.077456e+003, 1.104603e+005
4.079384e+003, 1.104677e+005
4.081313e+003, 1.107366e+005
4.083241e+003, 1.106643e+005
4.085170e+003, 1.106432e+005
4.087098e+003, 1.109707e+005
4.089027e+003, 1.110216e+005
4.090955e+003, 1.108790e+005
4.092884e+003, 1.110952e+005
4.094812e+003, 1.112699e+005
4.096740e+003, 1.111047e+005
4.098669e+003, 1.110124e+005
4.100598e+003, 1.109728e+005
4.102526e+003, 1.109076e+005
4.104454e+003, 1.107701e+005
4.106383e+003, 1.105235e+005
4.108312e+003, 1.104841e+005
4.110240e+003, 1.105753e+005
4.112168e+003, 1.104854e+005
4.114097e+003, 1.104379e+005
4.116025e+003, 1.105379e+005
4.117954e+003, 1.105404e+005
4.119882e+003, 1.104989e+005
4.121811e+003, 1.105726e+005
4.123739e+003, 1.106956e+005
4.125667e+003, 1.108469e+005
4.127596e+003, 1.109431e+005
4.129524e+003, 1.110180e+005
4.131453e+003, 1.111714e+005
4.133381e+003, 1.112985e+005
4.135310e+003, 1.113656e+005
4.137238e+003, 1.114118e+005
4.139167e+003, 1.113870e+005
4.141095e+003, 1.111655e+005
4.143023e+003, 1.109846e+005
4.144952e+003, 1.109104e+005
4.146881e+003, 1.110515e+005
4.148809e+003, 1.112754e+005
4.150737e+003, 1.114309e+005
4.152666e+003, 1.115530e+005
4.154595e+003, 1.116455e+005
4.156523e+003, 1.117842e+005
4.158451e+003, 1.118660e+005
4.160380e+003, 1.117501e+005
4.162309e+003, 1.118317e+005
4.164237e+003, 1.120833e+005
4.166165e+003, 1.115860e+005
4.168094e+003, 1.112501e+005
4.170022e+003, 1.118107e+005
4.171951e+003, 1.120392e+005
4.173879e+003, 1.119426e+005
4.175808e+003, 1.119702e+005
4.177736e+003, 1.119848e+005
4.179665e+003, 1.119088e+005
4.181593e+003, 1.118146e+005
4.183521e+003, 1.117400e+005
4.185450e+003, 1.118068e+005
4.187378e+003, 1.117915e+005
4.189307e+003, 1.115526e+005
4.191235e+003, 1.117461e+005
4.193164e+003, 1.120190e+005
4.195092e+003, 1.118739e+005
4.197021e+003, 1.116590e+005
4.198949e+003, 1.114608e+005
4.200878e+003, 1.112809e+005
4.202806e+003, 1.111453e+005
4.204734e+003, 1.110207e+005
4.206663e+003, 1.110924e+005
4.208592e+003, 1.112910e+005
4.210520e+003, 1.112717e+005
4.212448e+003, 1.112250e+005
4.214377e+003, 1.112544e+005
4.216306e+003, 1.113783e+005
4.218234e+003, 1.115039e+005
4.220162e+003, 1.113408e+005
4.222091e+003, 1.112638e+005
4.224020e+003, 1.113855e+005
4.225948e+003, 1.111610e+005
4.227876e+003, 1.108686e+005
4.229805e+003, 1.109563e+005
4.231733e+003, 1.109749e+005
4.233662e+003, 1.108660e+005
4.235590e+003, 1.108129e+005
4.237519e+003, 1.107707e+005
##END=



