##NAMES=Glecklerite
##RRUFFID=R230002
##IDEAL CHEMISTRY=Na(C_2_H_3_O_3_)
##LOCALITY=Pusch Ridge, Santa Catalina Mountains, Tucson, Pima County, Arizona, USA
##OWNER=RRUFF
##SOURCE=Warren Lazar
##DESCRIPTION=Colorless elongated tabular crystals, associated with NH4-glycolate minerals. Type sample
##STATUS=The identification of this mineral is confirmed by single-crystal X-ray diffraction and chemical analysis.
##URL=rruff.info/R230002
##MEASURED CHEMISTRY=Na_0.97_(C_2_H_3_O_3_) ; The empirical formula was calculated based on 2 C apfu (from the structure determination).
91.88849, 0.0000000E+00
92.37061, 7.500610
92.85272, 1.880249
93.33484, 3.220337
93.81696, 0.9765630
94.29907, 5.774048
94.78119, 14.34296
95.26331, 24.73486
95.74542, 39.45331
96.22754, 58.69019
96.70966, 82.17029
97.19177, 110.1100
97.67389, 142.5475
98.15601, 177.5942
98.63812, 213.3852
99.12024, 250.4019
99.60236, 284.9725
100.0845, 313.9039
100.5666, 335.6351
101.0487, 361.7260
101.5308, 389.7098
102.0129, 423.0297
102.4950, 472.5646
102.9772, 542.8217
103.4593, 620.9302
103.9414, 701.9588
104.4235, 787.3614
104.9056, 871.9604
105.3877, 957.4921
105.8699, 1043.094
106.3520, 1118.930
106.8341, 1180.275
107.3162, 1235.745
107.7983, 1291.345
108.2804, 1334.047
108.7626, 1391.395
109.2447, 1465.035
109.7268, 1554.810
110.2089, 1662.372
110.6910, 1788.374
111.1731, 1932.369
111.6553, 2090.719
112.1374, 2262.599
112.6195, 2449.295
113.1016, 2656.396
113.5837, 2888.571
114.0658, 3121.385
114.5480, 3359.535
115.0301, 3595.471
115.5122, 3808.660
115.9943, 4011.872
116.4764, 4180.912
116.9585, 4306.075
117.4407, 4398.536
117.9228, 4423.074
118.4049, 4356.651
118.8870, 4208.054
119.3691, 3998.955
119.8512, 3712.306
120.3334, 3386.641
120.8155, 3056.421
121.2976, 2716.877
121.7797, 2391.254
122.2618, 2095.829
122.7439, 1827.622
123.2261, 1588.495
123.7082, 1384.378
124.1903, 1208.827
124.6724, 1056.511
125.1545, 928.7689
125.6366, 819.3472
126.1188, 719.6743
126.6009, 629.1943
127.0830, 549.3922
127.5651, 483.4844
128.0472, 430.6529
128.5293, 384.9864
129.0115, 345.8266
129.4936, 312.3887
129.9757, 282.3690
130.4578, 255.3641
130.9399, 232.9641
131.4220, 218.9426
131.9042, 213.0263
132.3863, 208.2744
132.8684, 201.6945
133.3505, 193.3514
133.8326, 184.5905
134.3147, 175.7430
134.7969, 166.2023
135.2790, 154.1624
135.7611, 139.0808
136.2432, 123.7513
136.7253, 109.0519
137.2074, 94.82825
137.6896, 82.06638
138.1717, 70.96594
138.6538, 61.16891
139.1359, 51.55356
139.6180, 41.40536
140.1001, 32.45685
140.5823, 26.12469
141.0644, 23.28259
141.5465, 20.50266
142.0286, 17.01196
142.5107, 13.13055
142.9928, 10.92206
143.4750, 11.66989
143.9571, 12.72098
144.4392, 11.98236
144.9213, 7.732208
145.4034, 4.558075
145.8855, 3.535400
146.3677, 4.766205
146.8498, 4.709076
147.3319, 2.660828
147.8140, 0.2484130
148.2961, 3.050507
148.7782, 5.749817
149.2604, 8.329224
149.7425, 10.03412
150.2246, 11.54538
150.7067, 13.11691
151.1888, 15.05255
151.6709, 16.82803
152.1531, 18.08600
152.6352, 18.20145
153.1173, 18.39886
153.5994, 19.14822
154.0815, 20.74301
154.5636, 21.80101
155.0458, 21.97202
155.5279, 21.50923
156.0100, 20.76395
156.4921, 19.78560
156.9742, 18.54533
157.4563, 16.97710
157.9385, 14.96429
158.4206, 12.93010
158.9027, 11.32100
159.3848, 9.753433
159.8669, 7.528366
160.3490, 4.163757
160.8312, 0.2368470
161.3133, 3.895020
161.7954, 7.998550
162.2775, 12.66144
162.7596, 18.04701
163.2417, 24.16507
163.7238, 31.03889
164.2060, 40.72737
164.6881, 50.05817
165.1702, 56.64960
165.6523, 59.68591
166.1344, 60.35059
166.6165, 58.56107
167.0987, 54.72192
167.5808, 50.42659
168.0629, 45.31357
168.5450, 40.66118
169.0271, 37.71748
169.5092, 37.02469
169.9914, 37.88033
170.4735, 40.38121
170.9556, 44.25801
171.4377, 48.03314
171.9198, 49.53114
172.4019, 50.56889
172.8841, 53.93568
173.3662, 61.77231
173.8483, 70.96948
174.3304, 78.06462
174.8125, 83.23941
175.2946, 88.34807
175.7768, 94.92294
176.2589, 102.5607
176.7410, 110.2359
177.2231, 117.6650
177.7052, 125.0706
178.1873, 133.4925
178.6695, 142.9088
179.1516, 150.7058
179.6337, 154.4786
180.1158, 154.6992
180.5979, 152.6223
181.0800, 147.7899
181.5622, 141.2098
182.0443, 134.8621
182.5264, 128.7070
183.0085, 122.5122
183.4906, 115.6430
183.9727, 108.3641
184.4549, 101.5189
184.9370, 95.13437
185.4191, 89.50352
185.9012, 85.48085
186.3833, 83.10020
186.8654, 82.17471
187.3476, 83.35455
187.8297, 86.37708
188.3118, 88.67775
188.7939, 89.12680
189.2760, 87.98038
189.7581, 86.01427
190.2403, 82.90234
190.7224, 80.07932
191.2045, 79.77766
191.6866, 81.95317
192.1687, 84.36998
192.6508, 85.96489
193.1330, 86.85071
193.6151, 88.48665
194.0972, 91.17320
194.5793, 93.81705
195.0614, 94.26251
195.5435, 92.32018
196.0257, 91.11302
196.5078, 92.61589
196.9899, 96.78294
197.4720, 99.24158
197.9541, 99.59755
198.4362, 99.06100
198.9184, 99.68422
199.4005, 101.6588
199.8826, 103.6056
200.3647, 105.0550
200.8468, 106.0422
201.3289, 106.3118
201.8111, 105.7891
202.2932, 104.6523
202.7753, 103.0680
203.2574, 100.9203
203.7395, 98.82912
204.2216, 97.43088
204.7038, 96.94443
205.1859, 94.89140
205.6680, 90.76462
206.1501, 85.42883
206.6322, 80.56209
207.1143, 76.24084
207.5965, 72.21439
208.0786, 68.31526
208.5607, 64.49696
209.0428, 61.17787
209.5249, 58.66304
210.0070, 56.47667
210.4892, 53.40895
210.9713, 48.88741
211.4534, 44.86247
211.9355, 42.34039
212.4176, 41.89508
212.8997, 41.00060
213.3819, 39.76471
213.8640, 38.09152
214.3461, 35.59517
214.8282, 31.84236
215.3103, 28.26982
215.7924, 25.51294
216.2746, 23.70345
216.7567, 22.40666
217.2388, 21.96545
217.7209, 21.85023
218.2030, 20.65163
218.6851, 17.52954
219.1673, 15.08049
219.6494, 14.64093
220.1315, 17.21532
220.6136, 18.72295
221.0957, 18.80318
221.5778, 17.92340
222.0600, 17.25081
222.5421, 16.70592
223.0242, 16.40852
223.5063, 16.34755
223.9884, 16.39821
224.4705, 16.89250
224.9527, 18.06178
225.4348, 19.59923
225.9169, 20.72757
226.3990, 21.37224
226.8811, 21.71626
227.3632, 21.85149
227.8454, 21.83054
228.3275, 21.53664
228.8096, 20.85159
229.2917, 19.93886
229.7738, 19.20978
230.2559, 18.77069
230.7381, 18.30106
231.2202, 17.49828
231.7023, 15.66408
232.1844, 15.58339
232.6665, 18.17680
233.1486, 22.13478
233.6308, 24.65752
234.1129, 25.13762
234.5950, 25.09436
235.0771, 24.98456
235.5592, 24.60365
236.0413, 24.87219
236.5235, 26.39290
237.0056, 28.29195
237.4877, 28.71805
237.9698, 26.69438
238.4519, 24.78354
238.9340, 23.98669
239.4162, 24.77080
239.8983, 25.17810
240.3804, 24.95314
240.8625, 24.46031
241.3446, 24.33490
241.8267, 24.54008
242.3089, 25.17088
242.7910, 26.49435
243.2731, 29.00403
243.7552, 30.17749
244.2373, 29.57350
244.7194, 27.91295
245.2016, 26.32010
245.6837, 24.69792
246.1658, 23.31851
246.6479, 22.22298
247.1300, 21.36234
247.6121, 21.02809
248.0943, 21.75200
248.5764, 22.60629
249.0585, 22.09969
249.5406, 19.36546
250.0227, 16.88310
250.5048, 15.41573
250.9870, 15.14536
251.4691, 14.78185
251.9512, 14.08240
252.4333, 13.43845
252.9154, 13.39735
253.3975, 14.40813
253.8797, 15.09247
254.3618, 14.98683
254.8439, 14.00421
255.3260, 13.25810
255.8081, 12.76149
256.2902, 12.48189
256.7723, 12.42206
257.2545, 12.71762
257.7366, 12.97108
258.2187, 13.07585
258.7008, 13.02295
259.1829, 12.64214
259.6650, 11.85031
260.1472, 10.84796
260.6293, 9.742905
261.1114, 8.371078
261.5935, 7.404266
262.0756, 7.135742
262.5577, 7.511734
263.0399, 7.480240
263.5220, 6.886673
264.0041, 6.152283
264.4862, 5.592972
264.9683, 5.139206
265.4504, 5.227783
265.9326, 6.228592
266.4147, 7.898682
266.8968, 7.988663
267.3789, 5.903473
267.8610, 3.501862
268.3431, 2.294632
268.8253, 2.486099
269.3074, 2.986801
269.7895, 3.902359
270.2716, 4.972870
270.7537, 4.995071
271.2358, 3.599045
271.7180, 2.098190
272.2001, 1.610611
272.6822, 2.427795
273.1643, 2.375473
273.6464, 0.8382570
274.1285, 1.476273
274.6107, 2.452515
275.0928, 1.923157
275.5749, 0.6878360
276.0570, 1.165054
276.5391, 3.732147
277.0212, 4.798782
277.5034, 3.772049
277.9855, 1.635727
278.4676, 0.7222750
278.9497, 1.239334
279.4318, 1.685989
279.9139, 0.8119050
280.3961, 1.349594
280.8782, 1.886993
281.3603, 0.2270660
281.8424, 2.249435
282.3245, 3.057480
282.8066, 2.138397
283.2888, 1.111282
283.7709, 0.8929290
284.2530, 1.350494
284.7351, 1.162476
285.2172, 0.2249600
285.6993, 0.8988490
286.1815, 1.516312
286.6636, 1.648865
287.1457, 1.423981
287.6278, 0.6578220
288.1099, 0.4328310
288.5920, 0.9271550
289.0742, 0.7660680
289.5563, 0.3892210
290.0384, 0.2487640
290.5205, 0.3440860
291.0026, 0.6139530
291.4847, 1.250595
291.9669, 2.019272
292.4490, 2.168549
292.9311, 1.715042
293.4132, 1.140381
293.8953, 0.8194120
294.3774, 0.7220610
294.8596, 0.7996980
295.3417, 1.304764
295.8238, 1.779617
296.3059, 1.276169
296.7880, 8.0215000E-02
297.2701, 1.360596
297.7523, 2.146912
298.2344, 2.327118
298.7165, 1.595490
299.1986, 0.6525270
299.6807, 3.056824
300.1628, 3.692215
300.6450, 2.842773
301.1271, 1.960648
301.6092, 2.333069
302.0913, 3.186890
302.5734, 3.202118
303.0555, 1.878067
303.5377, 0.4775240
304.0198, 0.4812160
304.5019, 1.448898
304.9840, 2.189377
305.4661, 1.687286
305.9482, 0.7849120
306.4304, 0.4896700
306.9125, 1.024139
307.3946, 1.465195
307.8767, 0.5805210
308.3588, 0.8497160
308.8409, 1.403412
309.3231, 0.3075410
309.8052, 2.642624
310.2873, 4.627335
310.7694, 6.245834
311.2515, 6.885834
311.7336, 5.237656
312.2158, 2.689240
312.6979, 0.9584810
313.1800, 1.682816
313.6621, 2.526962
314.1442, 1.994766
314.6263, 0.1956480
315.1085, 1.098801
315.5906, 0.6852570
316.0727, 0.3148040
316.5548, 0.9743650
317.0369, 0.6860500
317.5190, 0.4437100
318.0012, 0.4934840
318.4833, 0.8301090
318.9654, 1.437805
319.4475, 3.168137
319.9296, 4.585693
320.4117, 4.798111
320.8939, 2.812286
321.3760, 0.9513240
321.8581, 0.7414400
322.3402, 1.996521
322.8223, 2.184341
323.3044, 7.2329999E-03
323.7866, 2.093277
324.2687, 3.190887
324.7508, 2.979843
325.2329, 2.532684
325.7150, 1.725128
326.1971, 0.7672420
326.6793, 1.8494001E-02
327.1614, 0.7794340
327.6435, 1.213989
328.1256, 1.206848
328.6077, 0.7009120
329.0898, 0.1098790
329.5720, 0.6646730
330.0541, 1.457489
330.5362, 2.140320
331.0183, 2.992447
331.5004, 3.239914
331.9825, 2.486343
332.4647, 0.8352360
332.9468, 0.2519840
333.4289, 0.5651550
333.9110, 0.5789490
334.3931, 0.6879580
334.8752, 1.136108
335.3573, 0.9280700
335.8394, 0.3498840
336.3216, 2.230530
336.8037, 3.191391
337.2858, 3.024673
337.7679, 2.494324
338.2500, 1.775742
338.7321, 0.7877960
339.2143, 0.7440030
339.6964, 2.009308
340.1785, 3.675125
340.6606, 4.090439
341.1427, 3.169708
341.6248, 1.903259
342.1070, 0.5299680
342.5891, 0.9025570
343.0712, 2.057907
343.5533, 2.971588
344.0354, 3.501190
344.5175, 3.364349
344.9997, 2.600342
345.4818, 1.642883
345.9639, 0.5582890
346.4460, 0.5814360
346.9281, 1.792618
347.4102, 3.064240
347.8924, 3.741913
348.3745, 2.488815
348.8566, 0.1779170
349.3387, 0.7489930
349.8208, 0.7093660
350.3029, 2.918930
350.7851, 3.946014
351.2672, 3.898407
351.7493, 3.144226
352.2314, 0.8287510
352.7135, 1.645767
353.1956, 2.072083
353.6778, 0.2603910
354.1599, 2.756378
354.6420, 2.844971
355.1241, 1.486145
355.6062, 0.5332340
356.0883, 1.301773
356.5705, 2.526443
357.0526, 3.225845
357.5347, 3.307678
358.0168, 3.350525
358.4989, 3.603531
358.9810, 4.014801
359.4632, 4.530060
359.9453, 5.756973
360.4274, 6.488342
360.9095, 5.853470
361.3916, 4.121521
361.8737, 2.801758
362.3559, 2.486755
362.8380, 2.681992
363.3201, 3.098297
363.8022, 3.748779
364.2843, 4.524887
364.7664, 5.636520
365.2486, 6.851288
365.7307, 7.662308
366.2128, 8.053772
366.6949, 7.950790
367.1770, 7.230118
367.6591, 5.461960
368.1413, 4.243546
368.6234, 3.716858
369.1055, 3.648712
369.5876, 3.828735
370.0697, 4.641983
370.5518, 5.099594
371.0340, 4.942368
371.5161, 4.197113
371.9982, 3.423157
372.4803, 2.395874
372.9624, 1.613525
373.4445, 1.673798
373.9267, 2.941254
374.4088, 3.811432
374.8909, 4.045395
375.3730, 3.840057
375.8551, 3.629883
376.3372, 3.373581
376.8194, 3.313904
377.3015, 3.801437
377.7836, 4.843536
378.2657, 5.106354
378.7478, 4.451492
379.2299, 3.343155
379.7121, 1.976303
380.1942, 0.4281920
380.6763, 6.7763999E-02
381.1584, 1.616486
381.6405, 4.488953
382.1227, 5.946732
382.6048, 6.059616
383.0869, 5.872818
383.5690, 6.066559
384.0511, 6.459000
384.5332, 6.832611
385.0154, 7.208038
385.4975, 7.509903
385.9796, 7.641968
386.4617, 7.642654
386.9438, 7.581314
387.4259, 7.249725
387.9081, 6.977661
388.3902, 7.198669
388.8723, 7.956421
389.3544, 8.871292
389.8365, 9.730865
390.3186, 10.57256
390.8008, 11.41331
391.2829, 12.38197
391.7650, 13.42567
392.2471, 14.45157
392.7292, 15.42526
393.2113, 16.37013
393.6935, 17.57445
394.1756, 18.57068
394.6577, 18.94331
395.1398, 17.71745
395.6219, 17.03073
396.1040, 17.64406
396.5862, 19.10051
397.0683, 20.15868
397.5504, 20.47012
398.0325, 20.57774
398.5146, 20.50592
398.9967, 19.87341
399.4789, 20.29205
399.9610, 22.28590
400.4431, 24.91182
400.9252, 27.27223
401.4073, 29.94113
401.8894, 31.19365
402.3716, 30.10797
402.8537, 27.08244
403.3358, 25.87396
403.8179, 26.99237
404.3000, 28.74452
404.7821, 29.90430
405.2643, 30.34312
405.7464, 31.04274
406.2285, 32.14574
406.7106, 33.42664
407.1927, 34.63464
407.6748, 35.88550
408.1570, 37.15350
408.6391, 38.71796
409.1212, 40.33533
409.6033, 40.97325
410.0854, 40.58708
410.5675, 39.18976
411.0497, 36.24268
411.5318, 32.49580
412.0139, 29.78279
412.4960, 29.01503
412.9781, 28.95285
413.4602, 28.30162
413.9424, 27.10719
414.4245, 25.30940
414.9066, 22.00473
415.3887, 18.47011
415.8708, 16.25819
416.3529, 15.86443
416.8351, 15.67308
417.3172, 14.39240
417.7993, 12.71922
418.2814, 11.72423
418.7635, 12.55992
419.2456, 13.47432
419.7278, 13.71875
420.2099, 13.27919
420.6920, 12.59518
421.1741, 11.35439
421.6562, 10.17610
422.1383, 9.467743
422.6205, 10.19919
423.1026, 10.29495
423.5847, 9.146133
424.0668, 7.274551
424.5489, 5.974930
425.0310, 5.620605
425.5132, 5.352600
425.9953, 4.666550
426.4774, 3.249496
426.9595, 3.630676
427.4416, 7.142975
427.9237, 10.74341
428.4059, 10.79205
428.8880, 6.116928
429.3701, 2.726944
429.8522, 2.007446
430.3343, 3.221313
430.8164, 3.830124
431.2986, 3.799927
431.7807, 3.696304
432.2628, 3.730774
432.7449, 3.921906
433.2270, 4.661865
433.7091, 6.165482
434.1912, 7.380280
434.6733, 6.432236
435.1555, 3.906937
435.6376, 1.893311
436.1197, 1.440643
436.6018, 1.811371
437.0839, 2.176132
437.5660, 2.495331
438.0482, 2.587067
438.5303, 2.510422
439.0124, 2.228271
439.4945, 1.378677
439.9766, 0.6299590
440.4587, 2.054596
440.9409, 1.577026
441.4230, 0.1438600
441.9051, 1.946625
442.3872, 3.807571
442.8693, 5.293640
443.3514, 6.327759
443.8336, 6.917328
444.3157, 6.684448
444.7978, 4.345612
445.2799, 1.888733
445.7620, 0.7354430
446.2441, 2.420212
446.7263, 3.555389
447.2084, 4.100708
447.6905, 4.037003
448.1726, 3.206238
448.6547, 1.066010
449.1368, 0.9150240
449.6190, 2.424561
450.1011, 3.534622
450.5832, 2.924255
451.0653, 4.7424000E-02
451.5474, 3.406677
452.0295, 5.114227
452.5117, 5.095169
452.9938, 4.720123
453.4759, 4.100510
453.9580, 3.451065
454.4401, 3.296158
454.9222, 3.618164
455.4044, 4.087891
455.8865, 4.627472
456.3686, 5.155090
456.8507, 5.571594
457.3328, 5.886978
457.8149, 5.863327
458.2971, 4.693970
458.7792, 3.126495
459.2613, 2.487228
459.7434, 4.162079
460.2255, 5.947327
460.7076, 5.950211
461.1898, 4.610413
461.6719, 3.499481
462.1540, 3.525650
462.6361, 3.905334
463.1182, 4.281769
463.6003, 4.744232
464.0825, 4.697540
464.5646, 3.597015
465.0467, 2.068710
465.5288, 0.8152620
466.0109, 0.4863130
466.4930, 1.022675
466.9752, 0.2998810
467.4573, 1.427521
467.9394, 2.520142
468.4215, 2.652481
468.9036, 2.593872
469.3857, 2.654800
469.8679, 2.772919
470.3500, 3.360504
470.8321, 4.632858
471.3142, 6.002914
471.7963, 6.481750
472.2784, 5.998154
472.7606, 5.816055
473.2427, 6.374222
473.7248, 7.420792
474.2069, 8.481674
474.6890, 9.539230
475.1711, 9.990494
475.6533, 8.663391
476.1354, 6.551392
476.6175, 5.923004
477.0996, 7.252838
477.5817, 8.797607
478.0638, 8.678894
478.5460, 7.727936
479.0281, 7.358322
479.5102, 8.928009
479.9923, 10.57497
480.4744, 11.14116
480.9565, 10.76707
481.4387, 10.12056
481.9208, 8.878693
482.4029, 7.872559
482.8850, 7.715256
483.3671, 8.826385
483.8492, 9.648712
484.3314, 9.894501
484.8135, 9.819763
485.2956, 9.668365
485.7777, 8.479935
486.2598, 8.769272
486.7419, 11.93257
487.2241, 17.09126
487.7062, 19.32402
488.1883, 17.93573
488.6704, 15.25644
489.1525, 11.88109
489.6346, 7.563751
490.1168, 5.933182
490.5989, 7.537506
491.0810, 10.19389
491.5631, 10.95009
492.0452, 10.10361
492.5273, 10.07210
493.0095, 12.03525
493.4916, 14.65274
493.9737, 15.82962
494.4558, 15.77898
494.9379, 15.54201
495.4200, 15.36513
495.9022, 15.54388
496.3843, 16.50706
496.8664, 18.36244
497.3485, 20.44846
497.8306, 22.82594
498.3127, 24.97200
498.7949, 26.41025
499.2770, 25.62129
499.7591, 25.64235
500.2412, 27.97290
500.7233, 31.87279
501.2054, 34.84622
501.6876, 35.07272
502.1697, 35.70726
502.6518, 37.72476
503.1339, 41.23364
503.6160, 45.38402
504.0981, 50.33563
504.5803, 55.78864
505.0624, 61.64279
505.5445, 67.96883
506.0266, 73.89821
506.5087, 78.95795
506.9908, 83.79913
507.4730, 89.46596
507.9551, 95.93402
508.4372, 104.9270
508.9193, 118.6028
509.4014, 135.4610
509.8835, 150.4780
510.3657, 163.7235
510.8478, 178.7811
511.3299, 198.8786
511.8120, 222.6750
512.2941, 247.9824
512.7762, 274.0734
513.2584, 302.5197
513.7405, 334.3868
514.2226, 369.6250
514.7047, 408.1446
515.1868, 454.4857
515.6689, 499.7833
516.1511, 540.7189
516.6332, 577.3983
517.1153, 611.0652
517.5974, 646.5821
518.0795, 675.6753
518.5616, 695.6263
519.0438, 712.5334
519.5259, 705.7037
520.0080, 669.3298
520.4901, 614.2160
520.9722, 551.5917
521.4543, 479.8238
521.9365, 411.7515
522.4186, 349.3140
522.9007, 292.9546
523.3828, 245.7957
523.8649, 207.6542
524.3470, 175.5756
524.8292, 148.4168
525.3113, 126.2141
525.7934, 108.0512
526.2755, 93.93625
526.7576, 82.39229
527.2397, 72.57259
527.7219, 64.11694
528.2040, 56.56735
528.6861, 49.57916
529.1682, 43.65128
529.6503, 39.07379
530.1324, 35.69186
530.6146, 33.06619
531.0967, 32.17982
531.5788, 30.98772
532.0609, 28.37544
532.5430, 24.19093
533.0251, 20.57774
533.5073, 17.52144
533.9894, 15.22801
534.4715, 13.93169
534.9536, 14.15866
535.4357, 14.20834
535.9178, 14.18842
536.4000, 13.84779
536.8821, 12.52184
537.3642, 10.01106
537.8463, 8.296082
538.3284, 8.489807
538.8105, 9.485931
539.2927, 7.455154
539.7748, 2.578964
540.2569, 1.332047
540.7390, 1.011230
541.2211, 1.683517
541.7032, 3.640854
542.1854, 4.627213
542.6675, 5.062531
543.1496, 4.911682
543.6317, 4.517380
544.1138, 4.310593
544.5959, 4.608093
545.0781, 4.819733
545.5602, 4.587479
546.0423, 4.107483
546.5244, 3.798538
547.0065, 3.617004
547.4886, 3.760925
547.9708, 4.787750
548.4529, 6.692932
548.9350, 6.637115
549.4171, 3.284027
549.8992, 6.5825999E-02
550.3813, 1.310913
550.8635, 0.1088870
551.3456, 1.585022
551.8277, 4.100616
552.3098, 6.247650
552.7919, 5.765717
553.2740, 3.007721
553.7562, 1.158142
554.2383, 1.476868
554.7204, 2.613464
555.2025, 2.081116
555.6846, 0.3391420
556.1667, 0.6611020
556.6489, 0.8847660
557.1310, 3.212616
557.6131, 4.925598
558.0952, 5.943420
558.5773, 6.080200
559.0594, 4.157440
559.5416, 1.975250
560.0237, 1.002228
560.5058, 2.413635
560.9879, 3.430664
561.4700, 3.552460
561.9521, 3.171509
562.4343, 2.807770
562.9164, 2.611237
563.3985, 2.120972
563.8806, 1.063538
564.3627, 0.3358150
564.8448, 1.033813
565.3270, 0.9161070
565.8091, 0.7365110
566.2912, 1.070770
566.7733, 1.756470
567.2554, 1.781555
567.7375, 1.095612
568.2197, 0.2593080
568.7018, 0.1446230
569.1839, 0.4306950
569.6660, 1.124329
570.1481, 2.451508
570.6302, 3.649567
571.1124, 4.447693
571.5945, 4.783478
572.0766, 4.423126
572.5587, 2.004639
573.0408, 0.1802060
573.5229, 0.1820070
574.0051, 1.782593
574.4872, 3.153015
574.9693, 4.609772
575.4514, 5.318481
575.9335, 4.845032
576.4156, 2.826996
576.8978, 2.078247
577.3799, 2.856842
577.8620, 4.393036
578.3441, 6.294617
578.8262, 8.574585
579.3083, 9.867828
579.7905, 9.819641
580.2726, 9.232056
580.7547, 9.030487
581.2368, 9.260101
581.7189, 10.09848
582.2010, 11.76965
582.6831, 13.95367
583.1652, 16.59500
583.6473, 19.52582
584.1295, 22.22528
584.6116, 24.28061
585.0937, 25.90729
585.5758, 27.07288
586.0579, 27.57086
586.5400, 29.23575
587.0222, 32.71753
587.5043, 37.33820
587.9864, 42.65152
588.4685, 49.73184
588.9506, 55.43777
589.4327, 58.95593
589.9149, 61.59253
590.3970, 65.04831
590.8791, 69.15585
591.3612, 75.88147
591.8433, 86.46750
592.3254, 99.17459
592.8076, 111.1263
593.2897, 122.1525
593.7718, 130.5939
594.2539, 136.0397
594.7360, 138.0052
595.2181, 135.5613
595.7003, 128.8202
596.1824, 119.2453
596.6645, 105.4877
597.1466, 90.60455
597.6287, 76.91486
598.1108, 64.76566
598.5930, 54.25406
599.0751, 45.49265
599.5572, 38.42465
600.0393, 32.73309
600.5214, 29.25372
601.0035, 25.62680
601.4857, 21.13629
601.9678, 16.49991
602.4499, 14.12747
602.9320, 14.46469
603.4141, 14.34998
603.8962, 12.09286
604.3784, 8.420959
604.8605, 6.382935
605.3426, 5.911041
605.8247, 5.831818
606.3068, 5.111908
606.7889, 4.321259
607.2711, 4.581573
607.7532, 6.117920
608.2353, 7.196564
608.7174, 6.576172
609.1995, 5.135742
609.6816, 3.731537
610.1638, 1.956055
610.6459, 1.109619
611.1280, 2.213165
611.6101, 4.187897
612.0922, 5.255371
612.5743, 4.962158
613.0565, 4.595795
613.5386, 4.437927
614.0207, 4.376038
614.5028, 3.943665
614.9849, 3.051849
615.4670, 2.306396
615.9492, 2.102722
616.4313, 2.297577
616.9134, 2.441071
617.3955, 2.533020
617.8776, 2.501434
618.3597, 2.063721
618.8419, 1.566406
619.3240, 1.527008
619.8061, 2.130493
620.2882, 2.662811
620.7703, 2.594788
621.2524, 2.321594
621.7346, 2.260132
622.2167, 3.057617
622.6988, 3.331451
623.1809, 2.403046
623.6630, 1.067596
624.1451, 0.9829410
624.6273, 3.010437
625.1094, 4.117432
625.5915, 3.245941
626.0736, 0.9514470
626.5557, 0.6308900
627.0378, 1.496918
627.5200, 1.629211
628.0021, 0.5858150
628.4842, 1.110443
628.9663, 2.264709
629.4484, 2.864227
629.9305, 3.361694
630.4127, 4.710632
630.8948, 5.799469
631.3769, 5.045776
631.8590, 1.276398
632.3411, 1.132538
632.8232, 0.9705510
633.3054, 4.480835
633.7875, 6.068176
634.2696, 3.539612
634.7517, 1.784637
635.2338, 1.317505
635.7159, 1.633484
636.1981, 1.687103
636.6802, 1.376190
637.1623, 1.303558
637.6444, 1.759735
638.1265, 2.492828
638.6086, 2.753265
639.0908, 2.571228
639.5729, 2.290741
640.0550, 2.229950
640.5371, 2.123779
641.0192, 1.138885
641.5013, 0.6194760
641.9835, 1.209442
642.4656, 2.313446
642.9477, 6.135803
643.4298, 7.231110
643.9119, 4.143494
644.3940, 1.699738
644.8762, 1.238861
645.3583, 1.284241
645.8404, 0.5442810
646.3225, 1.671265
646.8046, 2.724579
647.2867, 2.180725
647.7689, 0.7687380
648.2510, 0.5750430
648.7331, 1.839691
649.2152, 2.293701
649.6973, 1.435699
650.1794, 5.2795000E-02
650.6616, 0.8249820
651.1437, 1.201385
651.6258, 1.087036
652.1079, 0.1768190
652.5900, 0.9729920
653.0721, 1.980499
653.5543, 2.866638
654.0364, 3.800842
654.5185, 5.577454
655.0006, 6.759949
655.4827, 6.436951
655.9648, 4.269867
656.4470, 2.700653
656.9291, 1.693512
657.4112, 1.340546
657.8933, 2.013275
658.3754, 3.781494
658.8575, 4.815308
659.3397, 4.990753
659.8218, 4.460541
660.3039, 2.494019
660.7860, 4.2389002E-02
661.2681, 0.5598450
661.7502, 2.371277
662.2324, 5.625671
662.7145, 6.520630
663.1966, 6.023834
663.6787, 5.759430
664.1608, 7.088165
664.6429, 7.844177
665.1251, 6.637909
665.6072, 4.227203
666.0893, 3.537750
666.5714, 5.897339
667.0535, 7.710846
667.5356, 7.741608
668.0178, 6.250061
668.4999, 4.738464
668.9820, 3.116150
669.4641, 2.252625
669.9462, 3.374054
670.4283, 5.551575
670.9105, 6.342590
671.3926, 5.692383
671.8747, 4.793274
672.3568, 4.511932
672.8389, 4.458099
673.3210, 4.077637
673.8032, 2.986786
674.2853, 2.767822
674.7674, 5.178070
675.2495, 7.977478
675.7316, 8.994171
676.2137, 6.834503
676.6959, 5.321930
677.1780, 4.384949
677.6601, 4.380249
678.1422, 6.521851
678.6243, 11.01013
679.1064, 13.75580
679.5886, 13.39001
680.0707, 11.60034
680.5528, 11.26822
681.0349, 12.01239
681.5170, 12.59299
681.9991, 11.84348
682.4813, 11.21793
682.9634, 12.14423
683.4455, 14.21008
683.9276, 15.85153
684.4097, 15.51914
684.8918, 15.58286
685.3740, 17.68558
685.8561, 21.75833
686.3382, 23.66406
686.8203, 22.07639
687.3024, 20.69611
687.7845, 21.50238
688.2667, 24.48767
688.7488, 28.64984
689.2309, 34.17868
689.7130, 38.96365
690.1951, 40.13428
690.6772, 39.62396
691.1594, 40.55557
691.6415, 43.36765
692.1236, 47.49149
692.6057, 52.63681
693.0878, 58.78284
693.5699, 65.94974
694.0521, 74.71790
694.5342, 83.49826
695.0163, 91.91479
695.4984, 100.4223
695.9805, 109.6272
696.4626, 119.4922
696.9448, 129.7567
697.4269, 140.0531
697.9090, 151.1797
698.3911, 166.0721
698.8732, 184.0250
699.3553, 199.2196
699.8375, 209.2251
700.3196, 215.9114
700.8017, 221.6670
701.2838, 225.7349
701.7659, 226.0097
702.2480, 220.4103
702.7302, 211.8426
703.2123, 201.1793
703.6944, 188.4980
704.1765, 174.5627
704.6586, 157.2569
705.1407, 141.8379
705.6229, 130.9069
706.1050, 124.0563
706.5871, 113.7221
707.0692, 99.37411
707.5513, 85.65054
708.0334, 75.80981
708.5156, 68.88330
708.9977, 63.82382
709.4798, 60.57983
709.9619, 56.93384
710.4440, 50.00494
710.9261, 42.44394
711.4083, 36.79083
711.8904, 33.70053
712.3725, 31.54456
712.8546, 30.74728
713.3367, 30.11420
713.8188, 28.67377
714.3010, 25.91553
714.7831, 23.42096
715.2652, 21.00705
715.7473, 19.13953
716.2294, 18.70044
716.7115, 19.55609
717.1937, 20.03851
717.6758, 19.91150
718.1579, 19.09900
718.6400, 16.93466
719.1221, 14.07529
719.6042, 11.79633
720.0864, 10.63184
720.5685, 9.860138
721.0506, 9.340088
721.5327, 8.953735
722.0148, 8.461884
722.4969, 7.811127
722.9791, 7.074524
723.4612, 6.114227
723.9433, 5.138428
724.4254, 4.890198
724.9075, 5.495758
725.3896, 5.794220
725.8718, 5.107452
726.3539, 4.041595
726.8360, 4.280914
727.3181, 5.469971
727.8002, 5.957245
728.2823, 3.533752
728.7645, 1.080231
729.2466, 1.104889
729.7287, 3.347870
730.2108, 5.427917
730.6929, 6.557343
731.1750, 7.531769
731.6572, 9.012177
732.1393, 10.99973
732.6214, 10.91315
733.1035, 8.058319
733.5856, 5.174225
734.0677, 4.044220
734.5499, 4.395508
735.0320, 4.930878
735.5141, 5.633850
735.9962, 5.824097
736.4783, 4.491882
736.9604, 2.610016
737.4426, 1.185242
737.9247, 0.3328250
738.4068, 3.5399999E-02
738.8889, 0.7470090
739.3710, 1.681610
739.8531, 2.192688
740.3353, 1.867401
740.8174, 2.451660
741.2995, 4.625610
741.7816, 6.567719
742.2637, 6.090027
742.7458, 3.362244
743.2280, 1.474823
743.7101, 0.8121950
744.1922, 0.7366330
744.6743, 0.7485960
745.1564, 0.8361510
745.6385, 1.003662
746.1207, 1.323212
746.6028, 1.533966
747.0849, 1.183624
747.5670, 0.7973630
748.0491, 1.037933
748.5313, 2.818054
749.0134, 3.861450
749.4955, 3.891083
749.9776, 3.332062
750.4597, 2.713989
750.9418, 2.015808
751.4240, 1.591553
751.9061, 1.519073
752.3882, 1.868469
752.8703, 2.833740
753.3524, 3.908508
753.8345, 4.227875
754.3167, 2.785980
754.7988, 1.623016
755.2809, 2.488556
755.7630, 4.303772
756.2451, 4.858765
756.7272, 2.322754
757.2094, 0.5516050
757.6915, 0.4146120
758.1736, 1.222107
758.6557, 1.067719
759.1378, 0.1606140
759.6199, 0.8925480
760.1021, 0.6205140
760.5842, 9.6527003E-02
761.0663, 0.4745480
761.5484, 0.5338440
762.0305, 0.2640380
762.5126, 1.002014
762.9948, 1.898193
763.4769, 1.046722
763.9590, 0.9772030
764.4411, 1.889099
764.9232, 0.5284730
765.4053, 1.702789
765.8875, 1.6418001E-02
766.3696, 3.853424
766.8517, 5.282104
767.3338, 4.063599
767.8159, 2.551941
768.2980, 1.504120
768.7802, 1.253143
769.2623, 2.801666
769.7444, 5.655518
770.2265, 8.069122
770.7086, 9.103943
771.1907, 9.331116
771.6729, 8.813965
772.1550, 7.656494
772.6371, 6.816101
773.1192, 6.397552
773.6013, 6.375458
774.0834, 6.930023
774.5656, 7.964355
775.0477, 8.294678
775.5298, 7.833221
776.0119, 7.489227
776.4940, 8.069824
776.9761, 9.079651
777.4583, 9.442657
777.9404, 9.217560
778.4225, 8.985809
778.9046, 9.175110
779.3867, 9.412750
779.8688, 9.329803
780.3509, 8.877899
780.8330, 8.986359
781.3151, 10.35101
781.7972, 11.37820
782.2794, 11.06155
782.7615, 9.470062
783.2436, 9.404449
783.7257, 11.02509
784.2078, 12.48111
784.6899, 12.21255
785.1721, 10.98907
785.6542, 9.796814
786.1363, 8.749329
786.6184, 8.677216
787.1005, 11.41428
787.5826, 14.23798
788.0648, 15.18845
788.5469, 13.77362
789.0290, 12.56241
789.5111, 11.50989
789.9932, 10.82349
790.4753, 10.85226
790.9575, 11.55478
791.4396, 11.25064
791.9217, 9.887848
792.4038, 8.564636
792.8859, 8.406403
793.3680, 8.676208
793.8502, 8.386932
794.3323, 7.467377
794.8144, 6.230194
795.2965, 3.819641
795.7786, 1.950073
796.2607, 2.048523
796.7429, 4.465973
797.2250, 6.077667
797.7071, 6.884338
798.1892, 6.868195
798.6713, 5.287384
799.1534, 2.530090
799.6356, 2.598572
800.1177, 5.522003
800.5998, 8.201324
801.0819, 7.689178
801.5640, 6.029175
802.0461, 5.418579
802.5283, 6.083313
803.0104, 6.955688
803.4925, 8.175323
803.9746, 9.049347
804.4567, 9.185791
804.9388, 8.516266
805.4210, 7.842560
805.9031, 7.273499
806.3852, 6.315186
806.8673, 3.926270
807.3494, 0.8662720
807.8315, 0.3959660
808.3137, 2.428680
808.7958, 3.853058
809.2779, 1.267761
809.7600, 1.928833
810.2421, 2.945343
810.7242, 1.411438
811.2064, 0.4609070
811.6885, 3.253784
812.1706, 5.259949
812.6527, 5.498901
813.1348, 3.960663
813.6169, 2.552124
814.0991, 1.210480
814.5812, 0.5132450
815.0633, 1.768768
815.5454, 3.600250
816.0275, 3.057068
816.5096, 0.3133240
816.9918, 1.958435
817.4739, 2.046143
817.9560, 1.432922
818.4381, 1.019104
818.9202, 0.9145200
819.4023, 0.1996150
819.8845, 1.693817
820.3666, 2.966492
820.8487, 2.583344
821.3308, 0.9525760
821.8129, 0.2445980
822.2950, 1.082336
822.7772, 1.346832
823.2593, 0.2926640
823.7414, 1.153015
824.2235, 1.958435
824.7056, 2.047211
825.1877, 1.441833
825.6699, 1.272064
826.1520, 3.179718
826.6341, 2.823486
827.1162, 0.5644530
827.5983, 0.5455020
828.0804, 0.2864990
828.5626, 3.6591001E-02
829.0447, 0.5281070
829.5268, 1.432465
830.0089, 1.905243
830.4910, 2.055176
830.9731, 2.376923
831.4553, 3.313080
831.9374, 4.344055
832.4195, 5.335510
832.9016, 6.206116
833.3837, 6.548767
833.8658, 6.413574
834.3480, 5.617859
834.8301, 3.753876
835.3122, 1.376709
835.7943, 0.4406740
836.2764, 0.8700260
836.7585, 1.362823
837.2407, 0.8819580
837.7228, 0.7331850
838.2049, 3.494507
838.6870, 7.762939
839.1691, 10.12756
839.6512, 7.463013
840.1334, 4.890778
840.6155, 4.139709
841.0976, 4.338135
841.5797, 3.450500
842.0618, 0.9801330
842.5439, 1.3275000E-02
843.0261, 1.829041
843.5082, 4.410828
843.9903, 3.807526
844.4724, 1.078613
844.9545, 0.8731690
845.4366, 1.112122
845.9188, 0.1706540
846.4009, 2.571106
846.8830, 6.022522
847.3651, 8.513184
847.8472, 10.04437
848.3293, 10.22321
848.8115, 8.451080
849.2936, 6.084625
849.7757, 5.048218
850.2578, 5.220947
850.7399, 5.637573
851.2220, 6.258759
851.7042, 6.487183
852.1863, 4.780121
852.6684, 2.732666
853.1505, 2.526947
853.6326, 5.544769
854.1147, 8.251709
854.5969, 10.38242
855.0790, 11.58728
855.5611, 11.15643
856.0432, 8.645386
856.5253, 7.744629
857.0074, 8.770935
857.4896, 10.42065
857.9717, 11.84918
858.4538, 12.89572
858.9359, 12.99561
859.4180, 11.99426
859.9001, 11.60828
860.3823, 13.27527
860.8644, 15.41312
861.3465, 17.23483
861.8286, 18.86417
862.3107, 18.49649
862.7928, 15.14603
863.2750, 12.57840
863.7571, 14.22568
864.2392, 18.75067
864.7213, 20.59006
865.2034, 19.95355
865.6855, 18.95782
866.1677, 18.48953
866.6498, 18.58972
867.1319, 19.70279
867.6140, 21.56415
868.0961, 22.42612
868.5782, 21.71790
869.0604, 21.19507
869.5425, 21.35397
870.0246, 22.02039
870.5067, 22.52908
870.9888, 22.88660
871.4709, 23.17026
871.9531, 23.40964
872.4352, 23.58807
872.9173, 23.12750
873.3994, 22.59949
873.8815, 23.40482
874.3636, 28.91425
874.8458, 31.89020
875.3279, 29.68494
875.8100, 25.15988
876.2921, 24.17111
876.7742, 27.01437
877.2563, 29.03912
877.7385, 28.86902
878.2206, 28.24973
878.7027, 29.73209
879.1848, 32.42960
879.6669, 34.76340
880.1490, 36.17255
880.6312, 37.33966
881.1133, 38.24619
881.5954, 39.23517
882.0775, 40.73602
882.5596, 42.97598
883.0417, 44.79453
883.5239, 45.88882
884.0060, 47.04031
884.4881, 49.56760
884.9702, 52.96252
885.4523, 55.63498
885.9344, 57.33972
886.4166, 59.33002
886.8987, 61.37451
887.3808, 64.12991
887.8629, 68.34866
888.3450, 74.35056
888.8271, 79.85764
889.3093, 84.52301
889.7914, 89.70117
890.2735, 96.19333
890.7556, 103.8611
891.2377, 111.8334
891.7198, 120.3787
892.2020, 130.8899
892.6841, 144.4769
893.1662, 160.2838
893.6483, 176.9572
894.1304, 195.1743
894.6125, 217.1480
895.0947, 241.4144
895.5768, 272.8975
896.0589, 312.8475
896.5410, 360.5968
897.0231, 412.1564
897.5052, 469.0043
897.9874, 535.0916
898.4695, 612.9189
898.9516, 700.7422
899.4337, 795.4291
899.9158, 900.7045
900.3979, 1022.333
900.8801, 1161.736
901.3622, 1320.591
901.8443, 1503.841
902.3264, 1702.718
902.8085, 1910.245
903.2906, 2127.920
903.7728, 2359.621
904.2549, 2608.231
904.7370, 2843.089
905.2191, 3077.303
905.7012, 3254.206
906.1833, 3322.481
906.6655, 3272.297
907.1476, 3108.859
907.6297, 2785.424
908.1118, 2418.852
908.5939, 2050.807
909.0760, 1685.401
909.5582, 1377.000
910.0403, 1127.823
910.5224, 922.0628
911.0045, 759.6001
911.4866, 628.4998
911.9688, 523.0927
912.4509, 441.0239
912.9330, 372.6552
913.4151, 320.7957
913.8972, 277.6420
914.3793, 242.4375
914.8615, 214.0990
915.3436, 190.0891
915.8257, 170.3950
916.3078, 153.8575
916.7899, 141.1193
917.2720, 129.6686
917.7542, 116.0487
918.2363, 101.9705
918.7184, 90.11148
919.2005, 81.75055
919.6826, 75.29016
920.1647, 72.16901
920.6469, 69.21255
921.1290, 62.59778
921.6111, 52.01398
922.0932, 44.24088
922.5753, 39.98663
923.0574, 37.16718
923.5396, 34.01074
924.0217, 31.10504
924.5038, 29.30701
924.9859, 28.69431
925.4680, 28.56036
925.9501, 29.99591
926.4323, 30.47040
926.9144, 28.71582
927.3965, 24.98843
927.8786, 21.75516
928.3607, 18.99338
928.8428, 16.60471
929.3250, 14.36185
929.8071, 12.61249
930.2892, 12.14432
930.7713, 12.51941
931.2534, 12.64114
931.7355, 12.02908
932.2177, 11.27505
932.6998, 10.20523
933.1819, 9.276855
933.6640, 9.676788
934.1461, 11.37073
934.6282, 11.34705
935.1104, 8.731079
935.5925, 5.835266
936.0746, 5.432434
936.5567, 5.984772
937.0388, 5.413849
937.5209, 2.734253
938.0031, 1.269745
938.4852, 2.475647
938.9673, 3.841980
939.4494, 3.787201
939.9315, 2.370605
940.4136, 1.061676
940.8958, 0.1337890
941.3779, 0.2722470
941.8600, 3.370026
942.3421, 6.988403
942.8242, 5.592285
943.3063, 0.1441350
943.7885, 3.452423
944.2706, 2.926849
944.7527, 1.679749
945.2348, 0.2064820
945.7169, 2.210876
946.1990, 2.869659
946.6812, 2.352142
947.1633, 2.231110
947.6454, 3.202301
948.1275, 3.943634
948.6096, 2.980743
949.0917, 1.258545
949.5739, 2.3804000E-02
950.0560, 0.5939940
950.5381, 1.098907
951.0202, 1.877533
951.5023, 1.898651
951.9844, 0.4243770
952.4666, 4.451782
952.9487, 6.297943
953.4308, 5.770416
953.9129, 4.623962
954.3950, 3.350861
954.8771, 2.731079
955.3593, 3.920868
955.8414, 6.601990
956.3235, 7.665955
956.8056, 5.965302
957.2877, 5.287598
957.7698, 7.117035
958.2520, 10.11078
958.7341, 11.29321
959.2162, 11.03220
959.6983, 10.38736
960.1804, 9.568451
960.6625, 8.740021
961.1447, 8.192017
961.6268, 7.559082
962.1089, 6.288086
962.5910, 3.606659
963.0731, 2.755554
963.5552, 4.180023
964.0374, 5.934326
964.5195, 6.026947
965.0016, 5.237640
965.4837, 5.385010
965.9658, 6.470764
966.4479, 7.140167
966.9301, 6.425476
967.4122, 5.439087
967.8943, 4.492889
968.3764, 3.696228
968.8585, 3.862946
969.3406, 5.227875
969.8228, 5.364441
970.3049, 2.824921
970.7870, 8.0109000E-02
971.2691, 0.3549800
971.7512, 2.612823
972.2333, 3.897095
972.7155, 2.706604
973.1976, 1.685181
973.6797, 1.127899
974.1618, 1.086151
974.6439, 1.961365
975.1260, 3.769562
975.6082, 4.174683
976.0903, 3.056061
976.5724, 1.636047
977.0544, 0.6795350
977.5366, 7.0312999E-02
978.0187, 0.4344480
978.5008, 0.7747190
978.9829, 0.1506040
979.4650, 2.789429
979.9471, 4.511810
980.4293, 3.474548
980.9114, 1.184357
981.3935, 1.692078
981.8756, 4.370575
982.3577, 6.303650
982.8398, 6.361023
983.3220, 5.908203
983.8041, 5.588654
984.2862, 5.405975
984.7683, 5.450073
985.2504, 6.083801
985.7325, 5.731781
986.2147, 4.073181
986.6968, 2.452148
987.1789, 2.088837
987.6610, 2.552460
988.1431, 2.952026
988.6252, 3.246887
989.1074, 3.372192
989.5895, 3.233124
990.0716, 2.993683
990.5537, 2.750458
991.0358, 2.460144
991.5179, 1.880981
992.0001, 0.9651790
992.4822, 0.4259640
992.9643, 0.4750670
993.4464, 0.8231810
993.9285, 1.300446
994.4106, 1.767029
994.8928, 1.977081
995.3749, 1.683929
995.8570, 1.720123
996.3391, 2.275696
996.8212, 3.066833
997.3033, 4.241394
997.7855, 5.636017
998.2676, 5.448334
998.7497, 3.738556
999.2318, 1.321289
999.7139, 2.817444
1000.196, 6.065887
1000.678, 6.207642
1001.160, 3.979187
1001.642, 1.832428
1002.125, 0.6180730
1002.607, 2.313873
1003.089, 2.914154
1003.571, 3.043518
1004.053, 3.759521
1004.535, 4.745514
1005.017, 5.363922
1005.499, 5.560516
1005.981, 4.948273
1006.464, 2.066071
1006.946, 0.4990540
1007.428, 1.172607
1007.910, 8.0779999E-02
1008.392, 1.009552
1008.874, 2.117676
1009.356, 2.341461
1009.838, 0.4659420
1010.320, 1.589294
1010.803, 0.9331360
1011.285, 1.241516
1011.767, 2.556549
1012.249, 1.363159
1012.731, 0.7372130
1013.213, 1.141602
1013.695, 1.804657
1014.177, 1.610260
1014.660, 0.8739320
1015.142, 1.449310
1015.624, 3.458130
1016.106, 5.316162
1016.588, 5.503479
1017.070, 5.568848
1017.552, 7.012787
1018.034, 9.462250
1018.516, 9.948090
1018.999, 7.870239
1019.481, 6.552185
1019.963, 7.224213
1020.445, 8.591827
1020.927, 8.610046
1021.409, 7.876465
1021.891, 7.459259
1022.373, 7.548401
1022.856, 8.212677
1023.338, 10.17996
1023.820, 11.96893
1024.302, 12.43497
1024.784, 11.64450
1025.266, 11.26453
1025.748, 11.32812
1026.230, 12.27866
1026.713, 15.82925
1027.195, 19.04950
1027.677, 19.15643
1028.159, 17.17587
1028.641, 16.20221
1029.123, 16.83640
1029.605, 17.62350
1030.087, 18.55655
1030.569, 19.01559
1031.052, 17.31357
1031.534, 14.76688
1032.016, 14.44638
1032.498, 16.91653
1032.980, 19.19019
1033.462, 20.24557
1033.944, 20.48267
1034.426, 19.67685
1034.908, 18.21619
1035.391, 18.52924
1035.873, 20.53912
1036.355, 22.76974
1036.837, 24.68488
1037.319, 26.58264
1037.801, 28.92105
1038.283, 31.23239
1038.765, 32.70599
1039.248, 32.06793
1039.730, 33.37491
1040.212, 37.40771
1040.694, 41.37921
1041.176, 42.53769
1041.658, 42.11127
1042.140, 42.84933
1042.622, 44.73959
1043.104, 47.28268
1043.587, 50.93280
1044.069, 54.33289
1044.551, 56.58856
1045.033, 58.66193
1045.515, 62.30286
1045.997, 67.53897
1046.479, 74.23062
1046.961, 82.59531
1047.443, 91.04776
1047.926, 96.46884
1048.408, 102.6722
1048.890, 113.3832
1049.372, 129.4633
1049.854, 147.2896
1050.336, 166.6668
1050.818, 187.8729
1051.300, 210.2366
1051.783, 235.1335
1052.265, 266.9397
1052.747, 303.8402
1053.229, 341.2087
1053.711, 374.3041
1054.193, 413.3271
1054.675, 466.2222
1055.157, 521.2747
1055.640, 572.6888
1056.122, 620.2946
1056.604, 654.8022
1057.086, 675.9255
1057.568, 679.8132
1058.050, 660.9526
1058.532, 626.5208
1059.014, 576.7749
1059.496, 516.0272
1059.979, 456.3494
1060.461, 396.5112
1060.943, 342.4525
1061.425, 294.8654
1061.907, 252.9680
1062.389, 217.8599
1062.871, 188.2743
1063.353, 162.9185
1063.835, 141.5495
1064.318, 124.2871
1064.800, 113.8727
1065.282, 103.5976
1065.764, 90.69693
1066.246, 77.01743
1066.728, 67.84738
1067.210, 62.45068
1067.692, 57.92078
1068.175, 53.38452
1068.657, 49.13165
1069.139, 45.42792
1069.621, 41.94772
1070.103, 38.13000
1070.585, 33.42371
1071.067, 30.74216
1071.549, 30.31262
1072.031, 30.34192
1072.514, 30.11383
1072.996, 29.35681
1073.478, 27.47757
1073.960, 24.82523
1074.442, 22.23361
1074.924, 19.80200
1075.406, 17.43716
1075.888, 14.66177
1076.370, 12.91754
1076.853, 15.35159
1077.335, 19.99689
1077.817, 21.23151
1078.299, 18.71158
1078.781, 16.26370
1079.263, 16.60504
1079.745, 16.43301
1080.227, 14.26151
1080.709, 10.84259
1081.192, 7.815216
1081.674, 5.227295
1082.156, 4.389313
1082.638, 5.948975
1083.120, 7.758270
1083.602, 8.320465
1084.084, 8.136871
1084.566, 7.497925
1085.049, 6.413208
1085.531, 5.519836
1086.013, 4.799866
1086.495, 4.371002
1086.977, 4.368835
1087.459, 4.630402
1087.941, 4.871246
1088.423, 5.053101
1088.906, 5.220917
1089.388, 5.131500
1089.870, 5.512756
1090.352, 6.394592
1090.834, 7.717743
1091.316, 9.926544
1091.798, 12.49893
1092.280, 13.60675
1092.762, 13.33990
1093.245, 12.25162
1093.727, 9.758209
1094.209, 7.480560
1094.691, 5.473694
1095.173, 4.383148
1095.655, 5.901672
1096.137, 9.830414
1096.619, 11.09897
1097.101, 9.076874
1097.584, 6.521667
1098.066, 4.933014
1098.548, 4.170074
1099.030, 4.555695
1099.512, 5.803650
1099.994, 6.301239
1100.476, 5.932831
1100.958, 5.433533
1101.441, 4.924774
1101.923, 4.555542
1102.405, 4.661194
1102.887, 4.930420
1103.369, 4.711700
1103.851, 3.629883
1104.333, 4.059357
1104.815, 6.991669
1105.297, 9.380920
1105.780, 9.636688
1106.262, 8.632172
1106.744, 8.551849
1107.226, 8.878113
1107.708, 8.162811
1108.190, 4.447784
1108.672, 2.695160
1109.154, 5.938141
1109.636, 9.431519
1110.119, 9.327301
1110.601, 6.175049
1111.083, 5.365448
1111.565, 6.541290
1112.047, 7.275391
1112.529, 5.571350
1113.011, 3.804688
1113.493, 3.549957
1113.976, 3.683838
1114.458, 2.059540
1114.940, 1.734772
1115.422, 1.869843
1115.904, 2.227509
1116.386, 6.013489
1116.868, 5.612854
1117.350, 3.463470
1117.833, 0.6666870
1118.315, 2.136566
1118.797, 2.600281
1119.279, 3.9795000E-02
1119.761, 2.431732
1120.243, 4.179535
1120.725, 4.801727
1121.207, 2.436340
1121.689, 0.7413640
1122.172, 1.381775
1122.654, 0.9694520
1123.136, 1.700989
1123.618, 0.8013310
1124.100, 2.595337
1124.582, 2.260864
1125.064, 0.8196410
1125.546, 0.1774290
1126.028, 0.6132510
1126.511, 0.1181030
1126.993, 2.757263
1127.475, 4.010559
1127.957, 1.934692
1128.439, 0.6251530
1128.921, 2.535217
1129.403, 3.771851
1129.885, 3.773193
1130.368, 2.874115
1130.850, 2.657837
1131.332, 4.709839
1131.814, 5.817780
1132.296, 3.189972
1132.778, 1.7821999E-02
1133.260, 0.9391780
1133.742, 0.4843440
1134.224, 0.2104800
1134.707, 1.627594
1135.189, 2.936005
1135.671, 1.940338
1136.153, 0.5038450
1136.635, 2.7500000E-04
1137.117, 0.2744450
1137.599, 1.735321
1138.081, 4.868683
1138.563, 6.261353
1139.046, 5.674103
1139.528, 4.350067
1140.010, 2.586792
1140.492, 1.178711
1140.974, 1.211914
1141.456, 2.245605
1141.938, 2.555817
1142.420, 1.792938
1142.903, 1.304718
1143.385, 1.357025
1143.867, 1.345764
1144.349, 0.1567380
1144.831, 1.237518
1145.313, 1.412079
1145.795, 0.3460080
1146.277, 0.5476680
1146.760, 0.9388730
1147.242, 1.444336
1147.724, 2.251190
1148.206, 3.130951
1148.688, 3.922974
1149.170, 4.487854
1149.652, 4.356018
1150.134, 3.358002
1150.616, 3.030823
1151.099, 4.856384
1151.581, 5.469757
1152.063, 2.942078
1152.545, 0.6226810
1153.027, 0.4575200
1153.509, 4.481934
1153.991, 6.824982
1154.473, 5.884827
1154.955, 4.662079
1155.438, 3.875854
1155.920, 3.461182
1156.402, 3.564819
1156.884, 3.977264
1157.366, 3.800293
1157.848, 3.119385
1158.330, 2.178864
1158.812, 0.2590330
1159.295, 0.3103940
1159.777, 3.440308
1160.259, 7.254669
1160.741, 7.765076
1161.223, 5.195557
1161.705, 3.306793
1162.187, 2.147919
1162.669, 1.765411
1163.151, 2.412384
1163.634, 3.529358
1164.116, 5.333740
1164.598, 7.166168
1165.080, 8.263092
1165.562, 8.587738
1166.044, 8.648529
1166.526, 8.449280
1167.008, 8.022034
1167.490, 6.384125
1167.973, 5.568451
1168.455, 8.634979
1168.937, 12.74783
1169.419, 12.28754
1169.901, 6.354584
1170.383, 3.906952
1170.865, 5.647552
1171.347, 7.696899
1171.830, 6.408691
1172.312, 4.701416
1172.794, 5.087524
1173.276, 7.021942
1173.758, 8.331757
1174.240, 8.912933
1174.722, 8.476471
1175.204, 6.767975
1175.687, 5.605896
1176.169, 7.519897
1176.651, 10.05637
1177.133, 10.99438
1177.615, 10.25345
1178.097, 9.206360
1178.579, 7.695038
1179.061, 6.785370
1179.543, 6.697601
1180.026, 6.858398
1180.508, 6.677734
1180.990, 6.465088
1181.472, 6.634949
1181.954, 7.182678
1182.436, 7.915771
1182.918, 9.265228
1183.400, 9.070892
1183.882, 6.164673
1184.365, 3.257050
1184.847, 4.239685
1185.329, 6.943237
1185.811, 8.805603
1186.293, 9.376831
1186.775, 9.945862
1187.257, 10.61414
1187.739, 11.17221
1188.222, 11.51517
1188.704, 11.81302
1189.186, 12.73242
1189.668, 13.57855
1190.150, 13.10147
1190.632, 10.66513
1191.114, 9.333832
1191.596, 9.630219
1192.078, 10.14746
1192.561, 10.42661
1193.043, 10.26541
1193.525, 8.801819
1194.007, 7.015167
1194.489, 6.515228
1194.971, 8.104462
1195.453, 9.542236
1195.935, 11.00705
1196.417, 11.43729
1196.900, 9.827454
1197.382, 7.383270
1197.864, 5.554535
1198.346, 4.752167
1198.828, 6.045654
1199.310, 11.79434
1199.792, 14.02307
1200.274, 11.44647
1200.757, 8.107727
1201.239, 5.795685
1201.721, 4.836700
1202.203, 7.115082
1202.685, 10.80661
1203.167, 12.16116
1203.649, 7.839233
1204.131, 5.925385
1204.614, 7.249359
1205.096, 9.242157
1205.578, 10.52423
1206.060, 11.00433
1206.542, 9.959625
1207.024, 8.097076
1207.506, 7.039337
1207.988, 7.307373
1208.470, 8.712830
1208.953, 11.91046
1209.435, 14.34451
1209.917, 13.10349
1210.399, 10.28806
1210.881, 9.807556
1211.363, 10.96780
1211.845, 11.92535
1212.327, 12.56683
1212.809, 12.17322
1213.292, 10.46564
1213.774, 8.648712
1214.256, 7.778595
1214.738, 7.463684
1215.220, 6.786682
1215.702, 6.073578
1216.184, 6.546448
1216.666, 9.782990
1217.149, 11.34976
1217.631, 10.43341
1218.113, 9.551208
1218.595, 12.20850
1219.077, 15.69711
1219.559, 15.17218
1220.041, 11.84641
1220.523, 10.59592
1221.005, 13.88815
1221.488, 15.46292
1221.970, 14.42013
1222.452, 12.78711
1222.934, 12.21909
1223.416, 12.56421
1223.898, 14.08014
1224.380, 16.40881
1224.862, 17.99387
1225.344, 18.42743
1225.827, 18.77579
1226.309, 19.21011
1226.791, 19.60550
1227.273, 19.94089
1227.755, 20.06107
1228.237, 19.37619
1228.719, 18.29202
1229.201, 18.50919
1229.684, 20.60840
1230.166, 22.27985
1230.648, 23.35257
1231.130, 23.81616
1231.612, 22.85776
1232.094, 21.68140
1232.576, 21.90714
1233.058, 23.30576
1233.541, 24.36273
1234.023, 25.01752
1234.505, 25.48972
1234.987, 25.86301
1235.469, 25.59079
1235.951, 23.14792
1236.433, 20.72403
1236.915, 20.29648
1237.397, 21.66214
1237.880, 23.44476
1238.362, 25.78448
1238.844, 27.27975
1239.326, 27.69370
1239.808, 27.93256
1240.290, 28.71228
1240.772, 29.67035
1241.254, 29.41217
1241.736, 29.32172
1242.219, 33.79721
1242.701, 43.03726
1243.183, 50.99344
1243.665, 57.75204
1244.147, 66.41928
1244.629, 80.22171
1245.111, 97.10068
1245.593, 114.4838
1246.076, 134.2229
1246.558, 159.4626
1247.040, 190.3439
1247.522, 231.1267
1248.004, 282.3694
1248.486, 340.4836
1248.968, 422.7073
1249.450, 490.0903
1249.932, 532.6238
1250.415, 544.5639
1250.897, 501.3824
1251.379, 412.8107
1251.861, 326.9810
1252.343, 250.0907
1252.825, 188.4141
1253.307, 150.1978
1253.789, 120.8367
1254.271, 95.18875
1254.754, 73.74084
1255.236, 58.21167
1255.718, 47.43356
1256.200, 38.35342
1256.682, 30.57214
1257.164, 24.59344
1257.646, 22.23813
1258.128, 19.45844
1258.611, 14.87494
1259.093, 10.35742
1259.575, 9.161316
1260.057, 9.966003
1260.539, 10.01859
1261.021, 9.038116
1261.503, 7.939026
1261.985, 6.500549
1262.468, 5.755676
1262.950, 6.156281
1263.432, 6.718689
1263.914, 5.963287
1264.396, 4.625916
1264.878, 3.601563
1265.360, 3.013611
1265.842, 2.978485
1266.324, 3.833771
1266.807, 3.646881
1267.289, 1.893860
1267.771, 7.3334001E-02
1268.253, 0.5238650
1268.735, 0.1465450
1269.217, 2.012726
1269.699, 5.314240
1270.181, 5.634277
1270.663, 2.359589
1271.146, 0.1956180
1271.628, 1.380310
1272.110, 1.760834
1272.592, 1.213165
1273.074, 0.6903380
1273.556, 1.306854
1274.038, 2.458771
1274.520, 2.386688
1275.002, 1.117706
1275.485, 1.0376000E-02
1275.967, 0.8355710
1276.449, 1.329285
1276.931, 1.713287
1277.413, 1.455078
1277.895, 0.1851200
1278.377, 2.240356
1278.859, 3.229065
1279.342, 3.345367
1279.824, 2.036560
1280.306, 0.5725100
1280.788, 1.807800
1281.270, 2.047699
1281.752, 4.472870
1282.234, 3.201752
1282.716, 0.5272220
1283.198, 0.3594670
1283.681, 0.1502990
1284.163, 4.5563001E-02
1284.645, 9.2770001E-03
1285.127, 0.4331360
1285.609, 1.893036
1286.091, 2.957397
1286.573, 3.162109
1287.055, 3.197754
1287.537, 1.516693
1288.020, 0.5164490
1288.502, 1.450348
1288.984, 1.593292
1289.466, 0.9909970
1289.948, 5.602814
1290.430, 8.853912
1290.912, 12.31796
1291.394, 13.07883
1291.877, 16.53119
1292.359, 22.96231
1292.841, 29.79953
1293.323, 38.74557
1293.805, 51.44684
1294.287, 67.63498
1294.769, 79.66721
1295.251, 89.03888
1295.734, 100.7838
1296.216, 116.7732
1296.698, 130.0560
1297.180, 137.3939
1297.662, 137.5173
1298.144, 130.8820
1298.626, 117.5639
1299.108, 93.23590
1299.590, 59.66602
1300.073, 26.54926
1300.555, 0.0000000E+00
##END=



