##NAMES=Gotzenite
##RRUFFID=R141182
##IDEAL CHEMISTRY=Ca_4_NaCa_2_Ti^4+^(Si_2_O_7_)_2_(OF)F_2_
##LOCALITY=Po√ßos De Caldas, Minas Gerais, Brazil
##OWNER=RRUFF
##SOURCE=Marcelo B. Andrade
##DESCRIPTION=Brown prismatic crystals
##STATUS=The identification of this mineral is confirmed by single-crystal X-ray diffraction and chemical analysis.
##URL=rruff.info/R141182
##MEASURED CHEMISTRY=Na_1.00_(Ca_4.77_Na_0.62_Ce_0.12_Mn_0.12_Sr_0.10_Zr_0.07_Fe_0.07_La_0.06_Nd_0.04_Y_0.03_Dy_0.02_)(Ti_0.90_Zr_0.06_Nb_0.04_)(Si_2.01_O_7_)_2_OF_3.06_  ; lighter areas
90.59570, 0.0000000E+00
91.07782, 168.0669
91.55994, 7.673828
92.04205, 135.1255
92.52417, 377.0796
93.00629, 642.3857
93.48840, 860.4258
93.97052, 976.4165
94.45264, 973.6294
94.93475, 974.4902
95.41687, 960.0283
95.89898, 936.3291
96.38110, 907.6040
96.86321, 876.9229
97.34533, 839.5264
97.82745, 779.1763
98.30956, 723.7969
98.79168, 674.6294
99.27380, 631.9087
99.75591, 591.7031
100.2380, 554.5381
100.7201, 525.2646
101.2023, 506.8164
101.6844, 498.8770
102.1665, 494.4697
102.6486, 494.4082
103.1307, 496.0742
103.6128, 497.2295
104.0950, 497.7676
104.5771, 497.3369
105.0592, 490.3809
105.5413, 480.6201
106.0234, 474.2871
106.5055, 475.4111
106.9877, 481.5420
107.4698, 485.0176
107.9519, 479.6807
108.4340, 477.2549
108.9161, 485.9229
109.3982, 501.7490
109.8804, 514.5391
110.3625, 511.4307
110.8446, 486.5811
111.3267, 477.1562
111.8088, 497.3057
112.2909, 517.4404
112.7731, 523.3447
113.2552, 513.0547
113.7373, 496.5889
114.2194, 487.5264
114.7015, 486.4355
115.1836, 490.8281
115.6658, 509.7295
116.1479, 529.9248
116.6300, 538.0635
117.1121, 527.7471
117.5942, 506.8105
118.0763, 494.8311
118.5584, 498.7607
119.0406, 508.5273
119.5227, 515.6631
120.0048, 518.8047
120.4869, 526.4238
120.9690, 548.9863
121.4511, 580.9814
121.9333, 604.0732
122.4154, 604.4941
122.8975, 596.5215
123.3796, 597.5674
123.8617, 609.5752
124.3438, 618.8223
124.8260, 615.9971
125.3081, 608.0557
125.7902, 602.1875
126.2723, 603.0049
126.7544, 606.2969
127.2365, 600.0547
127.7187, 575.6602
128.2008, 556.9365
128.6829, 551.7549
129.1650, 556.5176
129.6471, 568.3066
130.1292, 586.3105
130.6114, 608.3145
131.0935, 607.4365
131.5756, 551.4238
132.0577, 501.7773
132.5398, 476.4082
133.0219, 470.5215
133.5041, 469.8164
133.9862, 462.1162
134.4683, 445.6631
134.9504, 433.3398
135.4325, 437.1826
135.9146, 435.8604
136.3968, 412.9697
136.8789, 368.5762
137.3610, 318.6250
137.8431, 281.0947
138.3252, 258.8643
138.8073, 236.9678
139.2895, 213.9092
139.7716, 191.5947
140.2537, 174.3848
140.7358, 165.1445
141.2179, 155.0703
141.7000, 129.3457
142.1821, 89.39648
142.6643, 52.25195
143.1464, 23.39453
143.6285, 2.576172
144.1106, 9.651367
144.5927, 6.149414
145.0748, 1.943359
145.5570, 10.68555
146.0391, 32.53906
146.5212, 57.83398
147.0033, 79.55078
147.4854, 97.63379
147.9675, 112.5420
148.4497, 110.9893
148.9318, 109.5947
149.4139, 107.7598
149.8960, 102.3574
150.3781, 98.22461
150.8602, 100.4463
151.3424, 111.9893
151.8245, 123.3496
152.3066, 139.4746
152.7887, 152.0049
153.2708, 151.7451
153.7529, 135.8379
154.2351, 111.3672
154.7172, 96.17676
155.1993, 97.86035
155.6814, 101.2148
156.1635, 109.7988
156.6456, 118.3896
157.1278, 120.7549
157.6099, 113.6123
158.0920, 98.82520
158.5741, 83.90332
159.0562, 68.69727
159.5383, 53.57910
160.0205, 38.70801
160.5026, 24.12402
160.9847, 9.931641
161.4668, 3.372070
161.9489, 16.26172
162.4310, 29.78613
162.9131, 45.53027
163.3953, 60.20117
163.8774, 67.99316
164.3595, 70.20996
164.8416, 79.39844
165.3237, 108.4268
165.8058, 149.1514
166.2880, 182.3672
166.7701, 206.3760
167.2522, 222.2354
167.7343, 226.5576
168.2164, 215.6143
168.6985, 210.6572
169.1807, 230.6416
169.6628, 262.2949
170.1449, 290.2686
170.6270, 306.6250
171.1091, 316.8467
171.5912, 334.4238
172.0734, 364.7656
172.5555, 392.5869
173.0376, 410.4717
173.5197, 423.1914
174.0018, 437.8643
174.4839, 458.8125
174.9661, 484.9727
175.4482, 509.2012
175.9303, 531.8545
176.4124, 551.9990
176.8945, 565.2021
177.3766, 575.9307
177.8588, 591.3936
178.3409, 617.7842
178.8230, 655.3643
179.3051, 689.7324
179.7872, 719.4902
180.2693, 747.5322
180.7515, 773.1924
181.2336, 797.5518
181.7157, 821.8604
182.1978, 847.1357
182.6799, 873.1572
183.1620, 902.3574
183.6441, 935.3418
184.1263, 969.9697
184.6084, 1005.137
185.0905, 1040.712
185.5726, 1077.442
186.0547, 1116.611
186.5368, 1159.106
187.0190, 1192.318
187.5011, 1206.028
187.9832, 1217.602
188.4653, 1240.535
188.9474, 1275.760
189.4296, 1314.812
189.9117, 1351.233
190.3938, 1384.738
190.8759, 1414.722
191.3580, 1431.505
191.8401, 1448.787
192.3223, 1487.560
192.8044, 1554.405
193.2865, 1621.486
193.7686, 1652.822
194.2507, 1659.831
194.7328, 1677.583
195.2150, 1723.731
195.6971, 1786.900
196.1792, 1846.698
196.6613, 1903.574
197.1434, 1951.809
197.6255, 1977.716
198.1077, 1991.088
198.5898, 2016.768
199.0719, 2077.145
199.5540, 2162.988
200.0361, 2232.876
200.5182, 2275.877
201.0004, 2316.803
201.4825, 2369.106
201.9646, 2429.812
202.4467, 2490.439
202.9288, 2545.064
203.4109, 2593.995
203.8930, 2640.939
204.3752, 2674.529
204.8573, 2718.193
205.3394, 2787.854
205.8215, 2875.054
206.3036, 2960.454
206.7857, 3024.607
207.2679, 3065.809
207.7500, 3120.650
208.2321, 3205.786
208.7142, 3289.855
209.1963, 3361.318
209.6784, 3422.149
210.1606, 3479.998
210.6427, 3542.236
211.1248, 3609.379
211.6069, 3677.023
212.0890, 3746.340
212.5711, 3814.857
213.0533, 3878.799
213.5354, 3939.868
214.0175, 4004.385
214.4996, 4078.314
214.9817, 4163.437
215.4638, 4250.713
215.9460, 4346.230
216.4281, 4439.093
216.9102, 4524.399
217.3923, 4601.889
217.8744, 4675.426
218.3565, 4747.099
218.8387, 4816.367
219.3208, 4888.529
219.8029, 4960.998
220.2850, 5038.289
220.7671, 5129.186
221.2492, 5231.277
221.7314, 5327.244
222.2135, 5399.771
222.6956, 5447.014
223.1777, 5505.705
223.6598, 5582.783
224.1419, 5666.075
224.6240, 5749.949
225.1062, 5833.525
225.5883, 5908.801
226.0704, 5965.867
226.5525, 6006.697
227.0346, 6053.834
227.5167, 6114.307
227.9989, 6178.221
228.4810, 6233.621
228.9631, 6279.475
229.4452, 6327.207
229.9273, 6389.018
230.4094, 6458.539
230.8916, 6518.697
231.3737, 6562.363
231.8558, 6597.314
232.3379, 6632.850
232.8200, 6669.896
233.3021, 6702.334
233.7843, 6716.406
234.2664, 6724.938
234.7485, 6750.029
235.2306, 6807.662
235.7127, 6876.273
236.1948, 6927.354
236.6770, 6959.586
237.1591, 6981.656
237.6412, 6994.014
238.1233, 7000.395
238.6054, 7004.428
239.0875, 7007.533
239.5697, 7008.150
240.0518, 7001.559
240.5339, 6984.445
241.0160, 6972.971
241.4981, 6978.166
241.9802, 6988.832
242.4624, 6995.088
242.9445, 6993.785
243.4266, 6989.527
243.9087, 6991.453
244.3908, 7004.391
244.8729, 7008.801
245.3550, 6994.486
245.8372, 6972.152
246.3193, 6951.070
246.8014, 6934.891
247.2835, 6919.434
247.7656, 6896.127
248.2477, 6861.174
248.7299, 6825.602
249.2120, 6789.053
249.6941, 6755.363
250.1762, 6729.037
250.6583, 6710.953
251.1404, 6695.092
251.6226, 6672.459
252.1047, 6643.525
252.5868, 6605.387
253.0689, 6546.201
253.5510, 6485.619
254.0331, 6440.232
254.5153, 6415.055
254.9974, 6399.516
255.4795, 6375.809
255.9616, 6336.062
256.4437, 6302.166
256.9258, 6280.234
257.4080, 6260.568
257.8901, 6236.250
258.3722, 6206.053
258.8543, 6173.906
259.3364, 6145.631
259.8185, 6125.646
260.3007, 6099.377
260.7828, 6066.588
261.2649, 6029.215
261.7470, 5980.285
262.2291, 5921.713
262.7112, 5869.184
263.1934, 5842.701
263.6755, 5856.809
264.1576, 5847.580
264.6397, 5804.867
265.1218, 5753.457
265.6039, 5698.996
266.0861, 5644.988
266.5682, 5599.902
267.0503, 5573.938
267.5324, 5572.180
268.0145, 5555.236
268.4966, 5523.496
268.9788, 5479.133
269.4609, 5418.469
269.9430, 5344.752
270.4251, 5266.580
270.9072, 5189.354
271.3893, 5112.580
271.8715, 5051.957
272.3536, 5023.383
272.8357, 4991.553
273.3178, 4939.881
273.7999, 4872.412
274.2820, 4801.678
274.7642, 4735.412
275.2463, 4673.598
275.7284, 4616.820
276.2105, 4577.113
276.6926, 4528.291
277.1747, 4452.012
277.6568, 4359.760
278.1389, 4278.480
278.6211, 4224.523
279.1032, 4190.105
279.5853, 4141.908
280.0674, 4072.168
280.5495, 4001.043
281.0316, 3933.932
281.5138, 3868.855
281.9959, 3802.201
282.4780, 3732.361
282.9601, 3660.576
283.4422, 3589.842
283.9243, 3523.156
284.4065, 3452.326
284.8886, 3372.992
285.3707, 3289.281
285.8528, 3206.088
286.3349, 3124.678
286.8170, 3046.732
287.2992, 2975.855
287.7813, 2912.307
288.2634, 2853.359
288.7455, 2806.705
289.2276, 2761.057
289.7097, 2699.334
290.1919, 2617.141
290.6740, 2530.162
291.1561, 2460.930
291.6382, 2413.426
292.1203, 2349.789
292.6024, 2253.801
293.0846, 2147.016
293.5667, 2048.643
294.0488, 1961.283
294.5309, 1880.969
295.0130, 1805.156
295.4951, 1734.166
295.9773, 1664.627
296.4594, 1599.037
296.9415, 1532.764
297.4236, 1458.871
297.9057, 1378.152
298.3878, 1303.729
298.8700, 1248.691
299.3521, 1208.217
299.8342, 1151.359
300.3163, 1063.859
300.7984, 972.7969
301.2805, 892.1250
301.7627, 821.0625
302.2448, 756.5020
302.7269, 699.2441
303.2090, 646.1621
303.6911, 587.3457
304.1732, 516.7871
304.6554, 451.0742
305.1375, 402.4316
305.6196, 364.8125
306.1017, 321.8340
306.5838, 266.2617
307.0659, 204.7344
307.5481, 149.6055
308.0302, 101.6836
308.5123, 54.73047
308.9944, 3.046875
309.4765, 48.35742
309.9586, 88.58594
310.4408, 112.9746
310.9229, 135.8086
311.4050, 184.8086
311.8871, 262.3770
312.3692, 314.3457
312.8513, 312.6328
313.3335, 287.5469
313.8156, 272.5156
314.2977, 272.4863
314.7798, 277.3242
315.2619, 278.3320
315.7440, 276.1445
316.2262, 277.9355
316.7083, 284.2949
317.1904, 293.7930
317.6725, 312.7715
318.1546, 339.7949
318.6367, 355.0176
319.1188, 342.5723
319.6010, 305.3496
320.0831, 266.2695
320.5652, 215.0684
321.0473, 174.3418
321.5294, 163.6895
322.0115, 175.0332
322.4937, 178.3047
322.9758, 159.6680
323.4579, 125.0703
323.9400, 93.97852
324.4221, 68.36523
324.9042, 42.38281
325.3864, 11.76367
325.8685, 21.36328
326.3506, 54.88281
326.8327, 89.09570
327.3148, 122.5410
327.7969, 152.4883
328.2791, 177.8125
328.7612, 206.4297
329.2433, 241.7422
329.7254, 279.7344
330.2075, 314.4609
330.6896, 344.9492
331.1718, 377.2070
331.6539, 419.6797
332.1360, 473.1680
332.6181, 522.0625
333.1002, 560.0664
333.5823, 596.4102
334.0645, 634.9609
334.5466, 676.3672
335.0287, 731.0039
335.5108, 809.9062
335.9929, 907.6836
336.4750, 979.1953
336.9572, 1013.332
337.4393, 1038.492
337.9214, 1058.832
338.4035, 1079.457
338.8856, 1112.797
339.3677, 1166.918
339.8499, 1231.152
340.3320, 1274.398
340.8141, 1283.883
341.2962, 1298.082
341.7783, 1329.160
342.2604, 1367.227
342.7426, 1400.441
343.2247, 1424.766
343.7068, 1440.172
344.1889, 1445.344
344.6710, 1436.562
345.1531, 1427.184
345.6353, 1407.285
346.1174, 1392.797
346.5995, 1403.941
347.0816, 1437.191
347.5637, 1467.262
348.0458, 1469.004
348.5280, 1441.383
349.0101, 1411.949
349.4922, 1375.293
349.9743, 1342.801
350.4564, 1317.059
350.9385, 1297.652
351.4207, 1287.180
351.9028, 1287.977
352.3849, 1295.129
352.8670, 1288.617
353.3491, 1244.434
353.8312, 1215.996
354.3134, 1218.672
354.7955, 1236.809
355.2776, 1255.953
355.7597, 1270.078
356.2418, 1276.922
356.7239, 1274.691
357.2061, 1264.957
357.6882, 1241.223
358.1703, 1186.980
358.6524, 1130.250
359.1345, 1087.422
359.6166, 1061.492
360.0987, 1049.176
360.5808, 1052.340
361.0630, 1075.930
361.5451, 1063.539
362.0272, 983.4844
362.5093, 901.2148
362.9914, 839.4844
363.4735, 793.2617
363.9557, 745.3086
364.4378, 684.5781
364.9199, 615.3125
365.4020, 557.9648
365.8841, 531.3359
366.3662, 491.4766
366.8484, 417.2148
367.3305, 334.8867
367.8126, 276.4219
368.2947, 250.6797
368.7768, 233.8828
369.2589, 185.0391
369.7411, 86.06250
370.2232, 0.8750000
370.7053, 49.83984
371.1874, 99.75000
371.6695, 178.9805
372.1516, 283.6914
372.6338, 382.8516
373.1159, 446.2344
373.5980, 475.3945
374.0801, 515.9336
374.5622, 587.5195
375.0443, 646.5820
375.5265, 670.2148
376.0086, 675.6055
376.4907, 692.7969
376.9728, 738.5195
377.4549, 790.2773
377.9370, 796.1992
378.4192, 739.3320
378.9013, 682.0000
379.3834, 645.0039
379.8655, 615.3008
380.3476, 587.8164
380.8297, 559.7617
381.3119, 513.4062
381.7940, 430.1758
382.2761, 310.2734
382.7582, 180.1641
383.2403, 42.08203
383.7224, 106.7539
384.2046, 270.9336
384.6867, 446.2617
385.1688, 626.4023
385.6509, 799.9141
386.1330, 973.2578
386.6151, 1162.242
387.0973, 1364.066
387.5794, 1586.949
388.0615, 1850.027
388.5436, 2134.129
389.0257, 2413.398
389.5078, 2678.949
389.9900, 2944.188
390.4721, 3220.148
390.9542, 3507.301
391.4363, 3796.996
391.9184, 4083.012
392.4005, 4375.125
392.8827, 4686.887
393.3648, 5018.133
393.8469, 5360.566
394.3290, 5721.824
394.8111, 6088.418
395.2932, 6428.578
395.7754, 6739.742
396.2575, 7048.137
396.7396, 7376.078
397.2217, 7725.191
397.7038, 8094.262
398.1859, 8509.215
398.6681, 8926.992
399.1501, 9319.559
399.6323, 9691.461
400.1144, 10059.92
400.5965, 10430.70
401.0786, 10807.16
401.5607, 11194.68
402.0428, 11602.32
402.5250, 12003.37
403.0071, 12378.80
403.4892, 12751.81
403.9713, 13156.84
404.4534, 13596.95
404.9355, 14033.66
405.4177, 14418.97
405.8998, 14735.67
406.3819, 15069.66
406.8640, 15430.25
407.3461, 15795.37
407.8282, 16151.46
408.3104, 16504.51
408.7925, 16875.05
409.2746, 17283.52
409.7567, 17715.20
410.2388, 18109.89
410.7209, 18423.71
411.2031, 18754.70
411.6852, 19121.34
412.1673, 19502.75
412.6494, 19881.88
413.1315, 20253.43
413.6136, 20619.35
414.0958, 20979.73
414.5779, 21333.20
415.0600, 21695.12
415.5421, 22071.42
416.0242, 22449.30
416.5063, 22829.85
416.9885, 23209.82
417.4706, 23571.17
417.9527, 23896.12
418.4348, 24204.27
418.9169, 24575.04
419.3990, 25034.08
419.8812, 25495.26
420.3633, 25931.69
420.8454, 26355.39
421.3275, 26775.44
421.8096, 27193.42
422.2917, 27600.51
422.7739, 27984.04
423.2560, 28343.84
423.7381, 28698.12
424.2202, 29034.04
424.7023, 29385.34
425.1844, 29792.14
425.6666, 30238.25
426.1487, 30669.27
426.6308, 31048.89
427.1129, 31407.04
427.5950, 31781.50
428.0771, 32174.73
428.5593, 32585.49
429.0414, 33025.73
429.5235, 33475.07
430.0056, 33888.96
430.4877, 34260.85
430.9698, 34614.99
431.4520, 34952.68
431.9341, 35281.77
432.4162, 35623.18
432.8983, 35982.41
433.3804, 36344.98
433.8625, 36697.33
434.3447, 37038.71
434.8268, 37353.18
435.3089, 37617.16
435.7910, 37873.92
436.2731, 38167.04
436.7552, 38480.51
437.2374, 38756.07
437.7195, 38956.98
438.2016, 39099.96
438.6837, 39245.43
439.1658, 39415.39
439.6479, 39560.95
440.1301, 39655.56
440.6122, 39737.74
441.0943, 39860.72
441.5764, 40024.89
442.0585, 40165.73
442.5406, 40204.20
443.0227, 40125.96
443.5049, 40053.22
443.9870, 40007.66
444.4691, 39945.86
444.9512, 39870.13
445.4333, 39766.54
445.9154, 39609.38
446.3976, 39383.82
446.8797, 39110.90
447.3618, 38840.29
447.8439, 38586.18
448.3260, 38291.54
448.8081, 37928.24
449.2903, 37530.54
449.7724, 37109.73
450.2545, 36669.76
450.7366, 36219.97
451.2187, 35781.95
451.7008, 35342.48
452.1830, 34857.97
452.6651, 34328.20
453.1472, 33756.98
453.6293, 33115.24
454.1114, 32440.22
454.5935, 31785.19
455.0757, 31177.52
455.5578, 30565.47
456.0399, 29898.02
456.5220, 29187.12
457.0041, 28471.44
457.4862, 27760.42
457.9684, 27049.40
458.4505, 26334.01
458.9326, 25616.58
459.4147, 24879.77
459.8968, 24099.67
460.3789, 23317.76
460.8611, 22573.23
461.3432, 21863.64
461.8253, 21162.57
462.3074, 20448.28
462.7895, 19730.16
463.2716, 19027.31
463.7538, 18341.93
464.2359, 17668.07
464.7180, 16990.43
465.2001, 16324.58
465.6822, 15685.78
466.1643, 15075.10
466.6465, 14495.98
467.1286, 13954.93
467.6107, 13449.52
468.0928, 12955.39
468.5749, 12479.32
469.0570, 12006.03
469.5392, 11519.80
470.0213, 11037.82
470.5034, 10590.64
470.9855, 10191.68
471.4676, 9825.859
471.9497, 9467.879
472.4319, 9117.375
472.9140, 8779.992
473.3961, 8459.047
473.8782, 8153.195
474.3603, 7858.258
474.8424, 7579.059
475.3246, 7322.609
475.8067, 7097.793
476.2888, 6899.934
476.7709, 6715.707
477.2530, 6546.438
477.7351, 6390.047
478.2173, 6239.289
478.6994, 6106.090
479.1815, 6010.488
479.6636, 5960.750
480.1457, 5922.062
480.6278, 5870.859
481.1100, 5820.379
481.5920, 5796.953
482.0742, 5806.020
482.5563, 5828.840
483.0384, 5845.953
483.5205, 5859.473
484.0026, 5901.418
484.4847, 5975.555
484.9669, 6071.312
485.4490, 6188.223
485.9311, 6319.840
486.4132, 6456.613
486.8953, 6595.023
487.3774, 6739.016
487.8596, 6896.449
488.3417, 7073.516
488.8238, 7245.098
489.3059, 7397.824
489.7880, 7559.285
490.2701, 7746.414
490.7523, 7952.176
491.2344, 8159.746
491.7165, 8358.586
492.1986, 8553.098
492.6807, 8755.914
493.1628, 8968.625
493.6450, 9182.938
494.1271, 9402.777
494.6092, 9619.336
495.0913, 9826.172
495.5734, 10023.12
496.0555, 10215.04
496.5377, 10406.97
497.0198, 10596.61
497.5019, 10775.51
497.9840, 10941.30
498.4661, 11104.27
498.9482, 11274.18
499.4304, 11440.42
499.9125, 11582.89
500.3946, 11690.93
500.8767, 11800.45
501.3588, 11941.69
501.8409, 12093.39
502.3231, 12214.88
502.8052, 12298.11
503.2873, 12366.88
503.7694, 12447.64
504.2515, 12539.62
504.7336, 12585.02
505.2158, 12550.39
505.6979, 12515.12
506.1800, 12515.99
506.6621, 12531.39
507.1442, 12530.74
507.6263, 12502.51
508.1085, 12451.34
508.5906, 12384.99
509.0727, 12300.55
509.5548, 12213.03
510.0369, 12131.46
510.5190, 12036.25
511.0012, 11922.68
511.4833, 11789.16
511.9654, 11627.70
512.4475, 11427.64
512.9296, 11217.45
513.4117, 11059.48
513.8939, 10963.93
514.3760, 10834.68
514.8581, 10638.24
515.3402, 10409.62
515.8223, 10179.68
516.3044, 9948.109
516.7866, 9708.926
517.2687, 9455.246
517.7508, 9192.730
518.2329, 8926.043
518.7150, 8655.875
519.1971, 8385.578
519.6793, 8116.160
520.1614, 7847.387
520.6435, 7588.148
521.1256, 7339.777
521.6077, 7089.832
522.0898, 6841.754
522.5720, 6588.414
523.0541, 6322.445
523.5362, 6048.086
524.0183, 5773.672
524.5004, 5505.801
524.9825, 5247.953
525.4647, 5007.875
525.9468, 4809.297
526.4289, 4597.207
526.9110, 4364.832
527.3931, 4119.719
527.8752, 3857.762
528.3574, 3585.266
528.8395, 3329.922
529.3216, 3122.871
529.8037, 2956.051
530.2858, 2773.699
530.7679, 2570.598
531.2501, 2366.719
531.7322, 2163.922
532.2143, 1968.004
532.6964, 1780.777
533.1785, 1602.738
533.6606, 1437.848
534.1428, 1291.059
534.6249, 1157.156
535.1070, 1019.938
535.5891, 876.7617
536.0712, 744.2461
536.5533, 642.3164
537.0355, 562.2578
537.5176, 458.3711
537.9997, 294.3984
538.4818, 152.5312
538.9639, 68.34375
539.4460, 11.69141
539.9282, 53.95703
540.4103, 136.0664
540.8924, 224.7227
541.3745, 311.2305
541.8566, 396.3633
542.3387, 452.4688
542.8209, 436.1562
543.3029, 440.4336
543.7850, 502.6270
544.2672, 585.9062
544.7493, 647.2871
545.2314, 675.6953
545.7135, 690.9434
546.1956, 713.3574
546.6777, 742.0176
547.1599, 755.7109
547.6420, 746.4785
548.1241, 735.0273
548.6062, 737.5547
549.0883, 745.8730
549.5704, 748.7305
550.0526, 745.0449
550.5347, 732.2734
551.0168, 704.0430
551.4989, 667.4824
551.9810, 639.6250
552.4631, 624.2031
552.9453, 605.5039
553.4274, 565.7148
553.9095, 505.0293
554.3916, 462.6348
554.8737, 455.6934
555.3558, 444.9883
555.8380, 423.4219
556.3201, 390.5547
556.8022, 339.3223
557.2843, 271.5430
557.7664, 205.5859
558.2485, 165.8535
558.7307, 152.9141
559.2128, 127.7129
559.6949, 81.21289
560.1770, 33.83594
560.6591, 2.048828
561.1412, 37.19336
561.6234, 88.07227
562.1055, 160.8438
562.5876, 228.1426
563.0697, 257.1484
563.5518, 261.4727
564.0339, 285.7695
564.5161, 335.5742
564.9982, 398.9238
565.4803, 473.9668
565.9624, 555.9727
566.4445, 623.4707
566.9266, 658.9863
567.4088, 704.6973
567.8909, 789.4395
568.3730, 885.6738
568.8551, 956.5137
569.3372, 997.1133
569.8193, 1027.488
570.3015, 1066.912
570.7836, 1114.400
571.2657, 1157.189
571.7478, 1187.047
572.2299, 1222.828
572.7120, 1273.859
573.1942, 1327.588
573.6763, 1369.447
574.1584, 1398.324
574.6405, 1429.199
575.1226, 1479.859
575.6047, 1543.869
576.0869, 1593.330
576.5690, 1625.592
577.0511, 1654.193
577.5332, 1685.436
578.0153, 1717.500
578.4974, 1746.529
578.9796, 1770.705
579.4617, 1799.932
579.9438, 1846.910
580.4259, 1895.643
580.9080, 1925.316
581.3901, 1936.744
581.8723, 1942.195
582.3544, 1946.727
582.8365, 1956.404
583.3186, 1992.441
583.8007, 2093.785
584.2828, 2161.623
584.7650, 2171.268
585.2471, 2168.473
585.7292, 2180.199
586.2113, 2206.854
586.6934, 2238.211
587.1755, 2269.123
587.6577, 2298.467
588.1398, 2322.135
588.6219, 2338.070
589.1040, 2362.402
589.5861, 2406.680
590.0682, 2451.592
590.5504, 2477.174
591.0325, 2486.412
591.5146, 2499.365
591.9967, 2529.582
592.4788, 2559.727
592.9609, 2570.266
593.4431, 2568.783
593.9252, 2579.094
594.4073, 2610.615
594.8894, 2650.830
595.3715, 2681.783
595.8536, 2700.119
596.3358, 2724.020
596.8179, 2759.410
597.3000, 2792.572
597.7821, 2817.939
598.2642, 2834.955
598.7463, 2844.436
599.2285, 2846.359
599.7106, 2839.820
600.1927, 2820.410
600.6748, 2791.963
601.1569, 2777.242
601.6390, 2778.020
602.1212, 2780.646
602.6033, 2784.770
603.0854, 2787.410
603.5675, 2783.812
604.0496, 2774.828
604.5317, 2751.996
605.0139, 2702.059
605.4960, 2641.982
605.9781, 2595.971
606.4602, 2565.502
606.9423, 2537.135
607.4244, 2501.480
607.9066, 2462.016
608.3887, 2432.973
608.8708, 2429.939
609.3529, 2417.760
609.8350, 2394.303
610.3171, 2360.928
610.7993, 2310.807
611.2814, 2252.488
611.7635, 2209.387
612.2456, 2198.633
612.7277, 2201.441
613.2098, 2177.715
613.6920, 2124.400
614.1741, 2089.062
614.6562, 2094.463
615.1383, 2109.668
615.6204, 2099.562
616.1025, 2067.385
616.5847, 2039.855
617.0668, 2028.639
617.5489, 2020.588
618.0310, 2001.355
618.5131, 1978.977
618.9952, 1976.105
619.4774, 1999.316
619.9595, 2024.076
620.4416, 2016.105
620.9237, 1969.268
621.4058, 1952.012
621.8879, 1999.592
622.3701, 2037.369
622.8522, 2043.098
623.3343, 2036.555
623.8164, 2036.316
624.2985, 2046.053
624.7806, 2060.178
625.2628, 2076.611
625.7448, 2095.932
626.2269, 2117.518
626.7090, 2140.648
627.1912, 2161.188
627.6733, 2174.180
628.1554, 2186.580
628.6375, 2214.902
629.1196, 2264.434
629.6017, 2300.582
630.0839, 2305.400
630.5660, 2307.270
631.0481, 2327.449
631.5302, 2360.232
632.0123, 2388.988
632.4944, 2406.252
632.9766, 2418.330
633.4587, 2436.455
633.9408, 2462.514
634.4229, 2480.973
634.9050, 2481.131
635.3871, 2487.928
635.8693, 2516.648
636.3514, 2556.617
636.8335, 2591.953
637.3156, 2618.893
637.7977, 2642.111
638.2798, 2661.764
638.7620, 2680.398
639.2441, 2706.363
639.7262, 2740.010
640.2083, 2766.939
640.6904, 2776.875
641.1725, 2774.793
641.6547, 2776.703
642.1368, 2782.291
642.6189, 2790.658
643.1010, 2801.572
643.5831, 2815.039
644.0652, 2834.139
644.5474, 2856.027
645.0295, 2874.133
645.5116, 2884.965
645.9937, 2889.549
646.4758, 2885.168
646.9579, 2872.285
647.4401, 2876.025
647.9222, 2907.092
648.4043, 2940.357
648.8864, 2955.670
649.3685, 2957.898
649.8506, 2962.178
650.3328, 2970.957
650.8149, 2979.559
651.2970, 2994.363
651.7791, 3004.039
652.2612, 2986.738
652.7433, 2945.914
653.2255, 2913.260
653.7076, 2913.430
654.1897, 2936.938
654.6718, 2947.543
655.1539, 2937.438
655.6360, 2933.398
656.1182, 2947.320
656.6003, 2960.475
657.0824, 2960.492
657.5645, 2950.760
658.0466, 2943.768
658.5287, 2946.852
659.0109, 2950.385
659.4930, 2946.631
659.9751, 2935.693
660.4572, 2916.719
660.9393, 2889.551
661.4214, 2861.740
661.9036, 2839.965
662.3857, 2823.215
662.8678, 2802.805
663.3499, 2770.002
663.8320, 2746.414
664.3141, 2740.301
664.7963, 2739.344
665.2784, 2737.277
665.7605, 2730.990
666.2426, 2716.568
666.7247, 2690.479
667.2068, 2658.689
667.6890, 2630.744
668.1711, 2605.902
668.6532, 2575.340
669.1353, 2533.629
669.6174, 2493.207
670.0995, 2470.729
670.5817, 2463.420
671.0638, 2442.619
671.5459, 2388.100
672.0280, 2342.773
672.5101, 2327.988
672.9922, 2325.326
673.4744, 2318.551
673.9565, 2304.768
674.4386, 2283.023
674.9207, 2249.814
675.4028, 2209.150
675.8849, 2176.070
676.3671, 2152.822
676.8492, 2130.828
677.3313, 2108.343
677.8134, 2086.634
678.2955, 2068.426
678.7776, 2051.514
679.2598, 2029.680
679.7419, 1999.422
680.2240, 1967.335
680.7061, 1929.731
681.1882, 1892.868
681.6703, 1874.367
682.1525, 1875.826
682.6346, 1873.307
683.1167, 1844.840
683.5988, 1797.215
684.0809, 1766.022
684.5630, 1762.776
685.0452, 1750.735
685.5273, 1706.415
686.0094, 1667.134
686.4915, 1664.939
686.9736, 1686.816
687.4557, 1690.442
687.9379, 1654.057
688.4200, 1605.307
688.9021, 1568.493
689.3842, 1537.979
689.8663, 1496.332
690.3484, 1440.283
690.8306, 1394.182
691.3127, 1380.031
691.7948, 1389.538
692.2769, 1378.619
692.7590, 1333.086
693.2411, 1289.183
693.7233, 1246.358
694.2054, 1208.458
694.6875, 1178.724
695.1696, 1155.589
695.6517, 1135.771
696.1339, 1118.978
696.6160, 1101.573
697.0981, 1076.825
697.5802, 1047.919
698.0623, 1028.287
698.5444, 1021.080
699.0266, 1007.644
699.5087, 972.7402
699.9908, 922.6592
700.4729, 882.2842
700.9550, 863.8047
701.4371, 836.2754
701.9193, 780.4346
702.4014, 732.7656
702.8835, 725.4443
703.3656, 742.4150
703.8477, 746.8877
704.3298, 722.8301
704.8120, 685.5781
705.2941, 650.9326
705.7762, 619.2148
706.2583, 590.0508
706.7404, 562.7666
707.2225, 545.2236
707.7046, 547.6885
708.1867, 558.7061
708.6688, 547.2275
709.1509, 501.7373
709.6331, 464.3652
710.1152, 437.6016
710.5973, 419.5166
711.0794, 418.7500
711.5615, 423.0820
712.0436, 408.6865
712.5258, 367.2939
713.0079, 321.7939
713.4900, 299.1641
713.9721, 295.8252
714.4542, 294.8604
714.9363, 298.1895
715.4185, 287.4072
715.9006, 246.4902
716.3827, 194.9043
716.8648, 167.2217
717.3469, 167.7441
717.8290, 163.8311
718.3112, 145.3623
718.7933, 129.9590
719.2754, 135.5234
719.7575, 145.8799
720.2396, 134.0596
720.7217, 95.16504
721.2039, 51.81250
721.6860, 23.32910
722.1681, 8.852539
722.6502, 10.72949
723.1323, 32.69238
723.6144, 39.03516
724.0966, 12.81836
724.5787, 25.01172
725.0608, 51.61035
725.5429, 67.25977
726.0250, 78.59863
726.5071, 81.95020
726.9893, 85.74512
727.4714, 95.40137
727.9535, 105.6377
728.4356, 110.2393
728.9177, 108.7363
729.3998, 103.7188
729.8820, 94.99023
730.3641, 87.88672
730.8462, 100.0078
731.3283, 132.5869
731.8104, 148.0088
732.2925, 133.7207
732.7747, 113.5469
733.2568, 106.1230
733.7389, 109.5137
734.2210, 111.6221
734.7031, 112.2275
735.1852, 112.1973
735.6674, 107.7158
736.1495, 105.9863
736.6316, 120.6270
737.1137, 143.1719
737.5958, 146.9756
738.0779, 117.0781
738.5601, 80.02344
739.0422, 79.47168
739.5243, 110.8711
740.0064, 129.6973
740.4885, 130.1768
740.9706, 128.6084
741.4528, 135.8223
741.9349, 145.3594
742.4170, 142.2520
742.8991, 123.8965
743.3812, 103.0049
743.8633, 70.40527
744.3455, 45.85254
744.8276, 42.59277
745.3097, 53.09277
745.7918, 69.24512
746.2739, 87.12012
746.7560, 97.28516
747.2382, 88.37305
747.7203, 64.97949
748.2024, 39.83887
748.6845, 12.86621
749.1666, 12.54590
749.6487, 35.19824
750.1309, 56.30664
750.6130, 78.80566
751.0951, 103.0166
751.5772, 116.9531
752.0593, 109.0898
752.5414, 106.4600
753.0236, 117.7021
753.5057, 134.4727
753.9878, 149.2363
754.4699, 161.6729
754.9520, 176.2705
755.4341, 197.0654
755.9163, 217.9482
756.3984, 226.2197
756.8805, 226.2949
757.3626, 242.2549
757.8447, 279.5781
758.3268, 306.8154
758.8090, 297.4990
759.2911, 265.8438
759.7732, 259.7617
760.2553, 298.9248
760.7374, 329.2266
761.2195, 348.2480
761.7017, 362.2373
762.1838, 372.2793
762.6659, 379.9863
763.1480, 386.6201
763.6301, 392.4062
764.1122, 401.3438
764.5944, 416.6133
765.0765, 436.8662
765.5586, 463.2578
766.0407, 493.7754
766.5228, 516.3438
767.0049, 525.9102
767.4871, 529.9531
767.9692, 537.4473
768.4513, 548.3398
768.9334, 564.5322
769.4155, 590.5869
769.8976, 614.1377
770.3798, 629.5244
770.8619, 643.4727
771.3440, 663.2021
771.8261, 686.9990
772.3082, 704.3008
772.7903, 706.9482
773.2725, 708.0332
773.7546, 719.2002
774.2367, 733.1758
774.7188, 735.9629
775.2009, 728.5322
775.6830, 726.7197
776.1652, 741.9580
776.6473, 764.7334
777.1294, 768.8359
777.6115, 748.8105
778.0936, 749.6104
778.5757, 786.5693
779.0579, 820.7686
779.5400, 833.3135
780.0221, 829.0508
780.5042, 812.5117
780.9863, 779.4941
781.4684, 757.4775
781.9506, 760.9316
782.4327, 767.7930
782.9148, 766.8086
783.3969, 759.1523
783.8790, 743.7344
784.3611, 722.7695
784.8433, 709.4648
785.3254, 720.9316
785.8075, 745.6094
786.2896, 747.8984
786.7717, 727.8320
787.2538, 701.5684
787.7360, 669.2871
788.2181, 644.6836
788.7002, 644.1113
789.1823, 661.6836
789.6644, 658.5430
790.1465, 613.2539
790.6286, 584.1523
791.1107, 587.2539
791.5928, 594.7773
792.0750, 588.9395
792.5571, 573.9668
793.0392, 561.5605
793.5213, 556.1465
794.0034, 553.9922
794.4855, 552.6309
794.9677, 550.2266
795.4498, 545.9785
795.9319, 541.6152
796.4140, 535.4414
796.8961, 524.4316
797.3782, 507.9336
797.8604, 486.5391
798.3425, 460.6953
798.8246, 445.2930
799.3067, 447.3672
799.7888, 445.3691
800.2709, 435.0156
800.7531, 419.8652
801.2352, 394.5273
801.7173, 364.2070
802.1994, 351.3613
802.6815, 371.4863
803.1636, 394.0820
803.6458, 401.1719
804.1279, 403.1836
804.6100, 416.1250
805.0921, 437.7246
805.5742, 451.9629
806.0563, 449.2793
806.5385, 440.0410
807.0206, 443.6270
807.5027, 458.0039
807.9848, 452.2871
808.4669, 418.6582
808.9490, 400.8398
809.4312, 424.6387
809.9133, 465.2090
810.3954, 486.4180
810.8775, 485.6465
811.3596, 481.2637
811.8417, 466.8086
812.3239, 457.0547
812.8060, 449.5781
813.2881, 453.0527
813.7702, 481.2812
814.2523, 529.4258
814.7344, 575.9590
815.2166, 611.6348
815.6987, 638.2930
816.1808, 651.3965
816.6629, 657.9863
817.1450, 676.8652
817.6271, 708.2480
818.1093, 732.1367
818.5914, 735.7871
819.0735, 732.9141
819.5556, 752.4688
820.0377, 799.9668
820.5198, 833.0840
821.0020, 841.5742
821.4841, 855.2871
821.9662, 890.0215
822.4483, 932.0469
822.9304, 967.4258
823.4125, 996.0820
823.8947, 1019.873
824.3768, 1039.352
824.8589, 1053.930
825.3410, 1055.090
825.8231, 1057.027
826.3052, 1076.301
826.7874, 1112.400
827.2695, 1155.756
827.7516, 1202.812
828.2337, 1247.549
828.7158, 1279.633
829.1979, 1301.895
829.6801, 1325.752
830.1622, 1351.988
830.6443, 1380.346
831.1264, 1411.904
831.6085, 1441.080
832.0906, 1458.043
832.5728, 1460.303
833.0549, 1466.676
833.5370, 1475.080
834.0191, 1490.479
834.5012, 1517.500
834.9833, 1548.336
835.4655, 1578.908
835.9476, 1608.064
836.4297, 1633.150
836.9118, 1651.424
837.3939, 1668.812
837.8760, 1688.008
838.3582, 1708.678
838.8403, 1730.766
839.3224, 1754.023
839.8045, 1777.109
840.2866, 1799.318
840.7687, 1824.334
841.2509, 1862.016
841.7330, 1907.971
842.2151, 1932.893
842.6972, 1934.758
843.1793, 1938.574
843.6614, 1952.820
844.1436, 1973.357
844.6257, 1997.338
845.1078, 2024.355
845.5899, 2039.947
846.0720, 2026.701
846.5541, 2027.123
847.0363, 2056.152
847.5184, 2088.658
848.0005, 2111.133
848.4826, 2124.451
848.9647, 2132.281
849.4468, 2134.479
849.9290, 2136.160
850.4111, 2138.484
850.8932, 2143.096
851.3753, 2154.025
851.8574, 2168.408
852.3395, 2179.457
852.8217, 2185.299
853.3038, 2189.590
853.7859, 2196.521
854.2680, 2204.178
854.7501, 2205.695
855.2322, 2201.170
855.7144, 2194.709
856.1965, 2185.695
856.6786, 2181.820
857.1607, 2191.248
857.6428, 2208.361
858.1249, 2214.986
858.6071, 2206.303
859.0892, 2197.141
859.5713, 2185.006
860.0534, 2175.018
860.5355, 2166.256
861.0176, 2161.959
861.4998, 2166.771
861.9819, 2180.854
862.4640, 2197.926
862.9461, 2227.396
863.4282, 2246.363
863.9103, 2230.018
864.3925, 2198.328
864.8746, 2179.289
865.3567, 2174.645
865.8388, 2172.998
866.3209, 2168.676
866.8030, 2156.953
867.2852, 2122.785
867.7673, 2073.287
868.2494, 2047.643
868.7315, 2048.967
869.2136, 2057.084
869.6957, 2064.863
870.1779, 2069.760
870.6600, 2069.135
871.1421, 2063.227
871.6242, 2050.020
872.1063, 2017.719
872.5884, 1998.688
873.0705, 2009.260
873.5526, 2024.160
874.0347, 2033.611
874.5168, 2035.234
874.9990, 2022.574
875.4811, 1989.277
875.9632, 1959.191
876.4453, 1934.553
876.9274, 1921.740
877.4095, 1937.723
877.8917, 1963.553
878.3738, 1963.090
878.8559, 1931.805
879.3380, 1904.965
879.8201, 1914.953
880.3022, 1939.531
880.7844, 1939.180
881.2665, 1921.465
881.7486, 1916.750
882.2307, 1929.488
882.7128, 1941.148
883.1949, 1939.994
883.6771, 1930.287
884.1592, 1920.928
884.6413, 1912.723
885.1234, 1901.180
885.6055, 1886.248
886.0876, 1866.727
886.5698, 1837.330
887.0519, 1807.539
887.5340, 1786.500
888.0161, 1773.717
888.4982, 1767.457
888.9803, 1774.594
889.4625, 1780.520
889.9446, 1787.742
890.4267, 1788.594
890.9088, 1773.148
891.3909, 1747.809
891.8730, 1726.252
892.3552, 1712.680
892.8373, 1699.104
893.3194, 1683.156
893.8015, 1663.693
894.2836, 1634.740
894.7657, 1601.672
895.2479, 1576.490
895.7300, 1561.465
896.2121, 1551.717
896.6942, 1545.055
897.1763, 1537.578
897.6584, 1517.957
898.1406, 1487.377
898.6227, 1464.600
899.1048, 1452.453
899.5869, 1438.557
900.0690, 1416.477
900.5511, 1390.545
901.0333, 1367.744
901.5154, 1348.578
901.9975, 1324.490
902.4796, 1288.924
902.9617, 1260.834
903.4438, 1251.729
903.9260, 1243.717
904.4081, 1224.498
904.8902, 1197.596
905.3723, 1171.998
905.8544, 1147.230
906.3365, 1124.768
906.8187, 1107.287
907.3008, 1089.875
907.7829, 1074.904
908.2650, 1056.277
908.7471, 1021.053
909.2292, 970.5801
909.7114, 926.0371
910.1935, 902.8809
910.6756, 886.8926
911.1577, 863.7695
911.6398, 836.8477
912.1219, 812.4805
912.6041, 791.0078
913.0862, 770.7129
913.5683, 750.9160
914.0504, 726.8926
914.5325, 686.4980
915.0146, 635.7793
915.4968, 610.9102
915.9789, 612.8711
916.4610, 618.2148
916.9431, 623.8242
917.4252, 618.1875
917.9073, 589.2754
918.3895, 543.7539
918.8716, 505.3086
919.3537, 473.7539
919.8358, 449.0195
920.3179, 439.7461
920.8000, 424.3848
921.2822, 383.7363
921.7643, 339.4336
922.2464, 319.1992
922.7285, 321.8594
923.2106, 314.3340
923.6927, 284.7012
924.1749, 254.3262
924.6570, 230.4395
925.1391, 206.8027
925.6212, 172.6934
926.1033, 136.9219
926.5854, 120.6816
927.0676, 130.6191
927.5497, 139.5840
928.0318, 129.0254
928.5139, 110.2637
928.9960, 90.93164
929.4781, 73.33398
929.9603, 62.09570
930.4424, 56.85742
930.9245, 52.36133
931.4066, 45.56445
931.8887, 36.35547
932.3708, 23.96680
932.8530, 8.847656
933.3351, 9.015625
933.8172, 28.79297
934.2993, 40.84375
934.7814, 41.73828
935.2635, 38.30664
935.7457, 36.41211
936.2278, 36.76172
936.7099, 44.14062
937.1920, 62.12500
937.6741, 67.24023
938.1563, 50.80664
938.6384, 36.86523
939.1205, 39.63672
939.6026, 52.04102
940.0847, 61.75000
940.5668, 68.22852
941.0490, 71.34766
941.5311, 65.61719
942.0132, 65.34375
942.4953, 78.41797
942.9774, 91.83594
943.4595, 95.16211
943.9417, 91.79492
944.4238, 92.66211
944.9059, 103.7891
945.3880, 103.8750
945.8701, 70.50781
946.3522, 38.96484
946.8344, 39.25195
947.3165, 52.34570
947.7986, 52.49805
948.2807, 36.53711
948.7628, 14.25781
949.2449, 12.26367
949.7271, 33.84375
950.2092, 43.74805
950.6913, 43.42383
951.1734, 25.31641
951.6555, 2.136719
952.1376, 10.29883
952.6198, 9.634766
953.1019, 37.90430
953.5840, 57.63086
954.0661, 69.90430
954.5482, 72.50000
955.0303, 68.21680
955.5124, 79.88086
955.9945, 110.4316
956.4766, 135.1914
956.9587, 140.6152
957.4409, 138.1465
957.9230, 145.6855
958.4051, 162.9473
958.8872, 175.9902
959.3693, 184.8828
959.8514, 190.8477
960.3336, 195.3008
960.8157, 195.6250
961.2978, 189.5156
961.7799, 176.5078
962.2620, 154.2910
962.7441, 113.2637
963.2263, 93.95312
963.7084, 108.3887
964.1905, 128.9824
964.6726, 155.1328
965.1547, 178.6445
965.6368, 188.6328
966.1190, 189.2188
966.6011, 200.4473
967.0832, 240.7070
967.5653, 259.3066
968.0474, 224.1719
968.5295, 187.6816
969.0117, 178.4004
969.4938, 186.5703
969.9759, 202.6367
970.4580, 222.2715
970.9401, 231.8887
971.4222, 218.6035
971.9044, 204.9336
972.3865, 207.4180
972.8686, 214.7930
973.3507, 215.3906
973.8328, 210.6641
974.3149, 207.1426
974.7971, 206.3750
975.2792, 202.5977
975.7613, 187.8320
976.2434, 171.2891
976.7255, 165.2754
977.2076, 166.8203
977.6898, 171.4824
978.1719, 177.6250
978.6540, 180.6133
979.1361, 178.3984
979.6182, 176.1309
980.1003, 181.7734
980.5825, 192.1035
981.0646, 192.8691
981.5467, 186.0781
982.0288, 192.8770
982.5109, 217.1016
982.9930, 226.1367
983.4752, 195.8086
983.9573, 150.7656
984.4394, 142.4961
984.9215, 171.8711
985.4036, 179.8711
985.8857, 162.3574
986.3679, 143.7383
986.8500, 128.2793
987.3321, 120.8184
987.8142, 128.4121
988.2963, 144.4961
988.7784, 147.9922
989.2606, 135.7734
989.7427, 120.8496
990.2248, 102.3574
990.7069, 81.40820
991.1890, 51.83203
991.6711, 26.40625
992.1533, 20.26172
992.6354, 30.84180
993.1175, 39.95898
993.5996, 54.77539
994.0817, 54.92188
994.5638, 24.23047
995.0460, 3.285156
995.5281, 11.97656
996.0102, 10.26953
996.4923, 4.953125
996.9744, 1.203125
997.4565, 1.820313
997.9387, 24.46094
998.4208, 41.77539
998.9029, 40.07227
999.3850, 38.36914
999.8671, 52.61719
1000.349, 74.09570
1000.831, 88.87695
1001.313, 94.76758
1001.796, 98.44336
1002.278, 100.8613
1002.760, 106.2461
1003.242, 117.0000
1003.724, 128.1816
1004.206, 137.7812
1004.688, 146.9453
1005.170, 156.6953
1005.653, 165.8574
1006.135, 168.8789
1006.617, 155.3555
1007.099, 143.3867
1007.581, 157.6016
1008.063, 180.5762
1008.545, 186.2617
1009.027, 178.5059
1009.509, 173.2422
1009.992, 175.2637
1010.474, 180.6523
1010.956, 190.0137
1011.438, 198.7910
1011.920, 202.6621
1012.402, 199.7227
1012.884, 178.6758
1013.366, 143.3047
1013.849, 119.0059
1014.331, 116.9141
1014.813, 119.9199
1015.295, 108.1777
1015.777, 87.00195
1016.259, 64.20117
1016.741, 43.41211
1017.223, 50.23047
1017.705, 84.98047
1018.188, 106.9258
1018.670, 95.02539
1019.152, 63.90820
1019.634, 28.22070
1020.116, 7.298828
1020.598, 15.52734
1021.080, 1.550781
1021.562, 0.6835940
1022.044, 26.75586
1022.527, 45.58203
1023.009, 33.15430
1023.491, 11.92188
1023.973, 21.24609
1024.455, 58.42188
1024.937, 72.40625
1025.419, 58.71484
1025.901, 60.20898
1026.384, 87.39062
1026.866, 119.4824
1027.348, 145.4590
1027.830, 165.3828
1028.312, 176.7480
1028.794, 178.8164
1029.276, 199.1914
1029.758, 250.3672
1030.240, 273.3887
1030.723, 242.5137
1031.205, 217.8125
1031.687, 244.8984
1032.169, 296.4297
1032.651, 312.6191
1033.133, 284.3516
1033.615, 298.9199
1034.097, 385.3223
1034.579, 449.9570
1035.062, 461.8887
1035.544, 468.1309
1036.026, 500.4805
1036.508, 547.2832
1036.990, 584.7910
1037.472, 612.5215
1037.954, 632.2832
1038.436, 643.2891
1038.919, 646.8750
1039.401, 628.2715
1039.883, 618.2363
1040.365, 649.8457
1040.847, 700.3906
1041.329, 716.1406
1041.811, 685.5391
1042.293, 681.7363
1042.776, 735.2090
1043.258, 776.4590
1043.740, 788.9277
1044.222, 788.5801
1044.704, 775.7207
1045.186, 760.8691
1045.668, 765.4824
1046.150, 794.0820
1046.632, 819.0645
1047.115, 831.0898
1047.597, 847.6250
1048.079, 877.6641
1048.561, 908.2891
1049.043, 930.2402
1049.525, 946.0801
1050.007, 962.4551
1050.489, 980.2031
1050.971, 998.6426
1051.454, 1017.145
1051.936, 1036.756
1052.418, 1055.822
1052.900, 1076.348
1053.382, 1108.752
1053.864, 1141.682
1054.346, 1150.154
1054.828, 1130.102
1055.311, 1118.129
1055.793, 1125.762
1056.275, 1139.352
1056.757, 1157.611
1057.239, 1177.799
1057.721, 1200.709
1058.203, 1222.191
1058.685, 1232.941
1059.167, 1232.381
1059.650, 1241.807
1060.132, 1280.500
1060.614, 1313.764
1061.096, 1326.059
1061.578, 1330.125
1062.060, 1334.271
1062.542, 1338.043
1063.024, 1336.086
1063.506, 1328.795
1063.989, 1331.469
1064.471, 1359.322
1064.953, 1385.318
1065.435, 1392.277
1065.917, 1397.291
1066.399, 1418.223
1066.881, 1445.119
1067.363, 1458.908
1067.846, 1458.072
1068.328, 1460.008
1068.810, 1474.963
1069.292, 1487.018
1069.774, 1485.395
1070.256, 1482.639
1070.738, 1490.451
1071.220, 1503.121
1071.703, 1507.871
1072.185, 1505.709
1072.667, 1516.832
1073.149, 1558.812
1073.631, 1593.184
1074.113, 1592.568
1074.595, 1587.615
1075.077, 1598.217
1075.559, 1618.205
1076.042, 1639.611
1076.524, 1662.342
1077.006, 1690.775
1077.488, 1730.641
1077.970, 1762.480
1078.452, 1763.787
1078.934, 1768.363
1079.416, 1806.598
1079.898, 1856.811
1080.380, 1890.000
1080.863, 1909.178
1081.345, 1938.293
1081.827, 1987.709
1082.309, 2031.406
1082.791, 2046.137
1083.273, 2065.125
1083.755, 2118.064
1084.237, 2178.363
1084.720, 2212.975
1085.202, 2229.457
1085.684, 2257.652
1086.166, 2306.436
1086.648, 2352.084
1087.130, 2382.594
1087.612, 2410.039
1088.094, 2441.816
1088.577, 2472.217
1089.059, 2494.697
1089.541, 2512.510
1090.023, 2531.559
1090.505, 2553.445
1090.987, 2577.133
1091.469, 2599.027
1091.951, 2628.586
1092.433, 2684.043
1092.916, 2734.986
1093.398, 2751.781
1093.880, 2749.182
1094.362, 2753.912
1094.844, 2769.396
1095.326, 2781.660
1095.808, 2769.045
1096.290, 2778.002
1096.772, 2848.867
1097.255, 2918.691
1097.737, 2929.531
1098.219, 2926.873
1098.701, 2989.264
1099.183, 3107.664
1099.665, 3177.465
1100.147, 3137.434
1100.629, 3126.043
1101.112, 3202.010
1101.594, 3285.590
1102.076, 3347.391
1102.558, 3390.646
1103.040, 3412.670
1103.522, 3419.805
1104.004, 3431.514
1104.486, 3446.021
1104.969, 3480.539
1105.451, 3556.818
1105.933, 3628.549
1106.415, 3675.490
1106.897, 3716.152
1107.379, 3772.760
1107.861, 3833.463
1108.343, 3862.424
1108.825, 3846.785
1109.307, 3862.047
1109.790, 3954.980
1110.272, 4021.715
1110.754, 4023.543
1111.236, 4011.227
1111.718, 4009.150
1112.200, 4016.627
1112.682, 4029.619
1113.164, 4047.531
1113.647, 4082.578
1114.129, 4167.406
1114.611, 4213.898
1115.093, 4184.662
1115.575, 4159.217
1116.057, 4174.232
1116.539, 4206.955
1117.021, 4231.324
1117.504, 4249.328
1117.986, 4277.484
1118.468, 4324.918
1118.950, 4359.439
1119.432, 4371.070
1119.914, 4385.557
1120.396, 4407.789
1120.878, 4441.227
1121.360, 4493.121
1121.843, 4558.131
1122.325, 4619.598
1122.807, 4678.828
1123.289, 4725.752
1123.771, 4761.668
1124.253, 4780.402
1124.735, 4773.105
1125.217, 4771.139
1125.699, 4794.961
1126.182, 4835.939
1126.664, 4879.867
1127.146, 4926.324
1127.628, 4968.959
1128.110, 5005.541
1128.592, 5059.383
1129.074, 5133.459
1129.556, 5207.703
1130.039, 5276.002
1130.521, 5336.311
1131.003, 5382.115
1131.485, 5426.648
1131.967, 5505.398
1132.449, 5614.824
1132.931, 5735.721
1133.413, 5872.494
1133.896, 6013.176
1134.378, 6153.926
1134.860, 6301.609
1135.342, 6438.051
1135.824, 6566.438
1136.306, 6695.121
1136.788, 6822.566
1137.270, 6942.137
1137.752, 7051.553
1138.234, 7139.287
1138.717, 7206.238
1139.199, 7278.176
1139.681, 7370.516
1140.163, 7451.449
1140.645, 7480.836
1141.127, 7484.709
1141.609, 7506.230
1142.091, 7541.879
1142.574, 7584.209
1143.056, 7628.555
1143.538, 7670.707
1144.020, 7708.824
1144.502, 7736.090
1144.984, 7740.615
1145.466, 7752.414
1145.948, 7818.379
1146.431, 7896.277
1146.913, 7935.340
1147.395, 7944.148
1147.877, 7937.219
1148.359, 7922.879
1148.841, 7914.836
1149.323, 7920.512
1149.805, 7926.312
1150.287, 7920.582
1150.770, 7915.062
1151.252, 7922.551
1151.734, 7931.602
1152.216, 7930.332
1152.698, 7919.570
1153.180, 7905.074
1153.662, 7887.773
1154.144, 7866.391
1154.626, 7841.016
1155.109, 7814.504
1155.591, 7789.668
1156.073, 7762.359
1156.555, 7733.941
1157.037, 7701.066
1157.519, 7653.227
1158.001, 7595.465
1158.483, 7564.656
1158.966, 7598.672
1159.448, 7591.980
1159.930, 7497.816
1160.412, 7418.602
1160.894, 7392.789
1161.376, 7378.785
1161.858, 7342.836
1162.340, 7297.344
1162.822, 7272.836
1163.305, 7273.824
1163.787, 7241.797
1164.269, 7158.961
1164.751, 7099.105
1165.233, 7086.484
1165.715, 7047.906
1166.197, 6944.215
1166.679, 6814.090
1167.161, 6697.379
1167.644, 6599.547
1168.126, 6561.660
1168.608, 6587.152
1169.090, 6553.840
1169.572, 6453.840
1170.054, 6334.750
1170.536, 6207.512
1171.018, 6087.172
1171.500, 5984.797
1171.983, 5890.742
1172.465, 5792.781
1172.947, 5688.062
1173.429, 5569.312
1173.911, 5440.535
1174.393, 5328.117
1174.875, 5225.637
1175.357, 5074.512
1175.840, 4860.504
1176.322, 4659.488
1176.804, 4536.203
1177.286, 4454.137
1177.768, 4400.098
1178.250, 4335.336
1178.732, 4193.102
1179.214, 4000.922
1179.697, 3813.098
1180.179, 3640.961
1180.661, 3468.262
1181.143, 3288.078
1181.625, 3113.730
1182.107, 2964.344
1182.589, 2804.418
1183.071, 2594.703
1183.553, 2374.949
1184.036, 2194.859
1184.518, 2027.434
1185.000, 1810.422
1185.482, 1540.250
1185.964, 1306.766
1186.446, 1186.742
1186.928, 1014.250
1187.410, 718.3359
1187.892, 421.3672
1188.375, 157.2734
1188.857, 69.81250
1189.339, 238.1172
1189.821, 374.3750
1190.303, 573.7656
1190.785, 850.4688
1191.267, 1112.391
1191.749, 1363.383
1192.232, 1589.422
1192.714, 1393.641
1193.196, 1204.773
1193.678, 1047.938
1194.160, 901.3203
1194.642, 742.8828
1195.124, 573.3125
1195.606, 398.3828
1196.089, 219.6484
1196.571, 64.14062
1197.053, 64.76562
1197.535, 200.5391
1198.017, 347.4062
1198.499, 464.7031
1198.981, 521.8984
1199.463, 585.4453
1199.945, 759.5859
1200.427, 985.1094
1200.910, 1165.172
1201.392, 1304.594
1201.874, 1404.094
1202.356, 1479.961
1202.838, 1561.609
1203.320, 1665.227
1203.802, 1817.094
1204.284, 2052.539
1204.767, 2282.875
1205.249, 2428.453
1205.731, 2544.688
1206.213, 2660.398
1206.695, 2779.438
1207.177, 2898.656
1207.659, 3027.781
1208.141, 3201.719
1208.624, 3427.070
1209.106, 3619.602
1209.588, 3726.820
1210.070, 3843.820
1210.552, 3975.875
1211.034, 4148.984
1211.516, 4420.617
1211.998, 4701.117
1212.480, 4899.867
1212.963, 5032.695
1213.445, 5145.773
1213.927, 5236.875
1214.409, 5332.461
1214.891, 5423.180
1215.373, 5530.422
1215.855, 5665.500
1216.337, 5782.461
1216.819, 5848.805
1217.302, 5888.289
1217.784, 5924.078
1218.266, 5958.992
1218.748, 6002.250
1219.230, 6011.359
1219.712, 5923.188
1220.194, 5754.133
1220.676, 5495.688
1221.159, 5146.250
1221.641, 4786.969
1222.123, 4418.461
1222.605, 4112.602
1223.087, 3965.609
1223.569, 3910.977
1224.051, 3855.930
1224.533, 3815.672
1225.016, 3819.844
1225.498, 3874.117
1225.980, 3911.234
1226.462, 3907.438
1226.944, 3921.984
1227.426, 3993.438
1227.908, 4036.734
1228.390, 3993.688
1228.872, 3933.844
1229.354, 3855.281
1229.837, 3809.297
1230.319, 3858.391
1230.801, 3956.859
1231.283, 4016.906
1231.765, 4033.531
1232.247, 4051.172
1232.729, 4107.781
1233.211, 4034.625
1233.694, 3776.938
1234.176, 3556.078
1234.658, 3454.125
1235.140, 3400.359
1235.622, 3374.531
1236.104, 3337.141
1236.586, 3174.609
1237.068, 2932.047
1237.551, 2859.922
1238.033, 2891.578
1238.515, 2740.375
1238.997, 2419.109
1239.479, 2146.109
1239.961, 1978.250
1240.443, 1848.328
1240.925, 1712.094
1241.407, 1604.844
1241.890, 1615.688
1242.372, 1595.234
1242.854, 1388.422
1243.336, 1142.938
1243.818, 1046.625
1244.300, 1068.594
1244.782, 1000.688
1245.264, 845.6250
1245.746, 717.5312
1246.229, 736.3906
1246.711, 645.4531
1247.193, 335.6875
1247.675, 91.79688
1248.157, 24.96875
1248.639, 22.21875
1249.121, 14.17188
1249.603, 0.0000000E+00
##END=



