##NAMES=Gotzenite
##RRUFFID=R130110
##IDEAL CHEMISTRY=Ca_4_NaCa_2_Ti^4+^(Si_2_O_7_)_2_(OF)F_2_
##LOCALITY=Pocos de Caldas, Pocos de Caldas Plateau, Minas Gerais, Brazil
##OWNER=RRUFF
##SOURCE=Gunnar Farber
##DESCRIPTION=Grey to pale brown aggregates of elongated crystals, associated with colorless nepheline, elongated pectolite, and white milky microcline.
##STATUS=The identification of this mineral is confirmed by single-crystal X-ray diffraction and chemical analysis.
##URL=rruff.info/R130110
##MEASURED CHEMISTRY=Na_1.00_(Ca_4.23_Na_1.05_Zr_0.44_Mn_0.12_Sr_0.06_Ce_0.04_La_0.03_Fe_0.02_Y_0.02_Dy_0.01_)(Ti_0.90_Nd^5+^_0.10_)(Si_2.00_O_7_)_2_OF_2.98_
90.23535, 0.0000000E+00
90.71747, 188.7324
91.19958, 4.857422
91.68170, 455.1465
92.16382, 869.6309
92.64594, 1088.244
93.12805, 1168.596
93.61017, 1196.352
94.09229, 1172.867
94.57440, 1067.670
95.05651, 974.4258
95.53863, 911.5117
96.02074, 858.2500
96.50286, 795.6699
96.98498, 704.1953
97.46709, 554.3809
97.94921, 438.3672
98.43133, 368.2617
98.91344, 313.7422
99.39556, 259.8164
99.87768, 206.0586
100.3598, 165.3633
100.8419, 143.5371
101.3240, 142.0430
101.8061, 153.4395
102.2883, 185.6445
102.7704, 223.0449
103.2525, 249.8281
103.7346, 264.9023
104.2167, 283.5215
104.6988, 310.2578
105.1810, 343.3477
105.6631, 376.4629
106.1452, 409.1387
106.6273, 438.8770
107.1094, 455.7637
107.5915, 447.9980
108.0737, 441.2988
108.5558, 445.5625
109.0379, 458.7832
109.5200, 476.9355
110.0021, 496.9277
110.4842, 516.8652
110.9664, 537.5742
111.4485, 566.3066
111.9306, 592.7930
112.4127, 611.5430
112.8948, 620.3750
113.3769, 624.2109
113.8591, 628.0801
114.3412, 623.4258
114.8233, 631.2949
115.3054, 672.2461
115.7875, 734.0957
116.2696, 799.5918
116.7517, 838.8145
117.2339, 858.5859
117.7160, 900.4238
118.1981, 963.3105
118.6802, 1024.047
119.1623, 1073.695
119.6444, 1112.430
120.1266, 1140.146
120.6087, 1172.252
121.0908, 1210.314
121.5729, 1230.555
122.0550, 1227.535
122.5371, 1215.082
123.0193, 1203.062
123.5014, 1187.857
123.9835, 1167.434
124.4656, 1139.342
124.9477, 1107.758
125.4298, 1076.102
125.9120, 1043.604
126.3941, 1009.627
126.8762, 974.5430
127.3583, 942.1504
127.8404, 902.9512
128.3225, 851.0547
128.8047, 792.9844
129.2868, 735.0391
129.7689, 681.4766
130.2510, 633.0977
130.7331, 596.1836
131.2152, 589.2637
131.6974, 579.2500
132.1795, 557.9199
132.6616, 525.7871
133.1437, 485.9160
133.6258, 441.0234
134.1079, 389.6074
134.5901, 346.5156
135.0722, 318.4355
135.5543, 292.7734
136.0364, 259.5176
136.5185, 218.6699
137.0006, 180.5723
137.4828, 158.8203
137.9649, 159.6074
138.4470, 144.7344
138.9291, 102.0508
139.4112, 46.99219
139.8933, 3.150391
140.3755, 44.82031
140.8576, 81.50000
141.3397, 121.9961
141.8218, 166.8184
142.3039, 197.2168
142.7860, 193.4238
143.2681, 166.2578
143.7503, 155.2930
144.2324, 177.7188
144.7145, 210.6250
145.1966, 231.3145
145.6787, 239.8223
146.1608, 248.7109
146.6430, 268.1055
147.1251, 298.3828
147.6072, 335.0352
148.0893, 357.0801
148.5714, 375.7129
149.0535, 368.9453
149.5357, 329.9961
150.0178, 279.3848
150.4999, 246.5293
150.9820, 240.2422
151.4641, 230.9629
151.9462, 217.7051
152.4284, 199.8145
152.9105, 173.0527
153.3926, 136.9023
153.8747, 97.51367
154.3568, 71.03320
154.8389, 80.55273
155.3211, 75.80664
155.8032, 45.75781
156.2853, 2.876953
156.7674, 38.39844
157.2495, 71.21680
157.7316, 95.99023
158.2138, 113.8965
158.6959, 122.5898
159.1780, 128.3730
159.6601, 125.7617
160.1422, 120.5586
160.6243, 127.1699
161.1065, 155.2812
161.5886, 200.4980
162.0707, 237.9551
162.5528, 263.5566
163.0349, 285.6895
163.5170, 308.8867
163.9991, 333.0371
164.4813, 353.8730
164.9634, 367.9590
165.4455, 376.7227
165.9276, 383.8164
166.4097, 385.5312
166.8918, 389.6797
167.3740, 407.5332
167.8561, 442.1016
168.3382, 474.9570
168.8203, 491.9062
169.3024, 500.8555
169.7845, 512.1230
170.2667, 531.7969
170.7488, 554.1660
171.2309, 565.0625
171.7130, 558.3730
172.1951, 551.0078
172.6772, 548.1914
173.1594, 550.0488
173.6415, 557.3379
174.1236, 569.9336
174.6057, 587.9766
175.0878, 611.7559
175.5699, 657.3555
176.0521, 690.6504
176.5342, 690.6016
177.0163, 672.4648
177.4984, 662.6406
177.9805, 682.8984
178.4626, 734.0117
178.9448, 771.4766
179.4269, 791.1875
179.9090, 801.7852
180.3911, 794.1992
180.8732, 777.5117
181.3553, 771.3203
181.8375, 794.1523
182.3196, 850.1094
182.8017, 893.4062
183.2838, 913.9336
183.7659, 933.2773
184.2480, 964.9141
184.7301, 1006.758
185.2123, 1043.992
185.6944, 1059.871
186.1765, 1050.066
186.6586, 1055.902
187.1407, 1090.652
187.6228, 1129.902
188.1050, 1154.254
188.5871, 1161.500
189.0692, 1166.242
189.5513, 1182.688
190.0334, 1210.180
190.5155, 1235.754
190.9977, 1254.336
191.4798, 1271.387
191.9619, 1297.148
192.4440, 1335.668
192.9261, 1370.031
193.4082, 1370.266
193.8904, 1348.945
194.3725, 1348.504
194.8546, 1401.793
195.3367, 1482.227
195.8188, 1536.691
196.3009, 1554.508
196.7831, 1558.785
197.2652, 1564.082
197.7473, 1569.594
198.2294, 1573.285
198.7115, 1570.203
199.1936, 1563.910
199.6758, 1569.402
200.1579, 1592.000
200.6400, 1626.195
201.1221, 1671.320
201.6042, 1723.301
202.0863, 1771.137
202.5685, 1807.918
203.0506, 1835.008
203.5327, 1857.758
204.0148, 1862.176
204.4969, 1876.051
204.9790, 1918.121
205.4612, 1977.305
205.9433, 2029.691
206.4254, 2052.391
206.9075, 2045.137
207.3896, 2047.594
207.8717, 2066.227
208.3539, 2089.547
208.8360, 2110.918
209.3181, 2132.125
209.8002, 2159.258
210.2823, 2200.250
210.7644, 2257.871
211.2466, 2299.746
211.7287, 2310.285
212.2108, 2320.344
212.6929, 2342.164
213.1750, 2374.777
213.6571, 2410.496
214.1393, 2440.520
214.6214, 2461.820
215.1035, 2499.383
215.5856, 2563.672
216.0677, 2631.180
216.5498, 2695.723
217.0320, 2754.156
217.5141, 2803.238
217.9962, 2837.125
218.4783, 2853.109
218.9604, 2879.141
219.4425, 2923.188
219.9247, 2970.121
220.4068, 3009.684
220.8889, 3042.105
221.3710, 3075.516
221.8531, 3117.488
222.3352, 3168.582
222.8174, 3217.215
223.2995, 3259.207
223.7816, 3301.797
224.2637, 3354.031
224.7458, 3415.684
225.2279, 3469.680
225.7100, 3497.469
226.1922, 3502.383
226.6743, 3520.035
227.1564, 3563.902
227.6385, 3613.992
228.1206, 3649.789
228.6027, 3669.840
229.0849, 3686.781
229.5670, 3710.160
230.0491, 3736.535
230.5312, 3757.035
231.0133, 3762.234
231.4954, 3765.074
231.9776, 3782.902
232.4597, 3818.168
232.9418, 3851.566
233.4239, 3871.078
233.9060, 3881.094
234.3881, 3886.957
234.8703, 3887.477
235.3524, 3886.320
235.8345, 3887.672
236.3166, 3891.246
236.7987, 3901.516
237.2808, 3935.430
237.7630, 3973.094
238.2451, 3992.152
238.7272, 3983.074
239.2093, 3956.078
239.6914, 3921.199
240.1735, 3871.445
240.6557, 3837.793
241.1378, 3848.707
241.6199, 3874.121
242.1020, 3884.961
242.5841, 3869.090
243.0662, 3841.121
243.5484, 3826.168
244.0305, 3828.547
244.5126, 3832.473
244.9947, 3834.605
245.4768, 3835.461
245.9589, 3836.227
246.4410, 3837.824
246.9232, 3837.223
247.4053, 3828.723
247.8874, 3805.277
248.3695, 3790.359
248.8516, 3798.324
249.3337, 3809.027
249.8159, 3804.152
250.2980, 3778.688
250.7801, 3745.250
251.2622, 3725.969
251.7443, 3726.191
252.2264, 3727.672
252.7086, 3731.996
253.1907, 3735.020
253.6728, 3730.578
254.1549, 3718.410
254.6370, 3708.445
255.1191, 3718.293
255.6013, 3760.172
256.0834, 3795.598
256.5655, 3814.203
257.0476, 3833.855
257.5297, 3869.746
258.0118, 3922.621
258.4940, 3980.285
258.9761, 4026.301
259.4582, 4054.867
259.9403, 4087.070
260.4224, 4123.148
260.9045, 4161.555
261.3867, 4200.703
261.8688, 4242.113
262.3509, 4287.441
262.8330, 4339.059
263.3151, 4397.363
263.7972, 4461.883
264.2794, 4540.379
264.7615, 4617.504
265.2436, 4677.695
265.7257, 4724.527
266.2078, 4777.746
266.6899, 4857.699
267.1721, 4969.227
267.6542, 5076.566
268.1363, 5192.938
268.6184, 5294.199
269.1005, 5358.496
269.5826, 5392.203
270.0648, 5420.363
270.5469, 5462.422
271.0290, 5517.383
271.5111, 5587.496
271.9932, 5689.488
272.4753, 5785.992
272.9575, 5854.965
273.4396, 5904.422
273.9217, 5958.227
274.4038, 6034.508
274.8859, 6129.754
275.3680, 6202.809
275.8501, 6253.227
276.3322, 6288.664
276.8144, 6304.590
277.2965, 6308.039
277.7786, 6313.410
278.2607, 6329.422
278.7428, 6352.609
279.2249, 6365.918
279.7071, 6352.785
280.1892, 6352.070
280.6713, 6398.000
281.1534, 6460.211
281.6355, 6481.660
282.1176, 6435.391
282.5998, 6343.938
283.0819, 6260.352
283.5640, 6178.219
284.0461, 6116.402
284.5282, 6098.723
285.0103, 6097.844
285.4925, 6068.402
285.9746, 5993.121
286.4567, 5901.992
286.9388, 5848.664
287.4209, 5845.383
287.9030, 5836.176
288.3852, 5809.992
288.8673, 5772.004
289.3494, 5728.062
289.8315, 5679.406
290.3136, 5624.105
290.7957, 5556.848
291.2779, 5476.203
291.7600, 5405.703
292.2421, 5348.957
292.7242, 5298.812
293.2063, 5248.047
293.6884, 5195.668
294.1706, 5146.793
294.6527, 5107.438
295.1348, 5077.039
295.6169, 5041.023
296.0990, 4996.625
296.5811, 4948.305
297.0633, 4900.711
297.5454, 4852.855
298.0275, 4797.715
298.5096, 4729.094
298.9917, 4650.527
299.4738, 4579.383
299.9560, 4519.875
300.4381, 4460.082
300.9202, 4384.859
301.4023, 4300.309
301.8844, 4236.285
302.3665, 4215.656
302.8487, 4220.883
303.3308, 4199.289
303.8129, 4142.914
304.2950, 4078.320
304.7771, 4012.020
305.2592, 3946.465
305.7414, 3887.785
306.2235, 3838.930
306.7056, 3795.238
307.1877, 3746.414
307.6698, 3688.305
308.1519, 3638.129
308.6341, 3614.656
309.1162, 3601.609
309.5983, 3565.566
310.0804, 3493.695
310.5625, 3405.965
311.0446, 3329.480
311.5268, 3266.027
312.0089, 3206.941
312.4910, 3145.117
312.9731, 3087.129
313.4552, 3041.422
313.9373, 3008.633
314.4195, 2987.273
314.9016, 2987.500
315.3837, 3005.582
315.8658, 2987.887
316.3479, 2890.309
316.8300, 2784.738
317.3121, 2738.234
317.7943, 2746.609
318.2764, 2745.953
318.7585, 2691.031
319.2406, 2594.957
319.7227, 2523.312
320.2048, 2494.301
320.6870, 2468.777
321.1691, 2429.688
321.6512, 2378.012
322.1333, 2316.379
322.6154, 2241.816
323.0975, 2163.895
323.5797, 2105.152
324.0618, 2073.992
324.5439, 2040.848
325.0260, 1983.105
325.5081, 1918.133
325.9902, 1885.961
326.4724, 1904.742
326.9545, 1939.828
327.4366, 1933.906
327.9187, 1879.852
328.4008, 1834.492
328.8829, 1817.359
329.3651, 1809.219
329.8472, 1788.039
330.3293, 1749.867
330.8114, 1701.297
331.2935, 1643.234
331.7756, 1574.594
332.2578, 1533.039
332.7399, 1541.422
333.2220, 1559.375
333.7041, 1554.289
334.1862, 1527.273
334.6683, 1509.703
335.1505, 1529.211
335.6326, 1576.406
336.1147, 1578.984
336.5968, 1513.430
337.0789, 1436.484
337.5610, 1371.359
338.0432, 1313.805
338.5253, 1250.617
339.0074, 1174.906
339.4895, 1092.078
339.9716, 1017.633
340.4537, 962.1953
340.9359, 894.9375
341.4180, 790.6250
341.9001, 678.4375
342.3822, 601.8281
342.8643, 572.7578
343.3464, 559.3594
343.8286, 517.5156
344.3107, 436.5859
344.7928, 353.1328
345.2749, 251.9219
345.7570, 158.0547
346.2391, 96.79688
346.7213, 66.10156
347.2034, 43.13281
347.6855, 8.445313
348.1676, 37.31250
348.6497, 105.4297
349.1318, 224.9219
349.6140, 333.5391
350.0961, 400.7969
350.5782, 436.6719
351.0603, 466.4531
351.5424, 505.6953
352.0245, 550.3984
352.5067, 581.4453
352.9888, 589.4219
353.4709, 596.2266
353.9530, 607.5234
354.4351, 618.4688
354.9172, 617.8750
355.3994, 602.9375
355.8815, 588.6094
356.3636, 600.1016
356.8457, 661.3516
357.3278, 700.7031
357.8099, 707.0781
358.2920, 702.5391
358.7741, 701.8047
359.2563, 705.9219
359.7384, 710.1562
360.2205, 707.7812
360.7026, 697.0938
361.1847, 696.3281
361.6668, 709.2422
362.1490, 728.2812
362.6311, 757.7656
363.1132, 790.2266
363.5953, 816.4844
364.0774, 830.6797
364.5595, 834.0547
365.0417, 830.8359
365.5238, 812.2578
366.0059, 799.3672
366.4880, 811.2109
366.9701, 822.1094
367.4522, 796.8047
367.9344, 728.3203
368.4165, 653.2266
368.8986, 631.5469
369.3807, 687.7734
369.8628, 732.2891
370.3449, 758.2656
370.8271, 774.9609
371.3092, 779.8984
371.7913, 776.8984
372.2734, 772.4922
372.7555, 772.7344
373.2376, 777.3594
373.7198, 786.6328
374.2019, 827.3516
374.6840, 838.3125
375.1661, 776.8594
375.6482, 676.8125
376.1303, 597.5078
376.6125, 571.8125
377.0946, 572.0156
377.5767, 533.2188
378.0588, 446.1641
378.5409, 343.7500
379.0230, 225.7891
379.5052, 102.7734
379.9873, 13.08594
380.4694, 119.3750
380.9515, 236.0156
381.4336, 390.2812
381.9157, 582.2578
382.3979, 754.3047
382.8800, 877.1797
383.3621, 1002.938
383.8442, 1167.906
384.3263, 1365.828
384.8084, 1580.883
385.2906, 1805.312
385.7727, 2033.828
386.2548, 2261.703
386.7369, 2488.867
387.2190, 2714.023
387.7011, 2926.078
388.1833, 3139.875
388.6654, 3381.867
389.1475, 3669.266
389.6296, 3963.227
390.1117, 4217.188
390.5938, 4443.000
391.0760, 4707.086
391.5581, 5040.000
392.0402, 5410.180
392.5223, 5777.711
393.0044, 6143.938
393.4865, 6511.609
393.9687, 6869.867
394.4508, 7229.930
394.9329, 7607.891
395.4150, 8012.711
395.8971, 8421.641
396.3792, 8815.336
396.8614, 9195.773
397.3435, 9593.703
397.8256, 10033.70
398.3077, 10477.63
398.7898, 10894.56
399.2719, 11290.78
399.7540, 11696.30
400.2361, 12126.01
400.7183, 12578.72
401.2004, 13040.94
401.6825, 13521.40
402.1646, 13990.15
402.6467, 14440.46
403.1288, 14876.91
403.6110, 15293.49
404.0931, 15690.66
404.5752, 16100.72
405.0573, 16567.47
405.5394, 17109.14
406.0215, 17587.41
406.5037, 17947.66
406.9858, 18298.05
407.4679, 18693.52
407.9500, 19129.63
408.4321, 19582.23
408.9142, 20043.93
409.3964, 20508.49
409.8785, 20961.90
410.3606, 21396.21
410.8427, 21828.76
411.3248, 22256.09
411.8069, 22684.34
412.2891, 23125.16
412.7712, 23580.10
413.2533, 24034.09
413.7354, 24462.33
414.2175, 24856.86
414.6996, 25258.10
415.1818, 25681.50
415.6639, 26098.52
416.1460, 26485.53
416.6281, 26858.69
417.1102, 27243.36
417.5923, 27657.17
418.0745, 28099.31
418.5566, 28584.71
419.0387, 29142.48
419.5208, 29668.51
420.0029, 30113.54
420.4850, 30520.14
420.9672, 30919.38
421.4493, 31318.16
421.9314, 31713.41
422.4135, 32102.21
422.8956, 32483.92
423.3777, 32861.64
423.8599, 33241.22
424.3420, 33605.64
424.8241, 33933.55
425.3062, 34238.62
425.7883, 34569.27
426.2704, 34964.13
426.7526, 35387.09
427.2347, 35771.66
427.7168, 36117.98
428.1989, 36492.00
428.6810, 36957.41
429.1631, 37455.93
429.6453, 37857.53
430.1274, 38129.00
430.6095, 38379.00
431.0916, 38647.89
431.5737, 38932.22
432.0558, 39229.05
432.5380, 39537.20
433.0201, 39855.06
433.5022, 40185.67
433.9843, 40529.70
434.4664, 40841.74
434.9485, 41127.94
435.4307, 41372.88
435.9128, 41546.20
436.3949, 41664.26
436.8770, 41785.42
437.3591, 41947.73
437.8412, 42129.52
438.3234, 42245.12
438.8055, 42228.93
439.2876, 42230.53
439.7697, 42260.17
440.2518, 42312.55
440.7339, 42408.48
441.2160, 42538.69
441.6982, 42637.19
442.1803, 42622.66
442.6624, 42481.04
443.1445, 42333.22
443.6266, 42191.91
444.1087, 42031.31
444.5909, 41838.77
445.0730, 41623.12
445.5551, 41397.11
446.0372, 41169.05
446.5193, 40933.34
447.0014, 40676.28
447.4836, 40394.12
447.9657, 40102.22
448.4478, 39814.39
448.9299, 39507.05
449.4120, 39148.16
449.8941, 38743.56
450.3763, 38347.73
450.8584, 38025.76
451.3405, 37751.26
451.8226, 37411.70
452.3047, 36983.20
452.7868, 36547.67
453.2690, 36165.22
453.7511, 35802.12
454.2332, 35404.23
454.7153, 34941.49
455.1974, 34480.17
455.6795, 34085.72
456.1617, 33742.91
456.6438, 33374.14
457.1259, 32950.31
457.6080, 32508.42
458.0901, 32095.38
458.5722, 31711.01
459.0544, 31332.88
459.5365, 30939.09
460.0186, 30565.72
460.5007, 30261.89
460.9828, 30017.11
461.4649, 29762.69
461.9471, 29448.91
462.4292, 29099.60
462.9113, 28804.23
463.3934, 28594.02
463.8755, 28393.28
464.3576, 28165.41
464.8398, 27954.91
465.3219, 27816.41
465.8040, 27754.51
466.2861, 27724.80
466.7682, 27675.91
467.2503, 27599.80
467.7325, 27568.11
468.2146, 27626.09
468.6967, 27678.84
469.1788, 27682.95
469.6609, 27670.42
470.1430, 27689.20
470.6252, 27760.34
471.1073, 27871.70
471.5894, 28004.86
472.0715, 28162.31
472.5536, 28333.66
473.0357, 28522.30
473.5179, 28722.83
474.0000, 28927.81
474.4821, 29140.76
474.9642, 29377.58
475.4463, 29652.73
475.9284, 29955.91
476.4106, 30268.29
476.8927, 30589.80
477.3748, 30915.81
477.8569, 31231.54
478.3390, 31558.68
478.8211, 31928.02
479.3033, 32346.44
479.7854, 32783.77
480.2675, 33232.37
480.7496, 33686.84
481.2317, 34136.87
481.7138, 34579.64
482.1959, 35027.73
482.6780, 35497.64
483.1602, 35987.66
483.6423, 36460.97
484.1244, 36903.92
484.6065, 37344.96
485.0886, 37791.45
485.5707, 38246.30
486.0529, 38719.09
486.5350, 39214.00
487.0171, 39709.63
487.4992, 40166.59
487.9813, 40572.42
488.4634, 40977.93
488.9456, 41378.99
489.4277, 41784.23
489.9098, 42203.19
490.3919, 42628.88
490.8740, 43049.20
491.3561, 43459.28
491.8383, 43851.97
492.3204, 44203.12
492.8025, 44499.88
493.2846, 44791.89
493.7667, 45096.77
494.2488, 45396.22
494.7310, 45681.06
495.2131, 45948.92
495.6952, 46197.98
496.1773, 46424.95
496.6594, 46631.02
497.1415, 46827.33
497.6237, 47021.61
498.1058, 47166.97
498.5879, 47223.89
499.0700, 47214.04
499.5521, 47183.74
500.0342, 47128.84
500.5164, 47066.80
500.9985, 47000.59
501.4806, 46931.86
501.9627, 46868.53
502.4448, 46814.31
502.9269, 46731.12
503.4091, 46584.50
503.8912, 46368.53
504.3733, 46112.64
504.8554, 45820.52
505.3375, 45490.45
505.8196, 45099.22
506.3018, 44675.73
506.7839, 44277.52
507.2660, 43922.27
507.7481, 43559.94
508.2302, 43112.20
508.7123, 42549.72
509.1945, 42010.14
509.6766, 41549.83
510.1587, 41057.08
510.6408, 40483.23
511.1229, 39842.82
511.6050, 39160.31
512.0872, 38437.09
512.5693, 37706.48
513.0514, 37042.69
513.5335, 36456.27
514.0156, 35822.36
514.4977, 35092.82
514.9799, 34324.22
515.4620, 33561.62
515.9441, 32803.42
516.4262, 32048.27
516.9083, 31293.49
517.3904, 30536.91
517.8726, 29771.62
518.3547, 28998.89
518.8368, 28229.40
519.3189, 27472.17
519.8010, 26714.28
520.2831, 25946.26
520.7653, 25163.12
521.2474, 24377.95
521.7295, 23593.20
522.2116, 22808.34
522.6937, 22026.02
523.1758, 21253.89
523.6580, 20493.88
524.1401, 19751.07
524.6222, 19028.66
525.1043, 18321.26
525.5864, 17665.09
526.0685, 16982.61
526.5507, 16222.12
527.0328, 15461.62
527.5149, 14776.89
527.9970, 14170.16
528.4791, 13582.44
528.9612, 12960.51
529.4434, 12313.14
529.9255, 11682.26
530.4076, 11071.09
530.8897, 10478.72
531.3718, 9895.453
531.8539, 9336.680
532.3361, 8816.609
532.8182, 8342.539
533.3003, 7879.938
533.7824, 7392.680
534.2645, 6903.781
534.7466, 6453.320
535.2288, 6046.531
535.7109, 5660.211
536.1930, 5284.445
536.6751, 4916.539
537.1572, 4553.023
537.6393, 4152.953
538.1215, 3804.094
538.6036, 3561.617
539.0857, 3365.016
539.5678, 3142.211
540.0499, 2878.938
540.5320, 2595.648
541.0142, 2312.305
541.4963, 2027.719
541.9784, 1773.547
542.4604, 1566.820
542.9426, 1373.992
543.4247, 1200.695
543.9068, 1032.352
544.3889, 853.1953
544.8710, 659.0312
545.3531, 463.8281
545.8353, 281.0391
546.3174, 111.0234
546.7995, 17.44531
547.2816, 85.39062
547.7637, 147.4453
548.2458, 247.2812
548.7280, 361.1484
549.2101, 452.3359
549.6922, 503.4297
550.1743, 551.9453
550.6564, 622.7109
551.1385, 707.2578
551.6207, 798.1406
552.1028, 895.0078
552.5849, 977.4062
553.0670, 1021.789
553.5491, 1028.391
554.0313, 1043.812
554.5134, 1076.844
554.9955, 1106.531
555.4776, 1131.117
555.9597, 1149.617
556.4418, 1155.336
556.9240, 1148.668
557.4061, 1134.707
557.8882, 1122.266
558.3703, 1110.496
558.8524, 1091.809
559.3345, 1056.340
559.8167, 1026.367
560.2988, 1016.871
560.7809, 1013.898
561.2630, 1003.367
561.7451, 981.2148
562.2272, 953.4180
562.7094, 922.8203
563.1915, 889.7930
563.6736, 859.1133
564.1557, 835.1797
564.6378, 804.9922
565.1199, 753.5703
565.6021, 687.4883
566.0842, 638.4727
566.5663, 619.3359
567.0484, 597.9062
567.5305, 560.6719
568.0126, 515.4648
568.4948, 473.4688
568.9769, 435.2305
569.4590, 399.3711
569.9411, 362.1445
570.4232, 324.3164
570.9053, 284.6875
571.3875, 229.7305
571.8696, 192.7852
572.3517, 205.7695
572.8338, 222.4805
573.3159, 198.0039
573.7980, 127.9531
574.2802, 41.73047
574.7623, 41.79297
575.2444, 120.6406
575.7265, 185.8203
576.2086, 235.6406
576.6907, 280.4297
577.1729, 327.2812
577.6550, 372.4062
578.1371, 407.3633
578.6192, 426.5898
579.1013, 459.2266
579.5834, 530.7070
580.0656, 613.0195
580.5477, 667.6523
581.0298, 696.7891
581.5119, 730.8008
581.9940, 788.8398
582.4761, 865.7305
582.9583, 943.4258
583.4404, 1025.645
583.9225, 1101.477
584.4046, 1170.484
584.8867, 1232.180
585.3688, 1279.625
585.8510, 1318.488
586.3331, 1365.602
586.8152, 1434.406
587.2973, 1512.453
587.7794, 1569.801
588.2615, 1602.012
588.7437, 1642.324
589.2258, 1702.992
589.7079, 1768.941
590.1900, 1836.113
590.6721, 1901.059
591.1542, 1940.234
591.6364, 1922.094
592.1185, 1897.039
592.6006, 1911.285
593.0827, 1956.637
593.5648, 2007.352
594.0469, 2055.578
594.5291, 2100.801
595.0112, 2140.023
595.4933, 2169.117
595.9754, 2212.422
596.4575, 2291.520
596.9396, 2359.367
597.4218, 2395.004
597.9039, 2410.297
598.3860, 2418.008
598.8681, 2422.977
599.3502, 2435.871
599.8323, 2469.598
600.3145, 2523.012
600.7966, 2584.578
601.2787, 2655.949
601.7608, 2730.969
602.2429, 2813.445
602.7250, 2894.742
603.2072, 2962.285
603.6893, 3010.637
604.1714, 3054.625
604.6535, 3096.797
605.1356, 3139.570
605.6177, 3187.355
606.0999, 3239.980
606.5820, 3295.770
607.0641, 3356.711
607.5462, 3419.430
608.0283, 3463.648
608.5104, 3460.523
608.9926, 3479.312
609.4747, 3546.512
609.9568, 3615.242
610.4389, 3652.777
610.9210, 3662.609
611.4031, 3666.988
611.8853, 3676.875
612.3674, 3691.570
612.8495, 3712.930
613.3316, 3741.980
613.8137, 3761.152
614.2958, 3761.469
614.7780, 3758.070
615.2601, 3762.953
615.7422, 3775.312
616.2243, 3796.453
616.7064, 3837.418
617.1885, 3877.895
617.6707, 3899.633
618.1528, 3910.645
618.6349, 3933.484
619.1170, 3974.305
619.5991, 4008.609
620.0812, 4002.328
620.5634, 3949.840
621.0455, 3937.797
621.5276, 4010.758
622.0097, 4070.262
622.4918, 4087.113
622.9739, 4087.855
623.4561, 4099.453
623.9382, 4126.316
624.4203, 4155.621
624.9023, 4181.785
625.3845, 4204.352
625.8666, 4217.941
626.3487, 4221.125
626.8308, 4227.984
627.3129, 4247.480
627.7950, 4271.852
628.2772, 4285.457
628.7593, 4287.770
629.2414, 4287.617
629.7235, 4279.090
630.2056, 4269.730
630.6877, 4261.301
631.1699, 4259.754
631.6520, 4277.453
632.1341, 4319.953
632.6162, 4372.930
633.0983, 4414.637
633.5804, 4445.520
634.0626, 4455.715
634.5447, 4418.523
635.0268, 4395.887
635.5089, 4425.309
635.9910, 4481.070
636.4731, 4523.652
636.9553, 4542.910
637.4374, 4559.086
637.9195, 4583.238
638.4016, 4613.211
638.8837, 4651.863
639.3658, 4698.770
639.8480, 4729.098
640.3301, 4721.891
640.8122, 4691.262
641.2943, 4684.852
641.7764, 4720.539
642.2585, 4754.148
642.7407, 4783.098
643.2228, 4810.918
643.7049, 4841.199
644.1870, 4872.387
644.6691, 4900.566
645.1512, 4923.918
645.6334, 4943.000
646.1155, 4959.387
646.5976, 4973.297
647.0797, 4980.074
647.5618, 4977.148
648.0439, 4971.660
648.5261, 4968.387
649.0082, 4966.242
649.4903, 4963.496
649.9724, 4955.074
650.4545, 4955.016
650.9366, 4983.961
651.4188, 5017.336
651.9009, 5019.516
652.3830, 4990.895
652.8651, 4963.961
653.3472, 4964.082
653.8293, 4981.742
654.3115, 4978.082
654.7936, 4937.531
655.2757, 4910.918
655.7578, 4923.777
656.2399, 4933.793
656.7220, 4914.211
657.2042, 4872.699
657.6863, 4835.457
658.1684, 4813.219
658.6505, 4798.723
659.1326, 4794.023
659.6147, 4791.207
660.0969, 4763.086
660.5790, 4703.148
661.0611, 4640.617
661.5432, 4601.609
662.0253, 4583.535
662.5074, 4558.867
662.9896, 4530.305
663.4717, 4491.637
663.9538, 4423.203
664.4359, 4358.152
664.9180, 4332.129
665.4001, 4338.238
665.8823, 4336.234
666.3644, 4296.762
666.8465, 4237.469
667.3286, 4192.102
667.8107, 4161.328
668.2928, 4117.969
668.7750, 4047.227
669.2571, 3979.203
669.7392, 3952.129
670.2213, 3959.906
670.7034, 3939.352
671.1855, 3865.578
671.6677, 3790.625
672.1498, 3729.582
672.6319, 3676.543
673.1140, 3625.410
673.5961, 3576.027
674.0782, 3533.078
674.5604, 3502.605
675.0425, 3475.621
675.5246, 3418.844
676.0067, 3323.211
676.4888, 3237.188
676.9709, 3167.727
677.4531, 3114.754
677.9352, 3088.461
678.4173, 3078.512
678.8994, 3049.066
679.3815, 2981.809
679.8636, 2908.852
680.3458, 2839.188
680.8279, 2778.977
681.3100, 2748.078
681.7921, 2744.895
682.2742, 2729.352
682.7563, 2665.227
683.2385, 2565.562
683.7206, 2495.652
684.2027, 2469.180
684.6848, 2442.148
685.1669, 2413.539
685.6490, 2378.723
686.1312, 2330.379
686.6133, 2272.863
687.0954, 2219.305
687.5775, 2178.523
688.0596, 2136.625
688.5417, 2072.820
689.0239, 2000.492
689.5060, 1957.043
689.9881, 1948.383
690.4702, 1939.641
690.9523, 1901.473
691.4344, 1841.500
691.9166, 1797.578
692.3987, 1787.727
692.8808, 1764.770
693.3629, 1718.980
693.8450, 1667.961
694.3271, 1619.266
694.8093, 1573.777
695.2914, 1532.109
695.7735, 1495.723
696.2556, 1459.016
696.7377, 1411.363
697.2198, 1357.715
697.7020, 1318.609
698.1841, 1298.508
698.6662, 1272.355
699.1483, 1219.906
699.6304, 1150.004
700.1125, 1096.695
700.5947, 1075.164
701.0768, 1047.996
701.5589, 1014.473
702.0410, 976.0000
702.5231, 930.7422
703.0052, 882.0195
703.4874, 834.4414
703.9695, 790.0859
704.4516, 751.2891
704.9337, 721.8555
705.4158, 701.1719
705.8979, 687.6328
706.3801, 682.3359
706.8622, 675.3672
707.3442, 661.3242
707.8264, 640.9609
708.3085, 615.4414
708.7906, 580.7305
709.2727, 550.3047
709.7548, 530.0820
710.2369, 508.6562
710.7191, 479.9961
711.2012, 445.0273
711.6833, 401.7461
712.1654, 349.8398
712.6475, 307.3516
713.1296, 303.0664
713.6118, 328.5820
714.0939, 337.5547
714.5760, 328.3438
715.0581, 304.8750
715.5402, 262.0312
716.0223, 213.5078
716.5045, 183.5273
716.9866, 175.2773
717.4687, 165.3203
717.9508, 154.9531
718.4329, 139.1016
718.9150, 111.6953
719.3972, 78.54688
719.8793, 44.48438
720.3614, 12.28906
720.8435, 10.56641
721.3256, 11.84766
721.8077, 0.8476560
722.2899, 7.152344
722.7720, 40.48438
723.2541, 54.61719
723.7362, 23.22266
724.2183, 14.59375
724.7004, 7.703125
725.1826, 42.76953
725.6647, 77.04688
726.1468, 78.28516
726.6289, 79.09375
727.1110, 97.19141
727.5931, 117.2422
728.0753, 121.8945
728.5574, 109.2070
729.0395, 85.38281
729.5216, 50.75000
730.0037, 15.64062
730.4858, 7.710938
730.9680, 28.16016
731.4501, 44.82031
731.9322, 53.46484
732.4143, 52.46484
732.8964, 35.59375
733.3785, 7.332031
733.8607, 9.019531
734.3428, 1.714844
734.8249, 0.4296880
735.3070, 18.10156
735.7891, 38.55078
736.2712, 42.72656
736.7534, 37.85156
737.2355, 49.93359
737.7176, 93.78906
738.1997, 143.5078
738.6818, 155.2422
739.1639, 134.0977
739.6461, 131.1172
740.1282, 153.5820
740.6103, 178.7812
741.0924, 196.9570
741.5745, 207.8789
742.0566, 207.3398
742.5388, 186.1641
743.0209, 185.9531
743.5030, 230.7734
743.9851, 275.8008
744.4672, 290.1172
744.9493, 291.7852
745.4315, 312.0742
745.9136, 359.1172
746.3957, 413.6211
746.8778, 458.0625
747.3599, 493.7734
747.8420, 526.2969
748.3242, 556.0078
748.8063, 579.9180
749.2884, 595.4492
749.7705, 607.9297
750.2526, 622.9414
750.7347, 640.2891
751.2169, 665.7500
751.6990, 711.6055
752.1811, 748.3867
752.6632, 761.1094
753.1453, 766.7773
753.6274, 778.9766
754.1096, 800.8516
754.5917, 833.3047
755.0738, 880.2695
755.5559, 932.4062
756.0380, 978.1055
756.5201, 1016.766
757.0023, 1045.062
757.4844, 1061.910
757.9665, 1077.094
758.4486, 1096.406
758.9307, 1121.207
759.4128, 1156.328
759.8950, 1212.660
760.3771, 1259.512
760.8592, 1299.594
761.3413, 1327.508
761.8234, 1331.117
762.3055, 1324.102
762.7877, 1327.828
763.2698, 1348.332
763.7519, 1375.078
764.2340, 1404.699
764.7161, 1433.363
765.1982, 1457.441
765.6804, 1475.648
766.1625, 1479.289
766.6446, 1464.277
767.1267, 1443.230
767.6088, 1431.598
768.0909, 1429.438
768.5731, 1438.035
769.0552, 1466.430
769.5373, 1490.617
770.0194, 1498.586
770.5015, 1505.789
770.9836, 1533.633
771.4658, 1575.121
771.9479, 1590.836
772.4300, 1544.609
772.9121, 1498.266
773.3942, 1506.754
773.8763, 1537.664
774.3585, 1536.574
774.8406, 1501.254
775.3227, 1469.645
775.8048, 1467.926
776.2869, 1480.609
776.7690, 1467.352
777.2512, 1422.180
777.7333, 1393.223
778.2154, 1391.418
778.6975, 1392.070
779.1796, 1383.113
779.6617, 1368.840
780.1439, 1354.500
780.6260, 1338.777
781.1081, 1325.383
781.5902, 1327.789
782.0723, 1322.672
782.5544, 1284.809
783.0366, 1229.738
783.5187, 1184.629
784.0008, 1158.141
784.4829, 1142.551
784.9650, 1132.223
785.4471, 1124.941
785.9293, 1118.633
786.4114, 1114.180
786.8935, 1097.699
787.3756, 1065.801
787.8577, 1019.203
788.3398, 948.5234
788.8220, 860.1719
789.3040, 814.8438
789.7861, 863.6211
790.2682, 881.1406
790.7504, 841.5469
791.2325, 784.6328
791.7146, 719.4570
792.1967, 659.8008
792.6788, 633.7930
793.1609, 655.5820
793.6431, 677.6914
794.1252, 658.4297
794.6073, 610.9414
795.0894, 551.8672
795.5715, 485.6016
796.0536, 433.2852
796.5358, 403.9023
797.0179, 384.1797
797.5000, 356.8711
797.9821, 321.5781
798.4642, 283.7266
798.9464, 240.8672
799.4285, 199.2227
799.9106, 158.4922
800.3927, 121.0469
800.8748, 90.16406
801.3569, 65.21875
801.8391, 42.00000
802.3212, 21.35547
802.8033, 0.3632810
803.2854, 35.65234
803.7675, 65.80859
804.2496, 59.19141
804.7318, 24.12891
805.2139, 1.968750
805.6960, 1.476563
806.1781, 21.27734
806.6602, 37.14844
807.1423, 49.73828
807.6245, 69.63281
808.1066, 99.24219
808.5887, 127.2617
809.0708, 151.8477
809.5529, 167.8242
810.0350, 163.7930
810.5172, 134.5742
810.9993, 119.9258
811.4814, 126.0195
811.9635, 138.4727
812.4456, 165.5000
812.9277, 188.4844
813.4099, 188.9023
813.8920, 167.7695
814.3741, 137.6406
814.8562, 101.3164
815.3383, 65.91406
815.8204, 37.51953
816.3026, 16.44531
816.7847, 8.488281
817.2668, 11.76953
817.7489, 6.539063
818.2310, 18.79688
818.7131, 56.54688
819.1953, 91.75781
819.6774, 122.9570
820.1595, 161.3008
820.6416, 215.2070
821.1237, 260.2578
821.6058, 275.3242
822.0880, 285.2188
822.5701, 317.3242
823.0522, 371.4102
823.5343, 429.8672
824.0164, 501.1680
824.4985, 561.5234
824.9807, 590.0547
825.4628, 609.5312
825.9449, 644.1641
826.4270, 695.2617
826.9091, 752.8320
827.3912, 812.4883
827.8734, 872.0781
828.3555, 928.3750
828.8376, 982.0781
829.3197, 1037.066
829.8018, 1093.441
830.2839, 1146.176
830.7661, 1192.902
831.2482, 1233.422
831.7303, 1266.281
832.2124, 1289.082
832.6945, 1320.848
833.1766, 1368.664
833.6588, 1414.777
834.1409, 1449.195
834.6230, 1484.824
835.1051, 1537.445
835.5872, 1602.582
836.0693, 1656.629
836.5515, 1681.961
837.0336, 1711.512
837.5157, 1766.953
837.9978, 1834.121
838.4799, 1902.094
838.9620, 1966.332
839.4442, 2019.332
839.9263, 2057.488
840.4084, 2088.301
840.8905, 2119.812
841.3726, 2152.418
841.8547, 2189.027
842.3369, 2229.961
842.8190, 2266.957
843.3011, 2294.520
843.7832, 2324.012
844.2653, 2371.680
844.7474, 2436.590
845.2296, 2481.891
845.7117, 2476.758
846.1938, 2496.754
846.6759, 2569.449
847.1580, 2648.281
847.6401, 2704.781
848.1223, 2744.871
848.6044, 2785.117
849.0865, 2828.945
849.5686, 2876.629
850.0507, 2935.945
850.5328, 2993.527
851.0150, 3028.855
851.4971, 3052.949
851.9792, 3100.453
852.4613, 3177.734
852.9434, 3242.359
853.4255, 3243.496
853.9077, 3207.211
854.3898, 3218.582
854.8719, 3277.527
855.3540, 3335.625
855.8361, 3383.895
856.3182, 3425.531
856.8004, 3461.410
857.2825, 3492.852
857.7646, 3524.867
858.2467, 3558.426
858.7288, 3589.637
859.2109, 3611.449
859.6931, 3638.891
860.1752, 3686.367
860.6573, 3737.359
861.1394, 3767.363
861.6215, 3775.402
862.1036, 3793.367
862.5858, 3848.801
863.0679, 3903.562
863.5500, 3926.629
864.0321, 3935.371
864.5142, 3954.973
864.9963, 3986.703
865.4785, 4016.578
865.9606, 4036.328
866.4427, 4049.520
866.9248, 4058.211
867.4069, 4064.480
867.8890, 4081.602
868.3712, 4111.273
868.8533, 4137.434
869.3354, 4151.625
869.8175, 4164.004
870.2996, 4190.223
870.7817, 4230.633
871.2639, 4249.934
871.7459, 4228.918
872.2280, 4222.543
872.7101, 4253.883
873.1923, 4289.234
873.6744, 4310.484
874.1565, 4319.805
874.6386, 4322.914
875.1207, 4318.949
875.6028, 4314.125
876.0850, 4307.191
876.5671, 4303.664
877.0492, 4313.516
877.5313, 4328.219
878.0134, 4331.582
878.4955, 4320.996
878.9777, 4308.734
879.4598, 4300.422
879.9419, 4300.363
880.4240, 4319.930
880.9061, 4354.090
881.3882, 4387.715
881.8704, 4417.758
882.3525, 4434.582
882.8346, 4430.449
883.3167, 4415.699
883.7988, 4413.039
884.2809, 4425.852
884.7631, 4430.492
885.2452, 4425.859
885.7273, 4414.625
886.2094, 4393.852
886.6915, 4369.742
887.1736, 4345.262
887.6558, 4321.188
888.1379, 4311.184
888.6200, 4327.816
889.1021, 4340.137
889.5842, 4345.535
890.0663, 4343.238
890.5485, 4329.965
891.0306, 4309.848
891.5127, 4291.020
891.9948, 4275.270
892.4769, 4256.445
892.9590, 4234.168
893.4412, 4205.496
893.9233, 4160.504
894.4054, 4108.438
894.8875, 4067.918
895.3696, 4043.297
895.8517, 4030.840
896.3339, 4030.074
896.8160, 4032.867
897.2981, 4021.832
897.7802, 3998.062
898.2623, 3976.902
898.7444, 3960.977
899.2266, 3927.320
899.7087, 3858.801
900.1908, 3783.367
900.6729, 3746.785
901.1550, 3752.637
901.6371, 3723.582
902.1193, 3632.840
902.6014, 3558.488
903.0835, 3518.539
903.5656, 3493.801
904.0477, 3484.051
904.5298, 3478.844
905.0120, 3448.012
905.4941, 3376.062
905.9762, 3317.023
906.4583, 3297.617
906.9404, 3277.074
907.4225, 3235.652
907.9047, 3177.277
908.3868, 3100.758
908.8689, 3012.367
909.3510, 2937.578
909.8331, 2895.801
910.3152, 2868.227
910.7974, 2843.297
911.2795, 2812.766
911.7616, 2755.340
912.2437, 2677.473
912.7258, 2614.312
913.2079, 2582.160
913.6901, 2561.270
914.1722, 2527.988
914.6543, 2482.855
915.1364, 2421.070
915.6185, 2340.840
916.1006, 2282.520
916.5828, 2260.965
917.0649, 2238.680
917.5470, 2181.594
918.0291, 2101.797
918.5112, 2041.172
918.9933, 2003.941
919.4755, 1970.891
919.9576, 1959.266
920.4397, 1929.180
920.9218, 1850.898
921.4039, 1754.801
921.8860, 1670.199
922.3682, 1598.309
922.8503, 1540.223
923.3324, 1509.609
923.8145, 1475.930
924.2966, 1429.848
924.7787, 1376.832
925.2609, 1315.723
925.7430, 1255.039
926.2251, 1209.922
926.7072, 1183.191
927.1893, 1160.480
927.6714, 1137.848
928.1536, 1113.410
928.6357, 1080.336
929.1178, 1043.316
929.5999, 1013.742
930.0820, 991.1016
930.5641, 964.1758
931.0463, 926.3438
931.5284, 885.1797
932.0105, 852.4062
932.4926, 827.4805
932.9747, 806.4062
933.4568, 787.7148
933.9390, 757.5625
934.4211, 709.6133
934.9032, 656.5039
935.3853, 613.3633
935.8674, 579.2422
936.3495, 543.4492
936.8317, 503.1406
937.3138, 478.9180
937.7959, 479.8320
938.2780, 481.1562
938.7601, 467.4961
939.2422, 445.8203
939.7244, 428.3242
940.2065, 413.6719
940.6886, 403.7422
941.1707, 418.5273
941.6528, 413.4883
942.1349, 355.9648
942.6171, 294.2617
943.0992, 269.0938
943.5813, 268.9805
944.0634, 258.1719
944.5455, 226.2969
945.0276, 201.4062
945.5098, 193.8906
945.9919, 193.7695
946.4740, 206.0859
946.9561, 216.9062
947.4382, 202.1641
947.9203, 164.4922
948.4025, 132.5234
948.8846, 120.4844
949.3667, 124.5742
949.8488, 154.2109
950.3309, 188.3008
950.8130, 190.2188
951.2952, 166.9766
951.7773, 148.4570
952.2594, 144.4375
952.7415, 144.1367
953.2236, 137.6797
953.7057, 127.0352
954.1878, 115.0664
954.6699, 102.9805
955.1520, 99.38281
955.6342, 105.5234
956.1163, 114.1406
956.5984, 120.8633
957.0805, 129.1797
957.5626, 147.0078
958.0447, 174.5977
958.5269, 189.0898
959.0090, 190.5859
959.4911, 178.5469
959.9732, 143.6641
960.4553, 117.6836
960.9374, 129.3281
961.4196, 163.4062
961.9017, 178.4766
962.3838, 170.2383
962.8659, 155.3867
963.3480, 112.3945
963.8301, 90.75781
964.3123, 114.6836
964.7944, 155.8750
965.2765, 199.1484
965.7586, 239.2500
966.2407, 257.5273
966.7228, 245.6602
967.2050, 223.3047
967.6871, 179.8672
968.1692, 145.3672
968.6513, 146.4297
969.1334, 161.0039
969.6155, 158.8203
970.0977, 137.8008
970.5798, 117.0742
971.0619, 105.5312
971.5440, 96.37500
972.0261, 84.16406
972.5082, 73.62109
972.9904, 71.47656
973.4725, 74.86719
973.9546, 77.30469
974.4367, 76.32812
974.9188, 70.86328
975.4009, 52.76562
975.8831, 36.95312
976.3652, 48.95312
976.8473, 76.26172
977.3294, 90.99609
977.8115, 93.03516
978.2936, 99.71094
978.7758, 119.4609
979.2579, 142.3438
979.7400, 158.4844
980.2221, 167.5625
980.7042, 162.2305
981.1863, 145.1797
981.6685, 144.1758
982.1506, 164.5820
982.6327, 164.3516
983.1148, 112.4258
983.5969, 40.97656
984.0790, 14.37891
984.5612, 33.16016
985.0433, 34.30469
985.5254, 13.28906
986.0075, 0.6640630
986.4896, 3.652344
986.9717, 20.27344
987.4539, 54.48438
987.9360, 95.72266
988.4181, 111.0273
988.9002, 95.64844
989.3823, 67.62109
989.8644, 13.91797
990.3466, 28.49219
990.8287, 50.50000
991.3108, 53.25391
991.7929, 29.58203
992.2750, 13.91797
992.7571, 39.57812
993.2393, 45.58203
993.7214, 38.20312
994.2035, 8.183594
994.6856, 23.42188
995.1677, 54.19531
995.6498, 77.43359
996.1320, 87.05859
996.6141, 83.35547
997.0962, 69.69922
997.5783, 31.32031
998.0604, 9.535156
998.5425, 36.46094
999.0247, 59.96484
999.5068, 41.27734
999.9889, 5.269531
1000.471, 15.02734
1000.953, 14.98438
1001.435, 0.6757810
1001.917, 42.30469
1002.399, 75.26562
1002.882, 65.53125
1003.364, 45.07031
1003.846, 40.39453
1004.328, 48.51562
1004.810, 56.45312
1005.292, 62.63672
1005.774, 79.36719
1006.256, 121.8047
1006.739, 164.9570
1007.221, 180.9297
1007.703, 184.2305
1008.185, 197.9141
1008.667, 220.1016
1009.149, 236.5547
1009.631, 242.2578
1010.113, 242.3984
1010.595, 239.5430
1011.078, 237.3203
1011.560, 241.9531
1012.042, 251.1953
1012.524, 263.8398
1013.006, 276.4766
1013.488, 274.4922
1013.970, 251.4688
1014.452, 223.0391
1014.935, 204.5312
1015.417, 195.2461
1015.899, 193.8477
1016.381, 200.1289
1016.863, 217.7969
1017.345, 246.0625
1017.827, 263.2617
1018.309, 256.8516
1018.791, 242.4414
1019.274, 244.1641
1019.756, 257.7969
1020.238, 254.8555
1020.720, 236.6406
1021.202, 236.0547
1021.684, 258.5078
1022.166, 285.6250
1022.648, 310.4727
1023.130, 316.9062
1023.613, 269.4883
1024.095, 174.4648
1024.577, 135.9883
1025.059, 163.9961
1025.541, 177.8242
1026.023, 160.0469
1026.505, 134.6992
1026.987, 116.9727
1027.469, 102.3984
1027.952, 81.76172
1028.434, 53.69141
1028.916, 34.30859
1029.398, 22.60547
1029.880, 24.09375
1030.362, 42.57812
1030.844, 65.75781
1031.326, 89.25781
1031.809, 107.1406
1032.291, 104.8125
1032.773, 77.93359
1033.255, 70.11719
1033.737, 101.2305
1034.219, 102.1953
1034.701, 36.97656
1035.183, 26.58594
1035.666, 36.77734
1036.148, 17.84375
1036.630, 21.37500
1037.112, 53.61719
1037.594, 71.86719
1038.076, 59.36328
1038.558, 55.68359
1039.040, 68.44531
1039.522, 89.12109
1040.005, 112.9570
1040.487, 139.8359
1040.969, 171.0859
1041.451, 209.3633
1041.933, 233.9258
1042.415, 241.1953
1042.897, 243.8711
1043.379, 239.4375
1043.861, 235.4453
1044.344, 236.3203
1044.826, 242.7578
1045.308, 257.1719
1045.790, 282.3086
1046.272, 296.1523
1046.754, 271.2461
1047.236, 269.0859
1047.718, 327.8438
1048.201, 389.6719
1048.683, 414.7031
1049.165, 415.6250
1049.647, 419.7500
1050.129, 429.7344
1050.611, 443.2578
1051.093, 458.9375
1051.575, 475.7031
1052.057, 488.4297
1052.540, 504.0898
1053.022, 532.3516
1053.504, 565.9531
1053.986, 589.2539
1054.468, 600.3438
1054.950, 619.1562
1055.432, 672.6914
1055.914, 706.4609
1056.396, 686.3672
1056.879, 652.5234
1057.361, 620.2891
1057.843, 604.3516
1058.325, 633.2734
1058.807, 709.4023
1059.289, 770.8633
1059.771, 794.9258
1060.253, 803.7930
1060.736, 807.2852
1061.218, 800.4375
1061.700, 763.6211
1062.182, 720.6641
1062.664, 711.9922
1063.146, 742.3125
1063.628, 780.1328
1064.110, 829.5703
1064.593, 861.7930
1065.075, 860.0000
1065.557, 843.9102
1066.039, 811.3633
1066.521, 782.5625
1067.003, 789.8008
1067.485, 834.1992
1067.967, 884.0352
1068.449, 938.9453
1068.932, 977.2891
1069.414, 970.2773
1069.896, 961.7070
1070.378, 995.4023
1070.860, 1042.773
1071.342, 1054.996
1071.824, 1034.152
1072.306, 1037.793
1072.788, 1097.566
1073.271, 1157.352
1073.753, 1184.875
1074.235, 1208.992
1074.717, 1256.227
1075.199, 1308.594
1075.681, 1341.094
1076.163, 1355.195
1076.645, 1371.309
1077.127, 1398.738
1077.610, 1422.000
1078.092, 1417.336
1078.574, 1427.008
1079.056, 1500.352
1079.538, 1589.312
1080.020, 1638.934
1080.502, 1650.465
1080.984, 1647.898
1081.467, 1631.152
1081.949, 1644.039
1082.431, 1735.355
1082.913, 1825.230
1083.395, 1857.672
1083.877, 1870.215
1084.359, 1906.227
1084.841, 1957.590
1085.323, 1985.625
1085.806, 1974.535
1086.288, 1996.289
1086.770, 2114.461
1087.252, 2230.844
1087.734, 2299.254
1088.216, 2340.441
1088.698, 2364.734
1089.180, 2381.797
1089.662, 2403.234
1090.145, 2433.344
1090.627, 2465.168
1091.109, 2483.484
1091.591, 2519.848
1092.073, 2605.180
1092.555, 2699.738
1093.037, 2786.016
1093.519, 2848.160
1094.002, 2851.629
1094.484, 2798.277
1094.966, 2771.363
1095.448, 2812.777
1095.930, 2858.688
1096.412, 2879.969
1096.894, 2908.977
1097.376, 2971.676
1097.859, 3052.809
1098.341, 3138.754
1098.823, 3224.141
1099.305, 3296.016
1099.787, 3345.273
1100.269, 3393.145
1100.751, 3451.246
1101.233, 3500.445
1101.715, 3518.871
1102.198, 3534.434
1102.680, 3584.734
1103.162, 3658.738
1103.644, 3704.855
1104.126, 3702.520
1104.608, 3716.680
1105.090, 3742.742
1105.572, 3807.984
1106.054, 3962.594
1106.537, 4123.602
1107.019, 4226.156
1107.501, 4284.148
1107.983, 4331.242
1108.465, 4363.625
1108.947, 4423.484
1109.429, 4557.289
1109.911, 4658.031
1110.394, 4677.023
1110.876, 4681.906
1111.358, 4701.391
1111.840, 4739.914
1112.322, 4808.734
1112.804, 4908.992
1113.286, 4997.258
1113.768, 5085.930
1114.250, 5137.078
1114.733, 5099.305
1115.215, 5089.688
1115.697, 5191.094
1116.179, 5314.727
1116.661, 5345.422
1117.143, 5301.648
1117.625, 5322.047
1118.107, 5440.219
1118.589, 5539.484
1119.072, 5618.867
1119.554, 5678.430
1120.036, 5703.484
1120.518, 5735.773
1121.000, 5817.461
1121.482, 5932.820
1121.964, 6033.164
1122.446, 6116.359
1122.929, 6195.906
1123.411, 6275.320
1123.893, 6340.031
1124.375, 6380.883
1124.857, 6424.625
1125.339, 6491.070
1125.821, 6561.086
1126.303, 6592.016
1126.786, 6588.312
1127.268, 6653.547
1127.750, 6800.148
1128.232, 6868.977
1128.714, 6823.039
1129.196, 6802.523
1129.678, 6873.797
1130.160, 6970.930
1130.642, 7018.500
1131.125, 7028.758
1131.607, 7031.055
1132.089, 7027.539
1132.571, 7059.562
1133.053, 7132.133
1133.535, 7217.102
1134.017, 7307.062
1134.499, 7362.695
1134.981, 7348.266
1135.464, 7305.023
1135.946, 7297.070
1136.428, 7325.711
1136.910, 7412.648
1137.392, 7541.977
1137.874, 7636.945
1138.356, 7690.148
1138.838, 7756.164
1139.321, 7865.688
1139.803, 7968.477
1140.285, 8011.547
1140.767, 8019.344
1141.249, 8024.062
1141.731, 8036.062
1142.213, 8093.062
1142.695, 8177.570
1143.177, 8223.930
1143.660, 8216.016
1144.142, 8201.492
1144.624, 8212.727
1145.106, 8247.297
1145.588, 8321.281
1146.070, 8401.750
1146.552, 8448.953
1147.034, 8470.898
1147.516, 8470.422
1147.999, 8465.125
1148.481, 8509.961
1148.963, 8637.961
1149.445, 8767.273
1149.927, 8830.711
1150.409, 8890.180
1150.891, 8996.391
1151.373, 9112.852
1151.856, 9190.422
1152.338, 9252.414
1152.820, 9371.680
1153.302, 9561.367
1153.784, 9698.516
1154.266, 9694.031
1154.748, 9712.242
1155.230, 9839.344
1155.713, 9981.430
1156.195, 10079.96
1156.677, 10163.68
1157.159, 10282.80
1157.641, 10430.68
1158.123, 10556.78
1158.605, 10649.35
1159.087, 10763.45
1159.569, 10925.12
1160.052, 11101.70
1160.534, 11281.11
1161.016, 11470.60
1161.498, 11673.94
1161.980, 11883.05
1162.462, 12081.90
1162.944, 12273.47
1163.426, 12444.91
1163.908, 12585.93
1164.391, 12756.62
1164.873, 12961.31
1165.355, 13173.38
1165.837, 13393.98
1166.319, 13590.49
1166.801, 13712.24
1167.283, 13780.33
1167.765, 13924.13
1168.247, 14151.25
1168.730, 14337.95
1169.212, 14467.64
1169.694, 14491.25
1170.176, 14429.03
1170.658, 14359.06
1171.140, 14325.28
1171.622, 14315.98
1172.104, 14321.52
1172.587, 14329.34
1173.069, 14326.80
1173.551, 14307.31
1174.033, 14233.72
1174.515, 14114.41
1174.997, 14023.75
1175.479, 13996.81
1175.961, 13951.06
1176.443, 13807.89
1176.926, 13640.33
1177.408, 13546.56
1177.890, 13484.62
1178.372, 13417.19
1178.854, 13323.62
1179.336, 13162.38
1179.818, 12949.02
1180.300, 12730.42
1180.782, 12524.80
1181.265, 12329.36
1181.747, 12135.16
1182.229, 11953.66
1182.711, 11796.61
1183.193, 11646.11
1183.675, 11494.33
1184.157, 11328.55
1184.639, 11121.83
1185.122, 10875.94
1185.604, 10683.50
1186.086, 10639.39
1186.568, 10546.73
1187.050, 10349.16
1187.532, 10128.17
1188.014, 9875.578
1188.496, 9645.531
1188.979, 9478.969
1189.461, 9368.281
1189.943, 9265.953
1190.425, 9181.016
1190.907, 9028.750
1191.389, 8761.984
1191.871, 8551.406
1192.353, 8444.906
1192.835, 8314.312
1193.318, 8078.000
1193.800, 7835.984
1194.282, 7711.328
1194.764, 7666.578
1195.246, 7531.156
1195.728, 7308.094
1196.210, 7111.656
1196.692, 6934.750
1197.174, 6688.750
1197.657, 6348.719
1198.139, 6003.203
1198.621, 5702.188
1199.103, 5484.750
1199.585, 5440.000
1200.067, 5468.312
1200.549, 5442.734
1201.031, 5327.938
1201.514, 5002.328
1201.996, 4534.859
1202.478, 4143.438
1202.960, 3888.250
1203.442, 3663.953
1203.924, 3415.000
1204.406, 3172.859
1204.888, 2980.719
1205.370, 2774.828
1205.853, 2479.062
1206.335, 2143.281
1206.817, 1800.953
1207.299, 1492.516
1207.781, 1329.234
1208.263, 1339.812
1208.745, 1251.688
1209.227, 867.8750
1209.709, 557.7500
1210.192, 437.2812
1210.674, 383.3125
1211.156, 396.1250
1211.638, 391.5938
1212.120, 274.6562
1212.602, 72.00000
1213.084, 145.8438
1213.566, 387.3125
1214.049, 618.1250
1214.531, 858.5625
1215.013, 995.3438
1215.495, 979.3750
1215.977, 981.9688
1216.459, 1098.969
1216.941, 1306.219
1217.423, 1606.938
1217.906, 1927.188
1218.388, 2036.125
1218.870, 1974.188
1219.352, 1909.000
1219.834, 1848.688
1220.316, 1795.219
1220.798, 1754.562
1221.280, 1786.500
1221.762, 1917.500
1222.245, 2020.281
1222.727, 1938.812
1223.209, 1785.000
1223.691, 1692.312
1224.173, 1595.781
1224.655, 1423.688
1225.137, 1208.938
1225.619, 1053.156
1226.101, 959.7500
1226.584, 747.0625
1227.066, 247.1562
1227.548, 1159.719
1228.030, 1806.156
1228.512, 2448.500
1228.994, 3142.219
1229.476, 3933.844
1229.958, 4907.469
1230.441, 5985.594
1230.923, 7016.062
1231.405, 8014.031
1231.887, 9108.125
1232.369, 10395.78
1232.851, 11416.09
1233.333, 12025.28
1233.815, 12869.91
1234.297, 14198.09
1234.780, 15586.78
1235.262, 16750.31
1235.744, 17777.47
1236.226, 18802.81
1236.708, 19814.03
1237.190, 20840.97
1237.672, 21859.53
1238.154, 22875.69
1238.636, 23868.44
1239.119, 24784.31
1239.601, 25612.78
1240.083, 26397.59
1240.565, 27146.31
1241.047, 27966.09
1241.529, 29025.62
1242.011, 30146.56
1242.493, 31228.16
1242.975, 32266.19
1243.458, 33226.66
1243.940, 34169.00
1244.422, 35197.78
1244.904, 36336.88
1245.386, 37343.12
1245.868, 38144.38
1246.350, 38795.25
1246.832, 39102.19
1247.315, 39506.69
1247.797, 40369.03
1248.279, 41241.47
1248.761, 41694.75
1249.243, 41905.41
1249.725, 42291.31
1250.207, 42896.75
1250.689, 43411.19
1251.172, 43780.72
1251.654, 43599.06
1252.136, 42892.81
1252.618, 42502.25
1253.100, 42636.97
1253.582, 42830.06
1254.064, 42846.62
1254.546, 42689.59
1255.028, 42268.25
1255.510, 41718.00
1255.993, 41583.25
1256.475, 41590.25
1256.957, 41418.56
1257.439, 41137.38
1257.921, 40928.06
1258.403, 40844.06
1258.885, 40898.94
1259.367, 41123.06
1259.850, 41311.00
1260.332, 41430.88
1260.814, 41376.19
1261.296, 40921.25
1261.778, 40479.62
1262.260, 40485.25
1262.742, 40648.50
1263.224, 40457.62
1263.707, 39984.88
1264.189, 39564.94
1264.671, 39229.75
1265.153, 38790.25
1265.635, 38241.62
1266.117, 37546.88
1266.599, 36677.44
1267.081, 35857.00
1267.563, 35214.19
1268.046, 34720.75
1268.528, 34461.81
1269.010, 34172.25
1269.492, 33072.81
1269.974, 31545.19
1270.456, 30626.44
1270.938, 30111.38
1271.420, 29311.94
1271.902, 28168.69
1272.385, 27064.69
1272.867, 26145.19
1273.349, 24991.69
1273.831, 23118.12
1274.313, 21295.69
1274.795, 19972.50
1275.277, 18807.44
1275.759, 17679.19
1276.242, 16536.38
1276.724, 15395.50
1277.206, 14199.00
1277.688, 12692.69
1278.170, 10829.12
1278.652, 9140.062
1279.134, 7645.312
1279.616, 6322.438
1280.099, 5203.438
1280.581, 4135.688
1281.063, 3078.625
1281.545, 2035.688
1282.027, 1030.312
1282.509, 209.6250
1282.991, 145.5625
1283.473, 51.56250
1283.955, 0.0000000E+00
##END=



