##NAMES=Grimselite
##RRUFFID=R141028
##IDEAL CHEMISTRY=K_3_Na(U^6+^O_2_)(CO_3_)_3_&#183;H_2_O
##LOCALITY=Rovnost Mine, Jáchymov, Krušné Hory Mts, Karlovy Vary, Bohemia, Czech Republic
##OWNER=RRUFF
##SOURCE=William W. Pinch
##DESCRIPTION=Radial aggregate of light or greenish yellow bladed crystals
##STATUS=The identification of this mineral has been confirmed by single-crystal X-ray diffraction.
##URL=rruff.info/R141028
152.6681, 0.0000000E+00
153.1502, 0.6240230
153.6323, 0.4599610
154.1144, 0.1318360
154.5966, 3.657227
155.0787, 13.98438
155.5608, 26.17969
156.0429, 37.74805
156.5250, 48.18555
157.0071, 56.68359
157.4893, 60.92676
157.9714, 57.75391
158.4535, 58.99219
158.9356, 67.33789
159.4177, 79.66309
159.8998, 95.42285
160.3820, 114.2715
160.8641, 133.1738
161.3462, 144.3945
161.8283, 139.5273
162.3104, 138.5039
162.7925, 144.5664
163.2747, 154.7666
163.7568, 166.2988
164.2389, 178.0361
164.7210, 189.2734
165.2031, 198.2842
165.6852, 207.6436
166.1674, 212.0742
166.6495, 208.0732
167.1316, 199.1738
167.6137, 191.0928
168.0958, 187.4688
168.5779, 187.8213
169.0601, 187.4580
169.5422, 186.6953
170.0243, 184.2920
170.5064, 181.5537
170.9885, 177.6484
171.4706, 170.4697
171.9528, 160.1475
172.4349, 150.3408
172.9170, 147.4297
173.3991, 147.5840
173.8812, 145.5752
174.3633, 145.5166
174.8455, 150.1279
175.3276, 149.7129
175.8097, 130.9287
176.2918, 104.1475
176.7739, 85.58594
177.2560, 81.51562
177.7382, 83.88379
178.2203, 83.97461
178.7024, 82.15625
179.1845, 80.38086
179.6666, 79.04688
180.1487, 85.01172
180.6309, 93.13770
181.1130, 94.27930
181.5951, 87.80176
182.0772, 81.64160
182.5593, 79.30957
183.0414, 76.76367
183.5236, 70.72266
184.0057, 63.26172
184.4878, 56.08594
184.9699, 50.09277
185.4520, 45.41797
185.9341, 43.30957
186.4163, 49.77832
186.8984, 51.85059
187.3805, 42.66504
187.8626, 27.33008
188.3447, 14.48438
188.8268, 10.24902
189.3090, 14.41895
189.7911, 19.04785
190.2732, 29.19043
190.7553, 34.81543
191.2374, 30.58496
191.7195, 19.42480
192.2017, 7.464844
192.6838, 0.9648440
193.1659, 6.005859
193.6480, 4.950195
194.1301, 10.06152
194.6122, 22.32227
195.0944, 23.14844
195.5765, 14.23047
196.0586, 2.926758
196.5407, 5.533203
197.0228, 10.88672
197.5049, 12.10840
197.9871, 6.818359
198.4692, 3.9059999E-03
198.9513, 6.291992
199.4334, 11.64746
199.9155, 14.79688
200.3976, 13.63770
200.8798, 8.620117
201.3619, 6.811523
201.8440, 11.29980
202.3261, 17.34570
202.8082, 21.48438
203.2903, 23.59277
203.7725, 23.06836
204.2546, 16.95703
204.7367, 7.708008
205.2188, 2.343750
205.7009, 8.525391
206.1830, 16.64062
206.6652, 11.27441
207.1473, 11.50293
207.6294, 32.85156
208.1115, 39.57812
208.5936, 36.48438
209.0757, 29.37109
209.5579, 18.12207
210.0400, 5.018555
210.5221, 7.289063
211.0042, 18.95410
211.4863, 25.38770
211.9685, 19.89453
212.4506, 9.023438
212.9327, 2.567383
213.4148, 6.533203
213.8969, 17.39258
214.3790, 23.49121
214.8612, 19.51074
215.3433, 19.84863
215.8254, 34.33203
216.3075, 54.48535
216.7896, 67.85254
217.2717, 65.90527
217.7539, 53.09375
218.2360, 50.13770
218.7181, 69.76660
219.2002, 82.52930
219.6823, 76.27734
220.1644, 60.32812
220.6466, 47.42188
221.1287, 45.17871
221.6108, 52.15723
222.0929, 60.44824
222.5750, 73.00098
223.0571, 83.57520
223.5393, 90.49512
224.0214, 94.88867
224.5035, 98.17383
224.9856, 101.1123
225.4677, 103.8633
225.9498, 107.4082
226.4320, 112.2363
226.9141, 117.4170
227.3962, 122.0127
227.8783, 127.0146
228.3604, 134.4053
228.8425, 145.5518
229.3247, 159.4414
229.8068, 170.1367
230.2889, 176.7139
230.7710, 181.3730
231.2531, 182.1162
231.7352, 181.4287
232.2174, 183.9346
232.6995, 192.4551
233.1816, 205.2236
233.6637, 214.4033
234.1458, 216.8252
234.6279, 219.9502
235.1101, 225.0840
235.5922, 232.2061
236.0743, 241.5127
236.5564, 253.3232
237.0385, 266.9873
237.5206, 280.2188
238.0028, 293.0264
238.4849, 305.5947
238.9670, 317.6787
239.4491, 329.5996
239.9312, 342.2969
240.4133, 356.5078
240.8955, 371.1094
241.3776, 383.1221
241.8597, 390.3584
242.3418, 400.4697
242.8239, 419.6533
243.3060, 444.4658
243.7882, 465.3867
244.2703, 478.3633
244.7524, 486.7539
245.2345, 497.5752
245.7166, 512.5469
246.1987, 521.3828
246.6809, 516.0771
247.1630, 500.3887
247.6451, 485.7822
248.1272, 475.5146
248.6093, 467.4824
249.0914, 460.0400
249.5736, 453.2939
250.0557, 443.6309
250.5378, 426.4258
251.0199, 403.9912
251.5020, 385.7393
251.9841, 374.3662
252.4663, 367.6455
252.9484, 364.5850
253.4305, 364.5469
253.9126, 362.7354
254.3947, 352.5625
254.8768, 337.1191
255.3590, 331.6777
255.8411, 343.6836
256.3232, 359.3662
256.8053, 368.1992
257.2874, 371.7266
257.7695, 375.8740
258.2516, 385.2520
258.7338, 398.6553
259.2159, 409.4395
259.6980, 416.0049
260.1801, 422.3262
260.6622, 432.9072
261.1443, 444.9863
261.6265, 452.1436
262.1086, 447.2910
262.5907, 433.9443
263.0728, 429.6924
263.5549, 441.8545
264.0370, 452.7373
264.5192, 456.6035
265.0013, 453.2148
265.4834, 443.2559
265.9655, 427.3457
266.4476, 407.3301
266.9297, 387.3418
267.4119, 367.3838
267.8940, 348.4004
268.3761, 327.6182
268.8582, 308.1172
269.3403, 294.6426
269.8224, 290.3047
270.3046, 291.6055
270.7867, 289.4062
271.2688, 283.2109
271.7509, 274.6396
272.2330, 261.7861
272.7151, 248.0410
273.1973, 236.4834
273.6794, 228.3047
274.1615, 223.0674
274.6436, 219.6406
275.1257, 217.1465
275.6078, 218.4551
276.0900, 229.1572
276.5721, 239.9697
277.0542, 241.5928
277.5363, 231.7676
278.0184, 217.6240
278.5005, 211.9922
278.9827, 221.0410
279.4648, 224.7119
279.9469, 218.0967
280.4290, 209.4814
280.9111, 204.3086
281.3932, 203.5684
281.8754, 204.7402
282.3575, 204.9346
282.8396, 204.8311
283.3217, 201.6709
283.8038, 191.2939
284.2859, 181.7803
284.7681, 179.2686
285.2502, 182.8994
285.7323, 186.4141
286.2144, 183.1768
286.6965, 172.0225
287.1786, 162.4814
287.6608, 156.8340
288.1429, 150.4805
288.6250, 140.8301
289.1071, 128.7139
289.5892, 116.6211
290.0714, 106.3418
290.5535, 97.92773
291.0356, 91.95703
291.5177, 91.72168
291.9998, 90.59082
292.4819, 84.76367
292.9641, 76.84082
293.4462, 72.38672
293.9283, 75.38672
294.4104, 84.19336
294.8925, 87.40820
295.3746, 77.02734
295.8568, 69.66406
296.3389, 70.43359
296.8210, 74.74902
297.3031, 75.66309
297.7852, 69.72949
298.2673, 59.83398
298.7495, 54.71191
299.2316, 59.86621
299.7137, 63.00684
300.1958, 62.64355
300.6779, 60.44727
301.1600, 57.80566
301.6422, 55.24414
302.1243, 52.85938
302.6064, 50.89062
303.0885, 49.15625
303.5706, 48.22168
304.0527, 48.11328
304.5349, 48.73535
305.0170, 50.16992
305.4991, 52.37500
305.9812, 55.22852
306.4633, 59.08887
306.9454, 65.85645
307.4276, 66.50098
307.9097, 56.71289
308.3918, 45.76855
308.8739, 38.36328
309.3560, 34.68066
309.8381, 32.69531
310.3203, 30.41699
310.8024, 27.75684
311.2845, 27.91309
311.7666, 33.75000
312.2487, 39.08789
312.7308, 41.67676
313.2130, 42.05957
313.6951, 41.79395
314.1772, 41.87793
314.6593, 42.09082
315.1414, 41.17285
315.6235, 38.08105
316.1057, 34.83496
316.5878, 29.74902
317.0699, 25.15918
317.5520, 25.32617
318.0341, 32.20215
318.5162, 42.17578
318.9984, 46.22461
319.4805, 37.89844
319.9626, 29.90137
320.4447, 21.56055
320.9268, 14.75000
321.4089, 12.03516
321.8911, 13.82812
322.3732, 17.42773
322.8553, 18.99902
323.3374, 18.42773
323.8195, 15.87500
324.3016, 7.419922
324.7838, 0.3808590
325.2659, 0.3447270
325.7480, 6.918945
326.2301, 15.45898
326.7122, 21.68652
327.1943, 25.60449
327.6765, 27.03516
328.1586, 23.09082
328.6407, 19.75977
329.1228, 19.25781
329.6049, 21.27344
330.0870, 24.26758
330.5692, 26.75488
331.0513, 28.49902
331.5334, 32.14258
332.0155, 44.11523
332.4976, 51.71777
332.9797, 50.71289
333.4619, 44.41699
333.9440, 37.43164
334.4261, 31.97363
334.9082, 27.48047
335.3904, 22.30371
335.8725, 14.20410
336.3546, 9.490234
336.8367, 11.28320
337.3188, 14.50391
337.8009, 14.77832
338.2831, 11.35059
338.7652, 6.798828
339.2473, 4.742188
339.7294, 6.453125
340.2115, 6.620117
340.6936, 5.183594
341.1758, 2.517578
341.6579, 3.127930
342.1400, 10.63672
342.6221, 15.47363
343.1042, 12.98340
343.5863, 3.048828
344.0685, 5.567383
344.5506, 14.94141
345.0327, 20.43066
345.5148, 18.53906
345.9969, 12.40137
346.4790, 6.541016
346.9612, 3.237305
347.4433, 2.389648
347.9254, 3.908203
348.4075, 10.28320
348.8896, 15.01465
349.3717, 14.86328
349.8539, 14.18652
350.3360, 18.61719
350.8181, 29.44238
351.3002, 40.44922
351.7823, 39.98535
352.2644, 22.19531
352.7466, 10.99609
353.2287, 14.67480
353.7108, 19.58984
354.1929, 17.88184
354.6750, 10.18848
355.1571, 2.670898
355.6393, 0.3505860
356.1214, 3.215820
356.6035, 9.858398
357.0856, 26.60645
357.5677, 39.45996
358.0498, 42.97070
358.5320, 39.59668
359.0141, 33.38770
359.4962, 24.87988
359.9783, 15.62500
360.4604, 10.02637
360.9425, 9.743164
361.4247, 9.185547
361.9068, 4.463867
362.3889, 0.1611330
362.8710, 0.1699220
363.3531, 5.756836
363.8352, 13.63867
364.3174, 18.03809
364.7995, 18.28223
365.2816, 22.03320
365.7637, 37.17871
366.2458, 50.10156
366.7279, 49.94824
367.2101, 38.16406
367.6922, 26.04395
368.1743, 22.86914
368.6564, 26.30078
369.1385, 24.97852
369.6206, 15.75098
370.1028, 7.039063
370.5849, 4.833008
371.0670, 6.462891
371.5491, 7.238281
372.0312, 3.869141
372.5133, 0.4443360
372.9955, 4.577148
373.4776, 17.35352
373.9597, 26.89648
374.4418, 27.66406
374.9239, 22.52832
375.4060, 13.59668
375.8882, 0.8076170
376.3703, 11.10938
376.8524, 8.619141
377.3345, 4.073242
377.8166, 17.29980
378.2987, 31.08301
378.7809, 40.65137
379.2630, 38.05371
379.7451, 24.95215
380.2272, 13.80566
380.7093, 8.824219
381.1914, 8.019531
381.6736, 10.36719
382.1557, 15.98242
382.6378, 19.68066
383.1199, 16.77246
383.6020, 8.671875
384.0841, 2.715820
384.5663, 0.2753910
385.0484, 1.260742
385.5305, 2.963867
386.0126, 4.933594
386.4947, 8.089844
386.9768, 13.64648
387.4590, 18.97363
387.9411, 17.06543
388.4232, 4.519531
388.9053, 3.739258
389.3874, 0.5126950
389.8695, 6.509766
390.3517, 7.821289
390.8338, 1.862305
391.3159, 5.451172
391.7980, 7.899414
392.2801, 4.662109
392.7622, 3.370117
393.2444, 5.380859
393.7265, 7.858398
394.2086, 9.210938
394.6907, 9.836914
395.1728, 11.12891
395.6549, 13.96484
396.1371, 17.88574
396.6192, 21.02148
397.1013, 27.24219
397.5834, 27.67773
398.0655, 15.42676
398.5476, 0.2314450
399.0298, 7.569336
399.5119, 5.561523
399.9940, 0.4824220
400.4761, 2.801758
400.9582, 0.2968750
401.4403, 0.4658200
401.9225, 8.170898
402.4046, 15.81152
402.8867, 20.30664
403.3688, 22.01758
403.8509, 22.50195
404.3330, 22.72168
404.8152, 22.71582
405.2973, 23.07422
405.7794, 25.27637
406.2615, 25.34375
406.7436, 22.15625
407.2257, 16.89355
407.7079, 9.724609
408.1900, 0.8310550
408.6721, 7.040039
409.1542, 9.649414
409.6363, 6.200195
410.1184, 2.439453
410.6006, 1.083984
411.0827, 4.872070
411.5648, 10.33203
412.0469, 16.56836
412.5290, 20.51855
413.0111, 18.59277
413.4933, 13.22168
413.9754, 13.62500
414.4575, 23.58301
414.9396, 29.41406
415.4217, 17.83008
415.9038, 1.000000
416.3860, 6.684570
416.8681, 0.9111330
417.3502, 10.56836
417.8323, 22.70898
418.3144, 35.09570
418.7965, 43.58691
419.2787, 46.63086
419.7608, 46.02051
420.2429, 42.70703
420.7250, 36.96094
421.2071, 32.50586
421.6892, 30.36719
422.1714, 30.23145
422.6535, 32.82910
423.1356, 38.20117
423.6177, 42.24902
424.0998, 41.94922
424.5819, 38.04590
425.0641, 34.48340
425.5462, 30.63672
426.0283, 27.99316
426.5104, 27.95508
426.9925, 29.52051
427.4746, 30.60938
427.9568, 30.48340
428.4389, 30.29980
428.9210, 32.11133
429.4031, 37.97656
429.8852, 39.67676
430.3673, 32.04688
430.8495, 24.37305
431.3316, 24.16504
431.8137, 30.39062
432.2958, 36.48828
432.7779, 37.69141
433.2600, 34.61816
433.7422, 32.59863
434.2243, 32.83203
434.7064, 32.28223
435.1885, 27.74512
435.6706, 23.44141
436.1527, 26.29297
436.6349, 37.63672
437.1170, 50.12500
437.5991, 51.70703
438.0812, 36.95312
438.5633, 31.28320
439.0454, 43.21777
439.5276, 56.45020
440.0097, 67.08008
440.4918, 73.87500
440.9739, 75.25586
441.4560, 69.19043
441.9381, 58.45215
442.4203, 51.11426
442.9024, 48.66602
443.3845, 45.90234
443.8666, 39.09082
444.3487, 32.64062
444.8308, 30.63477
445.3130, 33.85254
445.7951, 38.55078
446.2772, 42.56348
446.7593, 45.50879
447.2414, 46.58496
447.7235, 44.68457
448.2057, 42.52734
448.6878, 42.10742
449.1699, 43.04395
449.6520, 44.89355
450.1341, 48.40918
450.6162, 51.99805
451.0984, 54.12988
451.5805, 54.94629
452.0626, 55.15625
452.5447, 54.61914
453.0268, 54.18555
453.5089, 56.23633
453.9911, 61.67285
454.4732, 64.82129
454.9553, 62.13379
455.4374, 57.79980
455.9195, 55.84180
456.4016, 56.64453
456.8838, 59.53613
457.3659, 65.56348
457.8480, 74.42480
458.3301, 76.90625
458.8122, 68.15332
459.2943, 59.62012
459.7765, 53.16797
460.2586, 48.79785
460.7407, 46.81348
461.2228, 47.23145
461.7049, 48.88379
462.1870, 50.22949
462.6692, 51.93750
463.1513, 51.34082
463.6334, 44.65723
464.1155, 39.66797
464.5976, 41.57031
465.0797, 47.83691
465.5619, 52.33887
466.0440, 51.17676
466.5261, 45.92871
467.0082, 41.27246
467.4903, 35.82422
467.9724, 35.91309
468.4546, 50.65332
468.9367, 66.26855
469.4188, 71.90820
469.9009, 66.79980
470.3830, 59.28516
470.8651, 54.79590
471.3473, 52.86719
471.8294, 52.04688
472.3115, 52.21582
472.7936, 53.40430
473.2757, 58.00879
473.7578, 63.09766
474.2400, 62.27441
474.7221, 51.61035
475.2042, 41.35938
475.6863, 38.64062
476.1684, 41.85645
476.6505, 46.99707
477.1327, 53.34473
477.6148, 60.01270
478.0969, 65.79688
478.5790, 70.62598
479.0611, 71.53320
479.5432, 64.85352
480.0254, 57.84766
480.5075, 56.43652
480.9896, 58.83398
481.4717, 58.71875
481.9538, 52.35547
482.4359, 42.42090
482.9181, 36.48242
483.4002, 35.65625
483.8823, 37.63867
484.3644, 46.83398
484.8465, 55.34668
485.3286, 55.71484
485.8108, 48.87109
486.2929, 42.38672
486.7750, 43.02832
487.2571, 49.83691
487.7392, 54.43359
488.2213, 56.03125
488.7035, 56.41309
489.1856, 54.26465
489.6677, 52.17773
490.1498, 53.76953
490.6319, 59.88477
491.1140, 65.49707
491.5962, 64.22949
492.0783, 57.15332
492.5604, 53.54199
493.0425, 55.48242
493.5246, 58.86816
494.0067, 62.35156
494.4889, 65.06934
494.9710, 64.39062
495.4531, 57.84375
495.9352, 49.97266
496.4173, 43.73145
496.8994, 39.50781
497.3816, 38.07227
497.8637, 40.43359
498.3458, 44.07129
498.8279, 45.44043
499.3100, 44.30762
499.7921, 41.61133
500.2743, 35.54980
500.7564, 29.47852
501.2385, 26.08105
501.7206, 24.70508
502.2027, 23.15918
502.6848, 20.09570
503.1670, 16.15039
503.6491, 13.37402
504.1312, 10.17676
504.6133, 11.07227
505.0954, 20.98535
505.5775, 30.70312
506.0597, 32.81152
506.5418, 28.33594
507.0239, 24.38281
507.5060, 27.26465
507.9881, 34.91211
508.4702, 36.93652
508.9524, 30.78711
509.4345, 24.80469
509.9166, 20.55566
510.3987, 18.44727
510.8808, 20.07422
511.3629, 25.70117
511.8451, 30.80957
512.3271, 30.91992
512.8093, 28.05664
513.2914, 29.27930
513.7735, 36.33496
514.2556, 39.96582
514.7377, 31.13672
515.2198, 14.45605
515.7020, 6.146484
516.1841, 11.16504
516.6662, 17.97949
517.1483, 21.86426
517.6304, 24.11035
518.1125, 27.64453
518.5947, 33.06250
519.0768, 36.66895
519.5589, 33.91504
520.0410, 23.78418
520.5231, 16.65234
521.0052, 13.27051
521.4874, 11.51562
521.9695, 10.58105
522.4516, 10.87598
522.9337, 14.02051
523.4158, 20.42285
523.8979, 27.05566
524.3801, 28.86816
524.8622, 24.73047
525.3443, 21.95508
525.8264, 21.23242
526.3085, 21.48047
526.7906, 22.17090
527.2728, 23.46777
527.7549, 26.21387
528.2370, 31.88086
528.7191, 36.54688
529.2012, 33.95020
529.6833, 24.59668
530.1655, 16.20801
530.6476, 10.05078
531.1297, 6.440430
531.6118, 6.673828
532.0939, 10.21191
532.5760, 13.94727
533.0582, 20.53613
533.5403, 24.32910
534.0224, 18.09082
534.5045, 5.146484
534.9866, 4.588867
535.4688, 6.779297
535.9509, 3.197266
536.4330, 3.425781
536.9151, 16.05957
537.3972, 24.59180
537.8793, 28.87793
538.3615, 29.66211
538.8436, 25.40332
539.3257, 18.02344
539.8078, 11.39258
540.2899, 7.543945
540.7720, 6.283203
541.2542, 7.228516
541.7363, 10.48730
542.2184, 15.49805
542.7005, 25.84180
543.1826, 34.61133
543.6647, 36.62891
544.1469, 33.15039
544.6290, 29.81250
545.1111, 30.43750
545.5932, 32.06055
546.0753, 28.38672
546.5574, 19.77832
547.0396, 16.75879
547.5217, 26.00098
548.0038, 39.08984
548.4859, 42.35156
548.9680, 35.56543
549.4501, 27.14453
549.9323, 13.96094
550.4144, 3.488281
550.8965, 4.347656
551.3786, 13.70117
551.8607, 21.60352
552.3428, 22.85254
552.8250, 18.66699
553.3071, 11.48438
553.7892, 4.244141
554.2713, 12.67090
554.7534, 8.822266
555.2355, 3.178711
555.7177, 1.504883
556.1998, 3.142578
556.6819, 4.685547
557.1640, 4.021484
557.6461, 2.166992
558.1282, 1.217773
558.6104, 1.245117
559.0925, 1.815430
559.5746, 3.572266
560.0567, 5.108398
560.5388, 5.117188
561.0209, 3.749023
561.5031, 2.269531
561.9852, 1.839844
562.4673, 1.002930
562.9494, 2.315430
563.4315, 7.590820
563.9136, 12.50293
564.3958, 16.27148
564.8779, 18.50000
565.3600, 17.97559
565.8421, 12.20215
566.3242, 11.24121
566.8063, 20.27637
567.2885, 29.07520
567.7706, 32.48438
568.2527, 31.06055
568.7348, 26.43652
569.2169, 19.36621
569.6990, 11.39453
570.1812, 4.794922
570.6633, 1.338867
571.1454, 1.963867
571.6275, 8.939453
572.1096, 19.46387
572.5917, 22.96289
573.0739, 21.56250
573.5560, 20.53906
574.0381, 22.08691
574.5202, 24.47461
575.0023, 26.48242
575.4844, 27.86621
575.9666, 25.78613
576.4487, 17.56250
576.9308, 12.33008
577.4129, 22.96387
577.8950, 49.76562
578.3771, 64.55762
578.8593, 60.04688
579.3414, 50.64551
579.8235, 38.43457
580.3056, 26.87988
580.7877, 21.34961
581.2698, 23.31152
581.7520, 29.96191
582.2341, 38.48438
582.7162, 49.42676
583.1984, 57.14355
583.6805, 62.47070
584.1626, 63.11230
584.6447, 53.72949
585.1268, 41.67188
585.6089, 36.60742
586.0911, 41.18848
586.5732, 47.62402
587.0553, 49.04004
587.5374, 46.40527
588.0195, 43.01953
588.5016, 38.83984
588.9838, 35.61426
589.4659, 35.40723
589.9480, 37.08203
590.4301, 37.04492
590.9122, 34.84961
591.3943, 31.97656
591.8765, 26.45605
592.3586, 22.00879
592.8407, 23.57031
593.3228, 30.95898
593.8049, 38.66797
594.2870, 42.79590
594.7692, 42.93652
595.2513, 37.17578
595.7334, 17.29004
596.2155, 6.400391
596.6976, 11.67676
597.1797, 21.58789
597.6619, 29.87305
598.1440, 35.67676
598.6261, 39.71484
599.1082, 42.29199
599.5903, 43.54590
600.0724, 43.16504
600.5546, 41.11426
601.0367, 40.06641
601.5188, 41.18262
602.0009, 43.04883
602.4830, 43.35840
602.9651, 42.09473
603.4473, 42.75098
603.9294, 48.80273
604.4115, 54.00781
604.8936, 54.18066
605.3757, 51.04688
605.8578, 46.95410
606.3400, 42.93164
606.8221, 39.74707
607.3042, 38.67383
607.7863, 40.39746
608.2684, 40.42871
608.7505, 37.80273
609.2327, 34.90430
609.7148, 31.31543
610.1969, 28.41699
610.6790, 28.61328
611.1611, 32.69043
611.6432, 36.00000
612.1254, 33.58594
612.6075, 28.00098
613.0896, 25.80176
613.5717, 27.67188
614.0538, 27.98242
614.5359, 21.46875
615.0181, 12.14648
615.5002, 12.49023
615.9823, 28.60254
616.4644, 39.10645
616.9465, 36.42480
617.4286, 28.55371
617.9108, 20.20508
618.3929, 13.22461
618.8750, 10.20020
619.3571, 12.90723
619.8392, 19.71094
620.3214, 27.39941
620.8035, 38.21094
621.2856, 43.36914
621.7677, 37.97168
622.2498, 30.25684
622.7319, 23.58691
623.2141, 18.07520
623.6962, 13.44434
624.1783, 9.451172
624.6604, 6.596680
625.1425, 4.524414
625.6246, 3.900391
626.1068, 8.906250
626.5889, 21.26465
627.0710, 30.91699
627.5531, 26.82227
628.0352, 9.859375
628.5173, 1.870117
628.9995, 9.043945
629.4816, 16.63379
629.9637, 21.98242
630.4458, 25.54590
630.9279, 27.00586
631.4100, 26.91797
631.8922, 27.61719
632.3743, 31.64648
632.8564, 37.43750
633.3385, 38.42969
633.8206, 32.87207
634.3027, 29.45215
634.7849, 30.92090
635.2670, 35.24219
635.7491, 42.23242
636.2312, 51.20850
636.7133, 55.21191
637.1954, 47.92480
637.6776, 38.60547
638.1597, 34.86377
638.6418, 35.03418
639.1239, 34.87744
639.6060, 33.04590
640.0881, 30.41553
640.5703, 28.30908
641.0524, 27.04883
641.5345, 23.62842
642.0166, 13.75293
642.4987, 6.956543
642.9808, 7.576660
643.4630, 10.86133
643.9451, 11.99365
644.4272, 10.19336
644.9093, 7.783203
645.3914, 6.946289
645.8735, 6.353027
646.3557, 1.698730
646.8378, 7.357910
647.3199, 11.99707
647.8020, 7.026855
648.2841, 1.709961
648.7662, 4.160156
649.2484, 1.506348
649.7305, 3.100098
650.2126, 4.071289
650.6947, 11.71094
651.1768, 16.20312
651.6589, 17.68164
652.1411, 15.87354
652.6232, 10.99365
653.1053, 6.412109
653.5874, 7.388184
654.0695, 13.96191
654.5516, 16.43604
655.0338, 11.32031
655.5159, 9.019043
655.9980, 19.87354
656.4801, 33.02539
656.9622, 34.70068
657.4443, 22.37402
657.9265, 12.37158
658.4086, 15.43652
658.8907, 22.10303
659.3728, 21.09131
659.8549, 13.73096
660.3370, 8.589844
660.8192, 9.804688
661.3013, 13.18359
661.7834, 10.95117
662.2655, 0.3315430
662.7476, 5.547363
663.2297, 3.958496
663.7119, 0.5375980
664.1940, 5.054688
664.6761, 10.67236
665.1582, 13.23926
665.6403, 11.95166
666.1224, 10.03174
666.6046, 10.84424
667.0867, 12.87500
667.5688, 11.91357
668.0509, 7.764160
668.5330, 4.061035
669.0151, 2.611816
669.4973, 2.695313
669.9794, 2.909668
670.4615, 3.208984
670.9436, 3.848633
671.4257, 5.563477
671.9078, 6.864258
672.3900, 6.927734
672.8721, 6.001953
673.3542, 3.853027
673.8363, 0.5166020
674.3184, 1.452637
674.8005, 2.388184
675.2827, 11.15869
675.7648, 16.09912
676.2469, 16.35742
676.7290, 14.89648
677.2111, 11.95703
677.6932, 8.826660
678.1754, 7.673340
678.6575, 8.707520
679.1396, 10.55566
679.6217, 13.28027
680.1038, 16.41309
680.5859, 21.28516
681.0681, 26.11963
681.5502, 26.41455
682.0323, 20.56934
682.5144, 12.46387
682.9965, 6.651367
683.4786, 2.908203
683.9608, 6.604980
684.4429, 22.54883
684.9250, 37.11328
685.4071, 45.57227
685.8892, 49.33057
686.3713, 47.63525
686.8535, 40.19678
687.3356, 36.09277
687.8177, 44.61768
688.2998, 54.35400
688.7819, 50.66162
689.2640, 37.60840
689.7462, 30.89209
690.2283, 36.76074
690.7104, 46.61475
691.1925, 47.04590
691.6746, 36.50586
692.1567, 32.23340
692.6389, 42.14746
693.1210, 47.98730
693.6031, 40.82520
694.0852, 30.25732
694.5673, 26.58105
695.0494, 30.75098
695.5316, 34.11230
696.0137, 30.69043
696.4958, 24.25000
696.9779, 19.48047
697.4600, 16.17383
697.9421, 12.51807
698.4243, 7.800781
698.9064, 3.875488
699.3885, 3.568848
699.8706, 7.140137
700.3527, 9.982910
700.8348, 13.89600
701.3170, 14.85693
701.7991, 7.897461
702.2812, 0.4853520
702.7633, 0.8823240
703.2454, 8.835938
703.7275, 15.92627
704.2097, 14.58936
704.6918, 10.70947
705.1739, 16.81885
705.6560, 31.28125
706.1381, 38.83984
706.6202, 34.00537
707.1024, 25.23486
707.5845, 20.97803
708.0666, 21.37891
708.5487, 22.05713
709.0308, 22.66895
709.5129, 23.84668
709.9951, 24.90283
710.4772, 27.07568
710.9593, 32.90820
711.4414, 41.17480
711.9235, 47.04834
712.4056, 47.60889
712.8878, 44.45312
713.3699, 36.96631
713.8520, 26.77881
714.3341, 26.92773
714.8162, 41.76660
715.2983, 58.78467
715.7805, 68.52100
716.2626, 72.50098
716.7447, 78.27539
717.2268, 88.65674
717.7089, 96.79785
718.1910, 101.5000
718.6732, 104.4551
719.1553, 104.1494
719.6374, 103.3252
720.1195, 108.3135
720.6016, 122.0791
721.0837, 140.0122
721.5659, 157.4424
722.0480, 173.9941
722.5301, 187.6963
723.0122, 198.0703
723.4943, 206.8022
723.9764, 213.4043
724.4586, 220.2158
724.9407, 232.9668
725.4228, 250.6899
725.9049, 276.4780
726.3870, 311.3569
726.8691, 353.3696
727.3513, 405.6680
727.8334, 463.0039
728.3155, 519.8315
728.7976, 573.7007
729.2797, 617.1118
729.7618, 645.3325
730.2440, 656.4585
730.7261, 641.0562
731.2082, 597.9897
731.6903, 540.1191
732.1724, 468.2646
732.6545, 392.4639
733.1367, 326.0698
733.6188, 270.1069
734.1009, 220.3545
734.5830, 173.2705
735.0651, 136.1978
735.5472, 116.2554
736.0294, 104.9751
736.5115, 93.61816
736.9936, 80.51953
737.4757, 68.18408
737.9578, 58.59814
738.4399, 50.89160
738.9221, 42.28369
739.4042, 33.08789
739.8863, 28.69092
740.3684, 31.35254
740.8505, 35.42676
741.3326, 36.02979
741.8148, 33.38770
742.2969, 29.43555
742.7790, 22.98389
743.2611, 16.81152
743.7432, 9.186035
744.2253, 3.730469
744.7075, 4.725098
745.1896, 10.16357
745.6717, 14.60010
746.1538, 15.66260
746.6359, 13.95508
747.1180, 8.157715
747.6002, 8.8867001E-02
748.0823, 2.887695
748.5644, 0.2626950
749.0465, 3.226074
749.5286, 2.463867
750.0107, 1.252441
750.4929, 6.625000
750.9750, 17.09375
751.4571, 20.53320
751.9392, 11.25537
752.4213, 1.904297
752.9034, 3.018555
753.3856, 4.773926
753.8677, 4.792969
754.3498, 3.561523
754.8319, 2.987305
755.3140, 6.747070
755.7961, 10.89795
756.2783, 6.433594
756.7604, 4.676270
757.2425, 10.37891
757.7246, 6.353027
758.2067, 1.946289
758.6888, 8.945801
759.1710, 14.58252
759.6531, 15.80322
760.1352, 8.110352
760.6173, 2.702148
761.0994, 1.689941
761.5815, 2.981934
762.0637, 6.637695
762.5458, 11.36670
763.0279, 13.37354
763.5100, 10.06152
763.9921, 5.647461
764.4742, 2.976074
764.9564, 1.875000
765.4385, 3.042969
765.9206, 6.060059
766.4027, 7.469727
766.8848, 4.828125
767.3669, 0.4594730
767.8491, 0.1030270
768.3312, 5.012695
768.8133, 9.463867
769.2954, 14.10791
769.7775, 17.16016
770.2596, 18.44092
770.7418, 17.45312
771.2239, 11.97266
771.7060, 0.9360350
772.1881, 5.977051
772.6702, 2.541992
773.1523, 4.087891
773.6345, 9.695313
774.1166, 13.68750
774.5987, 15.36963
775.0808, 14.65186
775.5629, 12.40479
776.0450, 9.257813
776.5272, 5.458496
777.0093, 1.492676
777.4914, 3.345703
777.9735, 3.985840
778.4556, 2.961426
778.9377, 11.00635
779.4199, 13.95752
779.9020, 12.94336
780.3841, 13.68799
780.8662, 19.12598
781.3483, 22.21484
781.8304, 18.48193
782.3126, 13.99805
782.7947, 12.49365
783.2768, 14.66699
783.7589, 22.51758
784.2410, 37.32861
784.7231, 50.29443
785.2053, 47.39307
785.6874, 33.35645
786.1695, 27.26270
786.6516, 30.35596
787.1337, 36.06006
787.6158, 42.35254
788.0980, 47.87402
788.5801, 50.22119
789.0622, 48.72021
789.5443, 48.72559
790.0264, 49.96826
790.5085, 53.09326
790.9907, 61.52881
791.4728, 69.58154
791.9549, 69.72705
792.4370, 63.70752
792.9191, 62.12939
793.4012, 72.62549
793.8834, 85.81299
794.3655, 93.09082
794.8476, 95.99316
795.3297, 96.12793
795.8118, 94.46094
796.2939, 96.44971
796.7761, 106.0659
797.2582, 119.7388
797.7403, 128.2676
798.2224, 129.5664
798.7045, 135.0161
799.1866, 147.3188
799.6688, 159.9404
800.1509, 168.0181
800.6330, 175.8408
801.1151, 188.2373
801.5972, 205.4897
802.0793, 227.6240
802.5615, 259.6450
803.0436, 291.5278
803.5257, 315.2949
804.0078, 335.6182
804.4899, 357.6851
804.9720, 383.5239
805.4542, 416.0825
805.9363, 458.9321
806.4184, 507.6958
806.9005, 548.9985
807.3826, 583.5547
807.8647, 630.4961
808.3469, 694.2021
808.8290, 762.9688
809.3111, 827.7764
809.7932, 894.1650
810.2753, 975.7046
810.7574, 1074.176
811.2396, 1185.158
811.7217, 1312.454
812.2038, 1447.902
812.6859, 1590.571
813.1680, 1738.914
813.6501, 1895.243
814.1323, 2059.198
814.6144, 2210.544
815.0965, 2339.369
815.5786, 2448.404
816.0607, 2545.751
816.5428, 2623.764
817.0250, 2661.831
817.5071, 2656.038
817.9892, 2619.539
818.4713, 2563.096
818.9534, 2487.143
819.4355, 2392.153
819.9177, 2275.151
820.3998, 2151.126
820.8819, 2017.932
821.3640, 1884.297
821.8461, 1753.380
822.3282, 1625.628
822.8104, 1501.307
823.2925, 1379.225
823.7746, 1266.720
824.2567, 1168.208
824.7388, 1075.879
825.2209, 984.7295
825.7031, 897.0215
826.1852, 815.1147
826.6673, 740.6362
827.1494, 678.3960
827.6315, 637.1787
828.1136, 605.3535
828.5958, 560.1318
829.0779, 505.2896
829.5600, 459.0762
830.0421, 424.7539
830.5242, 397.0327
831.0063, 372.4189
831.4885, 349.6245
831.9706, 324.9985
832.4527, 295.9058
832.9348, 271.4141
833.4169, 250.9297
833.8990, 236.0825
834.3812, 231.1792
834.8633, 229.8062
835.3454, 223.5903
835.8275, 211.8794
836.3096, 200.1494
836.7917, 190.0112
837.2739, 180.0952
837.7560, 169.4653
838.2381, 158.4883
838.7202, 147.2471
839.2023, 136.0557
839.6844, 125.8496
840.1666, 117.2856
840.6487, 110.5215
841.1308, 106.2114
841.6129, 104.0444
842.0950, 103.3213
842.5771, 104.2061
843.0593, 103.0000
843.5414, 97.02930
844.0235, 89.28711
844.5056, 85.54688
844.9877, 87.32568
845.4698, 85.49170
845.9520, 77.26562
846.4341, 69.08887
846.9162, 61.42627
847.3983, 55.23291
847.8804, 51.49805
848.3625, 50.03711
848.8447, 49.58105
849.3268, 49.66602
849.8089, 50.81543
850.2910, 54.74756
850.7731, 58.88281
851.2552, 60.38428
851.7374, 59.17139
852.2195, 55.37598
852.7016, 49.07227
853.1837, 43.80566
853.6658, 45.72021
854.1479, 52.81055
854.6301, 55.49072
855.1122, 53.60059
855.5943, 50.16895
856.0764, 46.25635
856.5585, 40.92725
857.0406, 32.44971
857.5228, 21.49951
858.0049, 15.04541
858.4870, 15.46436
858.9691, 16.40088
859.4512, 18.02002
859.9333, 19.35156
860.4155, 19.74268
860.8976, 19.48682
861.3797, 19.39111
861.8618, 19.96582
862.3439, 18.70264
862.8260, 10.50000
863.3082, 3.896484
863.7903, 7.821777
864.2724, 18.36719
864.7545, 27.82910
865.2366, 32.96191
865.7188, 33.07178
866.2009, 25.48730
866.6830, 14.66113
867.1651, 9.319336
867.6472, 8.605469
868.1293, 7.420410
868.6115, 4.960449
869.0936, 3.527344
869.5757, 4.416992
870.0578, 7.277832
870.5399, 11.91455
871.0220, 19.41309
871.5042, 23.06543
871.9863, 21.03613
872.4684, 18.16504
872.9505, 16.79004
873.4326, 14.59375
873.9147, 7.207031
874.3969, 3.766113
874.8790, 7.927734
875.3611, 3.201172
875.8432, 12.29443
876.3253, 12.02539
876.8074, 8.348145
877.2896, 6.305664
877.7717, 5.276855
878.2538, 1.367676
878.7359, 6.764648
879.2180, 12.26416
879.7001, 6.982910
880.1823, 4.196777
880.6644, 13.83936
881.1465, 21.31738
881.6286, 24.29785
882.1107, 22.59424
882.5928, 18.80322
883.0750, 14.69727
883.5571, 10.75781
884.0392, 9.381348
884.5213, 11.41406
885.0034, 13.48535
885.4855, 15.90234
885.9677, 16.97754
886.4498, 14.79980
886.9319, 11.60498
887.4140, 11.87305
887.8961, 16.70312
888.3782, 18.05127
888.8604, 11.64307
889.3425, 7.158691
889.8246, 9.122070
890.3067, 12.62451
890.7888, 13.55273
891.2709, 12.22754
891.7531, 11.04395
892.2352, 10.87891
892.7173, 10.86865
893.1994, 10.89893
893.6815, 10.45215
894.1636, 8.328613
894.6458, 5.224121
895.1279, 2.684082
895.6100, 1.315430
896.0921, 2.112793
896.5742, 7.349121
897.0563, 14.03369
897.5385, 11.93701
898.0206, 2.106934
898.5027, 9.4237998E-02
898.9848, 8.652832
899.4669, 18.15918
899.9490, 22.24463
900.4312, 21.82080
900.9133, 18.42188
901.3954, 10.59033
901.8775, 6.776855
902.3596, 9.250000
902.8417, 11.85352
903.3239, 13.20996
903.8060, 13.47021
904.2881, 12.02344
904.7702, 9.354004
905.2523, 8.489746
905.7344, 12.04199
906.2166, 14.13818
906.6987, 11.73975
907.1808, 8.985352
907.6629, 8.520020
908.1450, 10.01904
908.6271, 13.43311
909.1093, 18.51123
909.5914, 20.97510
910.0735, 15.01367
910.5556, 7.363770
911.0377, 5.813965
911.5198, 8.147949
912.0020, 10.52246
912.4841, 11.87402
912.9662, 11.26953
913.4483, 7.953125
913.9304, 3.543457
914.4125, 0.5869140
914.8947, 0.9995120
915.3768, 2.668457
915.8589, 4.597656
916.3410, 2.690430
916.8231, 5.414063
917.3052, 14.53223
917.7874, 19.10156
918.2695, 19.38916
918.7516, 17.32617
919.2337, 11.08447
919.7158, 7.084961
920.1979, 9.166504
920.6801, 9.291992
921.1622, 2.860352
921.6443, 17.30322
922.1264, 15.25049
922.6085, 7.212891
923.0906, 20.85547
923.5728, 12.68457
924.0549, 6.119629
924.5370, 13.62061
925.0191, 23.65625
925.5012, 23.43311
925.9833, 15.53564
926.4655, 12.00586
926.9476, 18.35400
927.4297, 25.25732
927.9118, 25.78906
928.3939, 23.92383
928.8760, 23.98682
929.3582, 25.19971
929.8403, 25.28223
930.3224, 23.78027
930.8045, 22.16699
931.2866, 21.91943
931.7687, 21.87695
932.2509, 20.65088
932.7330, 18.75781
933.2151, 19.37744
933.6972, 22.37158
934.1793, 25.81641
934.6614, 29.04736
935.1436, 30.65820
935.6257, 28.09570
936.1078, 21.60986
936.5899, 16.69922
937.0720, 13.85986
937.5541, 11.72900
938.0363, 10.53564
938.5184, 8.250977
939.0005, 2.441406
939.4826, 4.954590
939.9647, 8.434570
940.4468, 7.403320
940.9290, 4.137695
941.4111, 5.269043
941.8932, 11.78271
942.3753, 11.23047
942.8574, 7.910645
943.3395, 4.731934
943.8217, 2.302246
944.3038, 2.293457
944.7859, 6.921387
945.2680, 10.49609
945.7501, 11.01465
946.2322, 9.752441
946.7144, 5.033691
947.1965, 0.3251950
947.6786, 2.617676
948.1607, 12.37402
948.6428, 19.95117
949.1249, 17.38330
949.6071, 12.43506
950.0892, 13.80664
950.5713, 17.52588
951.0534, 15.95801
951.5355, 9.749512
952.0176, 4.860352
952.4998, 3.959473
952.9819, 5.068848
953.4640, 6.318359
953.9461, 7.572754
954.4282, 7.776855
954.9103, 7.288574
955.3925, 9.766602
955.8746, 15.97168
956.3567, 20.83105
956.8388, 20.74756
957.3209, 17.80713
957.8030, 16.96484
958.2852, 18.64941
958.7673, 16.74805
959.2494, 10.03711
959.7315, 4.506836
960.2136, 2.059570
960.6957, 1.296387
961.1779, 1.074219
961.6600, 1.429199
962.1421, 2.694336
962.6242, 5.701660
963.1063, 7.643555
963.5884, 8.180664
964.0706, 8.195801
964.5527, 7.732422
965.0348, 7.062500
965.5169, 6.354004
965.9990, 5.667480
966.4811, 5.488770
966.9633, 5.762695
967.4454, 6.642090
967.9275, 8.550781
968.4096, 10.57031
968.8917, 12.37646
969.3738, 13.80225
969.8560, 14.54199
970.3381, 14.55957
970.8202, 14.40869
971.3023, 14.81055
971.7844, 14.55713
972.2665, 12.19971
972.7487, 9.111328
973.2308, 6.520020
973.7129, 4.819336
974.1950, 5.093750
974.6771, 7.831543
975.1592, 10.24316
975.6414, 9.660156
976.1235, 7.607910
976.6056, 5.335449
977.0877, 3.548340
977.5698, 4.397461
978.0519, 7.852539
978.5341, 11.65088
979.0162, 14.23486
979.4983, 14.56543
979.9804, 12.24805
980.4625, 9.148926
980.9446, 7.548340
981.4268, 7.456055
981.9089, 9.320313
982.3910, 13.33643
982.8731, 16.77783
983.3552, 17.29785
983.8373, 16.02539
984.3195, 16.49023
984.8016, 19.00586
985.2837, 16.04590
985.7658, 5.455078
986.2479, 1.491211
986.7300, 11.96191
987.2122, 22.52783
987.6943, 17.56152
988.1764, 0.9287110
988.6585, 6.683594
989.1406, 2.581055
989.6227, 3.041992
990.1049, 11.94287
990.5870, 18.41895
991.0691, 19.90820
991.5512, 18.05371
992.0333, 13.32910
992.5154, 5.980957
992.9976, 3.166992
993.4797, 9.855957
993.9618, 13.49609
994.4439, 10.89990
994.9260, 8.008789
995.4081, 6.403809
995.8903, 6.865723
996.3724, 12.03027
996.8545, 21.77588
997.3366, 26.22266
997.8187, 18.29590
998.3008, 12.76611
998.7830, 16.33936
999.2651, 21.54785
999.7472, 22.74658
1000.229, 21.19189
1000.711, 19.80518
1001.194, 19.15918
1001.676, 17.83936
1002.158, 14.32422
1002.640, 11.10107
1003.122, 9.322754
1003.604, 8.785645
1004.086, 10.10254
1004.568, 12.28564
1005.050, 13.50391
1005.533, 13.29248
1006.015, 11.20117
1006.497, 3.488281
1006.979, 2.935547
1007.461, 0.9638670
1007.943, 9.450195
1008.425, 13.95752
1008.907, 14.03076
1009.390, 12.62012
1009.872, 10.98682
1010.354, 9.264160
1010.836, 6.749023
1011.318, 4.718750
1011.800, 5.116699
1012.282, 7.719727
1012.764, 13.31006
1013.246, 20.98096
1013.729, 26.13770
1014.211, 26.33057
1014.693, 23.49316
1015.175, 18.33154
1015.657, 12.66260
1016.139, 13.15527
1016.621, 18.36523
1017.103, 21.28516
1017.586, 20.50049
1018.068, 16.37402
1018.550, 8.901367
1019.032, 0.7250980
1019.514, 4.056641
1019.996, 5.519531
1020.478, 3.398926
1020.960, 2.211914
1021.442, 8.385742
1021.925, 14.68555
1022.407, 16.87305
1022.889, 11.24707
1023.371, 2.511719
1023.853, 0.3344730
1024.335, 4.752930
1024.817, 8.164063
1025.299, 10.28760
1025.781, 14.09424
1026.264, 21.30518
1026.746, 25.67188
1027.228, 21.79297
1027.710, 13.18018
1028.192, 8.124023
1028.674, 6.998535
1029.156, 6.729492
1029.638, 7.576660
1030.120, 8.348633
1030.603, 8.131348
1031.085, 9.201172
1031.567, 13.83936
1032.049, 20.71387
1032.531, 26.60107
1033.013, 32.21484
1033.495, 33.51709
1033.977, 29.64844
1034.460, 23.10205
1034.942, 11.18066
1035.424, 1.599121
1035.906, 1.961426
1036.388, 8.789063
1036.870, 11.93652
1037.352, 9.750000
1037.834, 9.778320
1038.317, 16.11768
1038.799, 18.37109
1039.281, 9.087891
1039.763, 6.7382999E-02
1040.245, 1.181152
1040.727, 9.279297
1041.209, 14.10449
1041.691, 14.92090
1042.173, 14.68994
1042.656, 14.16064
1043.138, 11.59424
1043.620, 2.144043
1044.102, 5.533691
1044.584, 4.295898
1045.066, 3.677734
1045.548, 13.56738
1046.030, 26.85400
1046.512, 34.16211
1046.995, 31.10107
1047.477, 27.72217
1047.959, 27.54980
1048.441, 27.54443
1048.923, 23.65332
1049.405, 18.32568
1049.887, 17.92480
1050.369, 24.17871
1050.852, 30.16846
1051.334, 36.41309
1051.816, 39.92725
1052.298, 35.78027
1052.780, 32.02002
1053.262, 36.84863
1053.744, 46.75049
1054.226, 52.58789
1054.708, 52.20752
1055.191, 53.88281
1055.673, 60.76904
1056.155, 68.81592
1056.637, 77.96973
1057.119, 86.32422
1057.601, 90.70850
1058.083, 93.95850
1058.565, 101.3442
1059.047, 113.5703
1059.530, 127.7622
1060.012, 143.3086
1060.494, 160.6406
1060.976, 181.1465
1061.458, 202.6851
1061.940, 225.0996
1062.422, 245.5840
1062.904, 260.6699
1063.387, 269.6416
1063.869, 270.8804
1064.351, 261.6333
1064.833, 247.3931
1065.315, 229.2305
1065.797, 208.4839
1066.279, 184.7778
1066.761, 159.8579
1067.244, 136.5874
1067.726, 116.0259
1068.208, 97.83545
1068.690, 81.42383
1069.172, 67.92188
1069.654, 57.47168
1070.136, 50.57031
1070.618, 50.00342
1071.100, 52.16797
1071.583, 51.39893
1072.065, 47.03809
1072.547, 42.59619
1073.029, 39.32471
1073.511, 36.40527
1073.993, 32.48145
1074.475, 29.81104
1074.957, 30.76807
1075.439, 33.76318
1075.922, 37.39893
1076.404, 40.76465
1076.886, 40.94678
1077.368, 34.60645
1077.850, 29.86670
1078.332, 33.20752
1078.814, 36.94727
1079.297, 35.25879
1079.779, 30.59717
1080.261, 25.32471
1080.743, 20.49414
1081.225, 18.69189
1081.707, 21.85645
1082.189, 24.52490
1082.671, 23.93555
1083.153, 22.35254
1083.635, 20.47852
1084.118, 19.03125
1084.600, 18.76709
1085.082, 19.55518
1085.564, 21.19287
1086.046, 24.21240
1086.528, 24.78027
1087.010, 19.11426
1087.492, 13.22021
1087.975, 10.12061
1088.457, 8.638184
1088.939, 6.957520
1089.421, 5.894043
1089.903, 8.563477
1090.385, 16.16504
1090.867, 20.86084
1091.349, 16.98828
1091.832, 12.90088
1092.314, 12.19385
1092.796, 13.10889
1093.278, 14.42871
1093.760, 16.08350
1094.242, 19.08594
1094.724, 23.46826
1095.206, 24.32812
1095.688, 14.64453
1096.171, 8.740234
1096.653, 16.04932
1097.135, 24.15186
1097.617, 24.01904
1098.099, 19.38477
1098.581, 16.20801
1099.063, 15.02686
1099.545, 13.42529
1100.027, 9.636719
1100.510, 7.312988
1100.992, 8.395020
1101.474, 9.957031
1101.956, 11.00244
1102.438, 11.16992
1102.920, 8.681152
1103.402, 4.438965
1103.884, 3.787109
1104.367, 9.915039
1104.849, 13.69092
1105.331, 11.27930
1105.813, 9.118164
1106.295, 9.336914
1106.777, 11.10156
1107.259, 14.52637
1107.741, 18.77002
1108.224, 21.64697
1108.706, 22.90723
1109.188, 23.10059
1109.670, 22.36572
1110.152, 20.45898
1110.634, 16.61670
1111.116, 12.31641
1111.598, 6.764648
1112.080, 2.055664
1112.563, 3.091309
1113.045, 10.88525
1113.527, 15.57324
1114.009, 17.84473
1114.491, 15.83301
1114.973, 5.845215
1115.455, 3.825195
1115.937, 11.41699
1116.419, 14.60107
1116.902, 7.401367
1117.384, 8.579102
1117.866, 13.28369
1118.348, 1.189453
1118.830, 8.326660
1119.312, 4.298340
1119.794, 1.371582
1120.276, 6.989258
1120.759, 10.24219
1121.241, 8.080566
1121.723, 2.211426
1122.205, 1.198242
1122.687, 1.577148
1123.169, 2.885742
1123.651, 6.805664
1124.133, 5.465820
1124.615, 5.102051
1125.098, 15.05176
1125.580, 17.24414
1126.062, 15.20117
1126.544, 15.91650
1127.026, 19.29150
1127.508, 18.91895
1127.990, 13.95459
1128.472, 13.58252
1128.954, 20.13965
1129.437, 23.75244
1129.919, 18.91211
1130.401, 12.78320
1130.883, 14.88867
1131.365, 22.30029
1131.847, 22.56348
1132.329, 16.09424
1132.811, 10.89111
1133.294, 7.574219
1133.776, 7.155273
1134.258, 9.970703
1134.740, 11.98438
1135.222, 9.354980
1135.704, 5.838867
1136.186, 10.73828
1136.668, 20.99707
1137.151, 23.17627
1137.633, 18.82617
1138.115, 16.30566
1138.597, 17.68750
1139.079, 24.90771
1139.561, 39.32812
1140.043, 50.74170
1140.525, 43.24658
1141.007, 26.94482
1141.490, 20.66162
1141.972, 20.95801
1142.454, 20.64258
1142.936, 19.13574
1143.418, 18.72070
1143.900, 19.95557
1144.382, 20.04590
1144.864, 15.51074
1145.346, 11.56787
1145.829, 15.10156
1146.311, 21.51514
1146.793, 26.91553
1147.275, 29.72266
1147.757, 25.96680
1148.239, 17.07812
1148.721, 11.93311
1149.203, 15.23145
1149.686, 19.27979
1150.168, 19.24951
1150.650, 18.14893
1151.132, 17.93311
1151.614, 18.15283
1152.096, 17.60498
1152.578, 17.10352
1153.060, 19.18994
1153.542, 24.50635
1154.025, 28.24756
1154.507, 27.73682
1154.989, 26.89795
1155.471, 26.32617
1155.953, 26.48584
1156.435, 28.69189
1156.917, 31.13525
1157.399, 31.08203
1157.881, 28.62549
1158.364, 26.35791
1158.846, 22.25000
1159.328, 22.64209
1159.810, 34.35986
1160.292, 41.95020
1160.774, 37.88135
1161.256, 31.64893
1161.738, 31.53174
1162.221, 34.34033
1162.703, 31.53955
1163.185, 22.02246
1163.667, 18.23828
1164.149, 21.86914
1164.631, 24.62402
1165.113, 25.70361
1165.595, 26.43848
1166.078, 27.36768
1166.560, 28.43213
1167.042, 29.44580
1167.524, 30.62842
1168.006, 33.05273
1168.488, 36.73633
1168.970, 41.39502
1169.452, 47.20020
1169.934, 48.08984
1170.417, 42.26074
1170.899, 36.40479
1171.381, 35.41113
1171.863, 36.64111
1172.345, 35.13965
1172.827, 32.43018
1173.309, 35.23779
1173.791, 41.28809
1174.273, 42.04443
1174.756, 37.81982
1175.238, 33.87158
1175.720, 31.67871
1176.202, 30.04492
1176.684, 27.87891
1177.166, 26.45996
1177.648, 27.17236
1178.130, 28.45508
1178.613, 27.15723
1179.095, 25.28418
1179.577, 29.22217
1180.059, 37.46045
1180.541, 39.04346
1181.023, 27.97852
1181.505, 17.29297
1181.987, 15.10693
1182.469, 16.83838
1182.952, 20.08789
1183.434, 24.12646
1183.916, 29.37695
1184.398, 34.51318
1184.880, 37.56934
1185.362, 38.19385
1185.844, 35.86621
1186.326, 26.74316
1186.808, 20.52197
1187.291, 18.56592
1187.773, 20.19092
1188.255, 28.55469
1188.737, 37.32471
1189.219, 41.60938
1189.701, 41.51318
1190.183, 36.41162
1190.665, 23.91064
1191.148, 19.11768
1191.630, 25.38330
1192.112, 30.32520
1192.594, 32.35205
1193.076, 31.68164
1193.558, 26.96240
1194.040, 21.03320
1194.522, 18.31104
1195.005, 18.31299
1195.487, 18.66357
1195.969, 19.31201
1196.451, 16.75684
1196.933, 11.16260
1197.415, 10.94629
1197.897, 17.96729
1198.379, 24.82471
1198.861, 26.87793
1199.344, 25.77930
1199.826, 23.00684
1200.308, 19.21387
1200.790, 14.75049
1201.272, 10.72119
1201.754, 10.52734
1202.236, 12.93799
1202.718, 12.71875
1203.200, 9.032227
1203.683, 7.937500
1204.165, 14.45996
1204.647, 20.71875
1205.129, 20.89404
1205.611, 18.16162
1206.093, 12.91504
1206.575, 8.023438
1207.057, 6.270996
1207.540, 7.928223
1208.022, 14.06494
1208.504, 25.63525
1208.986, 31.49268
1209.468, 23.19287
1209.950, 17.55420
1210.432, 21.60840
1210.914, 25.18994
1211.396, 22.41211
1211.879, 17.18604
1212.361, 12.52051
1212.843, 8.963867
1213.325, 9.275879
1213.807, 14.94141
1214.289, 17.27881
1214.771, 15.66504
1215.253, 12.72607
1215.735, 8.211426
1216.218, 6.974609
1216.700, 12.43604
1217.182, 18.14209
1217.664, 15.38965
1218.146, 7.516113
1218.628, 5.844727
1219.110, 8.764160
1219.592, 7.590332
1220.075, 2.647461
1220.557, 3.056152
1221.039, 7.900879
1221.521, 6.574219
1222.003, 4.157227
1222.485, 16.12939
1222.967, 22.09424
1223.449, 23.90283
1223.932, 23.19043
1224.414, 20.02393
1224.896, 11.81006
1225.378, 2.519531
1225.860, 0.1416020
1226.342, 4.114258
1226.824, 7.977051
1227.306, 9.357910
1227.788, 8.913574
1228.271, 3.464355
1228.753, 0.6967770
1229.235, 7.588867
1229.717, 14.79004
1230.199, 13.41162
1230.681, 7.898438
1231.163, 6.703125
1231.645, 9.725098
1232.127, 12.27832
1232.610, 14.52783
1233.092, 15.69336
1233.574, 15.36426
1234.056, 14.96338
1234.538, 14.75537
1235.020, 15.71436
1235.502, 19.04004
1235.984, 22.05322
1236.467, 19.18018
1236.949, 12.45557
1237.431, 11.63818
1237.913, 14.89893
1238.395, 12.66113
1238.877, 5.777832
1239.359, 4.186523
1239.841, 9.856445
1240.323, 13.62207
1240.806, 8.969727
1241.288, 3.867676
1241.770, 6.813477
1242.252, 12.02002
1242.734, 14.58594
1243.216, 15.52588
1243.698, 17.36914
1244.180, 18.68164
1244.662, 14.69434
1245.145, 5.432129
1245.627, 0.9960940
1246.109, 8.104492
1246.591, 12.33740
1247.073, 7.973145
1247.555, 4.953613
1248.037, 8.443359
1248.519, 12.45996
1249.002, 13.29053
1249.484, 10.82324
1249.966, 3.953125
1250.448, 6.813965
1250.930, 9.457520
1251.412, 3.172852
1251.894, 1.704590
1252.376, 6.659180
1252.859, 8.926758
1253.341, 6.484375
1253.823, 5.986816
1254.305, 12.01953
1254.787, 19.51660
1255.269, 20.78613
1255.751, 17.82812
1256.233, 12.99561
1256.715, 8.494141
1257.198, 10.82764
1257.680, 17.01416
1258.162, 16.89307
1258.644, 10.08301
1259.126, 8.339844
1259.608, 18.64209
1260.090, 26.48682
1260.572, 22.69971
1261.054, 18.18945
1261.537, 20.29932
1262.019, 22.12646
1262.501, 16.64893
1262.983, 9.088379
1263.465, 8.226563
1263.947, 13.03076
1264.429, 15.90234
1264.911, 17.00146
1265.394, 17.22217
1265.876, 16.20605
1266.358, 17.80859
1266.840, 19.16260
1267.322, 20.88672
1267.804, 16.94385
1268.286, 11.74805
1268.768, 12.99170
1269.250, 17.86328
1269.733, 21.97607
1270.215, 24.33057
1270.697, 19.92773
1271.179, 11.86523
1271.661, 8.977051
1272.143, 11.51709
1272.625, 14.37451
1273.107, 15.43311
1273.589, 15.40918
1274.072, 12.96045
1274.554, 11.23145
1275.036, 13.26562
1275.518, 15.36426
1276.000, 15.45557
1276.482, 14.00195
1276.964, 11.06055
1277.446, 7.835938
1277.929, 6.175293
1278.411, 6.230469
1278.893, 7.131836
1279.375, 9.737793
1279.857, 10.01807
1280.339, 7.278809
1280.821, 3.681152
1281.303, 0.1274410
1281.786, 0.6401370
1282.268, 0.0000000E+00
##END=



