##NAMES=Jimkrieghite
##RRUFFID=R220012
##IDEAL CHEMISTRY=Ca(C_2_H_3_O_3_)^1-^_2_
##LOCALITY=Western end of Pusch Ridge in the Santa Catalina Mountains, north of Tucson, Pima County, Arizona, USA
##OWNER=RRUFF
##SOURCE=Warren Lazar
##DESCRIPTION=Colorless short prismatic or pseudo-cubic crystals, associated with blue lazaraskeite.
##STATUS=The identification of this mineral is confirmed by single-crystal X-ray diffraction and chemical analysis.
##URL=rruff.info/R220012
87.58203, 0.0000000E+00
88.06415, 1.956238
88.54626, 0.7227780
89.02838, 5.703674
89.51050, 18.68359
89.99261, 38.47504
90.47473, 64.37659
90.95685, 93.57690
91.43896, 124.4622
91.92108, 157.2303
92.40320, 189.2086
92.88531, 207.7286
93.36743, 211.5768
93.84955, 210.1993
94.33167, 216.5228
94.81378, 222.6140
95.29590, 229.9354
95.77802, 238.4372
96.26013, 244.6810
96.74225, 247.6073
97.22437, 247.1497
97.70648, 244.1855
98.18860, 237.2252
98.67072, 228.3343
99.15283, 219.5386
99.63495, 210.7469
100.1171, 200.2532
100.5992, 185.7013
101.0813, 165.4818
101.5634, 145.5062
102.0455, 125.7740
102.5277, 109.8914
103.0098, 96.87360
103.4919, 82.90436
103.9740, 65.79257
104.4561, 50.65973
104.9382, 40.14993
105.4204, 31.76053
105.9025, 25.60486
106.3846, 21.72363
106.8667, 19.94049
107.3488, 20.11340
107.8309, 22.41354
108.3131, 27.16101
108.7952, 34.98505
109.2773, 44.19266
109.7594, 54.60373
110.2415, 66.07477
110.7236, 76.85376
111.2058, 87.07333
111.6879, 95.50943
112.1700, 98.06268
112.6521, 91.84479
113.1342, 79.79523
113.6163, 66.17288
114.0985, 50.17313
114.5806, 35.02261
115.0627, 22.85001
115.5448, 14.02203
116.0269, 6.801483
116.5090, 0.6767880
116.9912, 4.075409
117.4733, 8.095490
117.9554, 11.24548
118.4375, 12.54022
118.9196, 11.11823
119.4017, 7.085480
119.8839, 1.596497
120.3660, 4.051605
120.8481, 9.841400
121.3302, 15.80478
121.8123, 21.94388
122.2944, 28.18109
122.7766, 35.01233
123.2587, 42.38297
123.7408, 49.28049
124.2229, 53.76303
124.7050, 53.00473
125.1871, 53.55057
125.6693, 55.50671
126.1514, 58.82385
126.6335, 63.36572
127.1156, 69.09720
127.5977, 76.04721
128.0798, 84.42831
128.5620, 94.66409
129.0441, 105.2257
129.5262, 116.2486
130.0083, 127.4462
130.4904, 137.4120
130.9725, 146.2022
131.4547, 152.4228
131.9368, 154.3161
132.4189, 150.8535
132.9010, 144.1447
133.3831, 135.6133
133.8652, 124.9594
134.3474, 114.4623
134.8295, 105.1362
135.3116, 96.70950
135.7937, 89.03418
136.2758, 82.27957
136.7579, 76.11624
137.2401, 69.63266
137.7222, 62.61478
138.2043, 55.43289
138.6864, 47.84375
139.1685, 40.20648
139.6507, 33.06763
140.1328, 26.97430
140.6149, 21.86807
141.0970, 16.38104
141.5791, 9.024628
142.0612, 2.674805
142.5434, 2.057159
143.0255, 5.159149
143.5076, 6.726807
143.9897, 6.654999
144.4718, 4.528351
144.9539, 3.100769
145.4361, 2.689148
145.9182, 2.093170
146.4003, 4.7729000E-02
146.8824, 3.537598
147.3645, 7.765503
147.8466, 11.52316
148.3288, 14.35406
148.8109, 18.90753
149.2930, 26.26971
149.7751, 34.91052
150.2572, 43.31531
150.7393, 51.17508
151.2215, 58.72791
151.7036, 66.22162
152.1857, 73.63307
152.6678, 81.11739
153.1499, 89.28949
153.6320, 97.57541
154.1142, 104.8502
154.5963, 111.6850
155.0784, 115.8403
155.5605, 115.0683
156.0426, 109.4506
156.5247, 102.4290
157.0069, 96.19023
157.4890, 90.72098
157.9711, 85.23506
158.4532, 80.15671
158.9353, 74.51233
159.4174, 67.26544
159.8996, 58.31131
160.3817, 49.22765
160.8638, 41.78886
161.3459, 36.27322
161.8280, 31.64371
162.3102, 28.35254
162.7923, 25.47040
163.2744, 22.31418
163.7565, 18.70212
164.2386, 15.11589
164.7207, 12.40660
165.2029, 11.24316
165.6850, 10.06134
166.1671, 8.747467
166.6492, 7.405945
167.1313, 6.049332
167.6134, 4.677704
168.0956, 3.349930
168.5777, 2.242569
169.0598, 1.141495
169.5419, 0.5473020
170.0240, 0.7582550
170.5061, 1.443893
170.9883, 2.120056
171.4704, 2.527344
171.9525, 2.793839
172.4346, 3.472000
172.9167, 4.187607
173.3988, 5.487518
173.8810, 7.759201
174.3631, 10.66112
174.8452, 13.44756
175.3273, 15.77998
175.8094, 17.90155
176.2915, 20.44051
176.7737, 23.86360
177.2558, 27.67993
177.7379, 31.65308
178.2200, 35.69606
178.7021, 39.78093
179.1842, 44.23503
179.6664, 48.55643
180.1485, 51.91602
180.6306, 54.22838
181.1127, 55.54440
181.5948, 55.81938
182.0769, 54.98976
182.5591, 53.34830
183.0412, 50.47762
183.5233, 47.03944
184.0054, 43.61371
184.4875, 40.53998
184.9696, 37.58730
185.4518, 34.16730
185.9339, 29.77788
186.4160, 26.20486
186.8981, 24.39825
187.3802, 23.51826
187.8623, 22.62952
188.3445, 21.32175
188.8266, 19.74525
189.3087, 18.36856
189.7908, 16.97217
190.2729, 16.15546
190.7550, 16.51567
191.2372, 17.37692
191.7193, 17.85310
192.2014, 17.41591
192.6835, 16.18376
193.1656, 15.02167
193.6477, 13.53616
194.1299, 12.58990
194.6120, 12.87158
195.0941, 13.72075
195.5762, 13.99730
196.0583, 12.87103
196.5404, 10.48727
197.0226, 9.453461
197.5047, 10.78406
197.9868, 12.27045
198.4689, 13.73257
198.9510, 14.90913
199.4331, 15.24991
199.9153, 14.25662
200.3974, 11.81131
200.8795, 10.08469
201.3616, 9.371185
201.8437, 9.160034
202.3258, 9.486816
202.8080, 10.21599
203.2901, 11.11482
203.7722, 12.24811
204.2543, 13.57239
204.7364, 13.95535
205.2185, 12.49767
205.7007, 10.84071
206.1828, 9.944366
206.6649, 9.811539
207.1470, 10.07602
207.6291, 10.63605
208.1112, 11.40996
208.5934, 11.96617
209.0755, 11.96297
209.5576, 11.94061
210.0397, 12.43172
210.5218, 13.45587
211.0039, 14.53551
211.4861, 15.10657
211.9682, 15.56915
212.4503, 16.78331
212.9324, 19.50787
213.4145, 22.62546
213.8967, 24.71541
214.3788, 25.61491
214.8609, 26.29247
215.3430, 26.85622
215.8251, 27.63268
216.3072, 29.17756
216.7894, 31.96371
217.2715, 35.34486
217.7536, 38.31229
218.2357, 40.90733
218.7178, 42.90357
219.1999, 43.84114
219.6821, 44.30365
220.1642, 44.99159
220.6463, 46.31932
221.1284, 47.85509
221.6105, 48.64566
222.0926, 48.57019
222.5748, 47.90510
223.0569, 46.64980
223.5390, 45.01991
224.0211, 43.22636
224.5032, 41.35971
224.9853, 39.39127
225.4675, 37.17239
225.9496, 34.49236
226.4317, 31.93691
226.9138, 29.38982
227.3959, 27.10168
227.8780, 25.48275
228.3602, 24.76476
228.8423, 24.60368
229.3244, 23.89584
229.8065, 22.31046
230.2886, 20.56374
230.7707, 18.56483
231.2529, 16.52649
231.7350, 14.63677
232.2171, 12.98570
232.6992, 11.58648
233.1813, 10.46967
233.6634, 10.14099
234.1456, 9.476616
234.6277, 8.109322
235.1098, 6.469246
235.5919, 5.030586
236.0740, 4.006302
236.5561, 3.295685
237.0383, 2.625854
237.5204, 1.912399
238.0025, 1.362770
238.4846, 1.199562
238.9667, 1.138153
239.4488, 0.7165830
239.9310, 0.2791290
240.4131, 1.454437
240.8952, 1.781700
241.3773, 0.2352830
241.8594, 0.7420350
242.3415, 0.7152560
242.8237, 6.2674999E-02
243.3058, 0.9110950
243.7879, 2.149277
244.2700, 3.313675
244.7521, 3.619125
245.2342, 2.645325
245.7164, 1.725281
246.1985, 1.091652
246.6806, 0.6136320
247.1627, 2.0088000E-02
247.6448, 0.8199540
248.1269, 1.553177
248.6091, 1.421722
249.0912, 0.1522290
249.5733, 0.8629230
250.0554, 1.249741
250.5375, 1.257782
251.0196, 1.282837
251.5018, 1.450691
251.9839, 1.516563
252.4660, 0.9957200
252.9481, 0.1525650
253.4302, 1.068504
253.9123, 1.350510
254.3945, 1.306000
254.8766, 1.461304
255.3587, 2.058586
255.8408, 2.572250
256.3229, 1.941818
256.8051, 0.3099060
257.2872, 0.6764910
257.7693, 3.8054999E-02
258.2514, 1.390182
258.7335, 2.196350
259.2156, 2.099380
259.6978, 1.772469
260.1799, 1.947342
260.6620, 2.439468
261.1441, 2.624153
261.6262, 2.029015
262.1083, 1.096123
262.5905, 0.5072940
263.0726, 0.3278810
263.5547, 0.3877640
264.0368, 0.7564320
264.5189, 1.294518
265.0010, 1.701897
265.4832, 1.697235
265.9653, 1.521629
266.4474, 1.528008
266.9295, 1.737930
267.4116, 2.050941
267.8937, 2.623886
268.3759, 3.229225
268.8580, 3.475883
269.3401, 2.978180
269.8222, 2.302773
270.3043, 2.476807
270.7864, 3.785965
271.2686, 4.741753
271.7507, 4.104324
272.2328, 2.877403
272.7149, 2.102203
273.1970, 2.124611
273.6791, 2.542015
274.1613, 2.835564
274.6434, 2.967079
275.1255, 3.154510
275.6076, 3.567276
276.0897, 4.036514
276.5718, 4.439369
277.0540, 4.750420
277.5361, 4.982643
278.0182, 5.162033
278.5003, 5.297195
278.9824, 5.321068
279.4645, 5.158928
279.9467, 4.908409
280.4288, 4.512894
280.9109, 3.977066
281.3930, 3.650116
281.8751, 4.066475
282.3572, 5.316193
282.8394, 6.200439
283.3215, 6.411156
283.8036, 6.267349
284.2857, 5.741188
284.7678, 4.928543
285.2499, 4.258049
285.7321, 4.167542
286.2142, 4.670609
286.6963, 5.205490
287.1784, 5.792137
287.6605, 6.355927
288.1426, 6.948669
288.6248, 7.506790
289.1069, 7.844826
289.5890, 7.753456
290.0711, 7.271362
290.5532, 6.908028
291.0353, 6.747353
291.5175, 6.613274
291.9996, 6.251610
292.4817, 5.865265
292.9638, 5.909683
293.4459, 6.873154
293.9280, 8.413864
294.4102, 8.896812
294.8923, 7.608421
295.3744, 6.343178
295.8565, 5.597366
296.3386, 5.214584
296.8207, 5.017029
297.3029, 4.937294
297.7850, 4.939949
298.2671, 4.948273
298.7492, 5.062866
299.2313, 5.106842
299.7134, 5.069061
300.1956, 4.870110
300.6777, 4.341118
301.1598, 3.395569
301.6419, 2.327667
302.1240, 1.731682
302.6061, 1.876831
303.0883, 1.951584
303.5704, 1.708733
304.0525, 1.416382
304.5346, 1.200516
305.0167, 1.100311
305.4988, 1.144012
305.9810, 1.510818
306.4631, 2.366302
306.9452, 2.743446
307.4273, 2.159637
307.9094, 1.383240
308.3915, 0.6716080
308.8737, 8.1832998E-02
309.3558, 0.3786160
309.8379, 0.7077790
310.3200, 0.8898470
310.8021, 0.7825550
311.2842, 0.1555330
311.7664, 0.7674100
312.2485, 0.3554460
312.7306, 0.7052920
313.2127, 1.588371
313.6948, 1.712898
314.1769, 1.191002
314.6591, 0.6498950
315.1412, 9.8830998E-02
315.6233, 0.5814210
316.1054, 0.4519580
316.5875, 3.6819000E-02
317.0696, 0.2275700
317.5518, 0.1225130
318.0339, 0.2264330
318.5160, 0.4771880
318.9981, 0.4815060
319.4802, 0.6993560
319.9623, 1.710808
320.4445, 2.696182
320.9266, 2.747459
321.4087, 1.600739
321.8908, 8.3618000E-02
322.3729, 0.5140990
322.8550, 7.2555996E-02
323.3372, 0.6349180
323.8193, 1.110527
324.3014, 1.445862
324.7835, 1.574615
325.2656, 1.503906
325.7477, 1.330620
326.2299, 1.042656
326.7120, 0.5904010
327.1941, 0.5423890
327.6762, 1.317627
328.1583, 2.137375
328.6404, 2.808014
329.1226, 3.261086
329.6047, 3.382240
330.0868, 2.970650
330.5689, 2.133278
331.0510, 1.545784
331.5331, 1.048752
332.0153, 1.109932
332.4974, 2.163628
332.9795, 3.730240
333.4616, 5.160446
333.9437, 6.191116
334.4258, 6.841560
334.9080, 7.049248
335.3901, 6.565971
335.8722, 6.304260
336.3543, 6.751488
336.8365, 7.392632
337.3186, 7.769951
337.8007, 7.750694
338.2828, 7.662895
338.7649, 7.985893
339.2470, 8.795486
339.7292, 9.337624
340.2113, 9.223816
340.6934, 8.982262
341.1755, 9.102089
341.6576, 9.534393
342.1397, 9.627419
342.6219, 8.417450
343.1040, 6.134262
343.5861, 5.090546
344.0682, 6.341194
344.5503, 7.507813
345.0324, 6.950325
345.5146, 5.252708
345.9967, 3.859222
346.4788, 3.728477
346.9609, 4.373932
347.4430, 4.536339
347.9251, 3.973938
348.4073, 3.391640
348.8894, 3.105118
349.3715, 3.047104
349.8536, 3.221535
350.3357, 3.778267
350.8178, 4.305038
351.3000, 4.097961
351.7821, 3.047417
352.2642, 2.212769
352.7463, 2.068466
353.2284, 2.238365
353.7105, 2.354744
354.1927, 2.399559
354.6748, 2.374146
355.1569, 2.226707
355.6390, 1.995354
356.1211, 1.867661
356.6032, 1.943810
357.0854, 2.013870
357.5675, 1.761436
358.0496, 1.277565
358.5317, 1.058113
359.0138, 1.535049
359.4959, 2.297188
359.9781, 2.697212
360.4602, 2.680161
360.9423, 2.439064
361.4244, 1.798355
361.9065, 1.081398
362.3886, 1.089180
362.8708, 2.496040
363.3529, 4.015625
363.8350, 4.391190
364.3171, 3.821953
364.7992, 3.634682
365.2813, 4.526848
365.7635, 6.016663
366.2456, 7.171112
366.7277, 7.972961
367.2098, 8.499390
367.6919, 8.677574
368.1740, 8.632591
368.6562, 8.505180
369.1383, 8.304718
369.6204, 8.328766
370.1025, 9.209076
370.5846, 11.00166
371.0667, 12.10814
371.5489, 11.72042
372.0310, 11.01077
372.5131, 11.06276
372.9952, 11.91367
373.4773, 12.87507
373.9594, 13.54015
374.4416, 13.88656
374.9237, 13.86689
375.4058, 13.38763
375.8879, 12.72163
376.3700, 11.62610
376.8521, 10.40736
377.3343, 9.822815
377.8164, 10.28231
378.2985, 11.25526
378.7806, 11.48022
379.2627, 10.52220
379.7448, 9.511566
380.2270, 8.362221
380.7091, 7.312973
381.1912, 6.452568
381.6733, 5.819359
382.1554, 5.545364
382.6375, 5.857750
383.1197, 6.998817
383.6018, 7.514824
384.0839, 7.114952
384.5660, 6.481483
385.0481, 5.761795
385.5302, 5.061554
386.0124, 4.544357
386.4945, 4.337975
386.9766, 4.413651
387.4587, 4.388542
387.9408, 4.405029
388.4229, 4.212318
388.9051, 3.421440
389.3872, 2.620110
389.8693, 2.489731
390.3514, 3.220772
390.8335, 4.215073
391.3156, 4.474907
391.7978, 3.767387
392.2799, 2.944847
392.7620, 1.608643
393.2441, 0.5129850
393.7262, 0.1921080
394.2083, 0.5109790
394.6905, 0.8870770
395.1726, 0.8237150
395.6547, 0.3815920
396.1368, 0.2005620
396.6189, 0.4473190
397.1010, 0.7315060
397.5832, 1.027962
398.0653, 1.253731
398.5474, 1.295937
399.0295, 1.103943
399.5116, 0.7524720
399.9937, 0.2604900
400.4759, 0.4656910
400.9580, 0.8370060
401.4401, 0.4667510
401.9222, 0.1375730
402.4043, 0.8095090
402.8864, 1.489037
403.3686, 1.824852
403.8507, 1.241287
404.3328, 2.2614000E-02
404.8149, 0.5372920
405.2970, 0.1687160
405.7791, 0.4915080
406.2613, 1.364586
406.7434, 2.194748
407.2255, 2.366066
407.7076, 1.178833
408.1897, 0.2520070
408.6718, 0.5646440
409.1540, 0.1832280
409.6361, 0.9014360
410.1182, 1.144150
410.6003, 1.098434
411.0824, 1.093597
411.5645, 1.126221
412.0467, 1.150551
412.5288, 1.134918
413.0109, 1.107201
413.4930, 1.146301
413.9751, 1.279716
414.4572, 1.368828
414.9394, 1.220207
415.4215, 0.8359070
415.9036, 0.6706390
416.3857, 0.8940890
416.8678, 1.203743
417.3499, 1.490593
417.8321, 1.671349
418.3142, 1.558365
418.7963, 1.029488
419.2784, 0.2581330
419.7605, 0.1425780
420.2426, 1.3840000E-02
420.7248, 0.2849040
421.2069, 0.8863750
421.6890, 1.490128
422.1711, 1.814217
422.6532, 1.830757
423.1353, 1.689247
423.6175, 1.537460
424.0996, 1.326492
424.5817, 1.370529
425.0638, 1.885262
425.5459, 2.400902
426.0280, 2.919830
426.5102, 3.281944
426.9923, 3.138542
427.4744, 2.236069
427.9565, 0.8859180
428.4386, 0.1742710
428.9207, 0.4865490
429.4029, 0.7602840
429.8850, 0.9788970
430.3671, 1.027008
430.8492, 0.6005940
431.3313, 0.2554930
431.8134, 0.9031910
432.2956, 0.4455570
432.7777, 1.159248
433.2598, 2.137428
433.7419, 2.168938
434.2241, 1.900002
434.7062, 1.472794
435.1883, 1.018562
435.6704, 0.7873310
436.1525, 0.9287490
436.6346, 1.288368
437.1168, 1.682709
437.5989, 2.127419
438.0810, 2.448685
438.5631, 2.650787
439.0452, 2.626823
439.5273, 2.151840
440.0095, 1.163445
440.4916, 0.4076310
440.9737, 0.3736110
441.4558, 0.8334810
441.9379, 1.470779
442.4200, 2.328407
442.9022, 2.802010
443.3843, 2.071091
443.8664, 0.4203190
444.3485, 0.3815160
444.8306, 0.6450350
445.3127, 1.682617
445.7949, 1.458305
446.2770, 0.4098660
446.7591, 0.2569270
447.2412, 2.3262000E-02
447.7233, 0.7004390
448.2054, 1.139389
448.6876, 1.095360
449.1697, 1.223351
449.6518, 1.788963
450.1339, 2.360466
450.6160, 2.571007
451.0981, 2.430984
451.5803, 2.215355
452.0624, 2.172455
452.5445, 2.276009
453.0266, 2.215828
453.5087, 1.748497
453.9908, 1.377762
454.4730, 1.277351
454.9551, 1.279594
455.4372, 1.178757
455.9193, 0.9162900
456.4014, 0.6144490
456.8835, 0.4513780
457.3657, 0.4561610
457.8478, 0.4482270
458.3299, 0.2285160
458.8120, 0.1566310
459.2941, 0.6414260
459.7762, 1.443703
460.2584, 1.937294
460.7405, 1.650810
461.2226, 0.9796070
461.7047, 0.7854310
462.1868, 1.136230
462.6689, 1.511963
463.1511, 2.013947
463.6332, 2.355400
464.1153, 2.152725
464.5974, 1.342087
465.0795, 0.4937060
465.5616, 0.1517940
466.0438, 0.6133500
466.5259, 0.7744140
467.0080, 0.5205380
467.4901, 0.2017360
467.9722, 0.1324160
468.4543, 0.2326740
468.9365, 0.1067810
469.4186, 0.5597080
469.9007, 1.152931
470.3828, 1.354248
470.8649, 1.244423
471.3470, 0.9594730
471.8292, 0.5350040
472.3113, 5.9135001E-02
472.7934, 0.3473360
473.2755, 0.6905820
473.7576, 0.9209670
474.2397, 1.134613
474.7219, 1.147049
475.2040, 0.6660770
475.6861, 0.1280520
476.1682, 0.7660980
476.6503, 0.9455030
477.1324, 0.7186360
477.6146, 0.3069530
478.0967, 0.6449130
478.5788, 1.107384
479.0609, 0.6898800
479.5430, 1.4473000E-02
480.0251, 0.5091250
480.5073, 0.7906340
480.9894, 0.8895260
481.4715, 0.7834930
481.9536, 0.4983900
482.4357, 0.4254300
482.9178, 0.7367710
483.4000, 0.9618000
483.8821, 0.6528400
484.3642, 0.2259980
484.8463, 0.3025970
485.3284, 1.164742
485.8105, 2.153572
486.2927, 2.699562
486.7748, 2.853294
487.2569, 2.635368
487.7390, 1.846573
488.2211, 1.093430
488.7032, 1.226906
489.1854, 2.038063
489.6675, 2.507820
490.1496, 2.183685
490.6317, 1.806587
491.1138, 1.973602
491.5959, 2.549713
492.0781, 2.925125
492.5602, 2.761406
493.0423, 2.369621
493.5244, 2.437645
494.0065, 3.173859
494.4886, 4.018051
494.9708, 5.054649
495.4529, 6.110031
495.9350, 7.171516
496.4171, 8.155182
496.8992, 8.830284
497.3813, 8.987419
497.8635, 8.715187
498.3456, 8.552979
498.8277, 8.432159
499.3098, 8.585793
499.7919, 9.000366
500.2740, 9.684502
500.7562, 10.71861
501.2383, 12.08486
501.7204, 13.56161
502.2025, 15.08769
502.6846, 16.68839
503.1667, 17.46829
503.6489, 16.62395
504.1310, 16.47428
504.6131, 18.70587
505.0952, 22.27410
505.5773, 25.70303
506.0594, 28.62187
506.5416, 31.36195
507.0237, 34.19178
507.5058, 37.05627
507.9879, 39.82063
508.4700, 42.51106
508.9521, 44.86813
509.4343, 46.46243
509.9164, 47.28542
510.3985, 48.47015
510.8806, 50.32264
511.3627, 52.30488
511.8448, 54.39065
512.3270, 56.35547
512.8091, 57.69216
513.2912, 58.16037
513.7733, 58.15988
514.2554, 58.34046
514.7375, 58.28849
515.2197, 59.50490
515.7018, 62.03951
516.1839, 65.58704
516.6660, 70.04611
517.1481, 75.41389
517.6302, 81.67864
518.1124, 88.84404
518.5945, 96.91371
519.0766, 105.9636
519.5587, 116.2818
520.0408, 126.6430
520.5229, 135.8335
521.0051, 145.7211
521.4872, 157.5660
521.9693, 171.3000
522.4514, 186.0372
522.9335, 202.0407
523.4156, 218.3342
523.8978, 233.4011
524.3799, 247.3422
524.8620, 258.8791
525.3441, 267.5445
525.8262, 273.0956
526.3083, 275.2570
526.7905, 273.9164
527.2726, 270.2460
527.7547, 264.2457
528.2368, 256.2832
528.7189, 246.2964
529.2010, 234.5379
529.6832, 222.2481
530.1653, 210.2187
530.6474, 198.4514
531.1295, 186.6004
531.6116, 175.3249
532.0938, 163.1000
532.5759, 148.4490
533.0580, 133.6333
533.5401, 120.5765
534.0222, 109.5363
534.5043, 99.34909
534.9865, 88.69565
535.4686, 77.77304
535.9507, 69.17644
536.4328, 63.69468
536.9149, 59.10626
537.3970, 55.06159
537.8792, 51.15588
538.3613, 46.93574
538.8434, 42.26458
539.3255, 37.84408
539.8076, 34.08835
540.2897, 31.00018
540.7719, 28.77589
541.2540, 27.58257
541.7361, 26.32145
542.2182, 24.05558
542.7003, 21.05762
543.1824, 18.66310
543.6646, 16.83950
544.1467, 15.65338
544.6288, 15.66904
545.1109, 16.09856
545.5930, 15.86803
546.0751, 14.76250
546.5573, 13.25807
547.0394, 11.72789
547.5215, 10.15476
548.0036, 9.396614
548.4857, 10.62640
548.9678, 11.33977
549.4500, 10.76107
549.9321, 9.606201
550.4142, 8.656204
550.8963, 8.102570
551.3784, 7.634880
551.8605, 6.727432
552.3427, 5.457710
552.8248, 5.154671
553.3069, 6.470772
553.7890, 7.496231
554.2711, 6.632851
554.7532, 4.940125
555.2354, 3.970764
555.7175, 4.165985
556.1996, 4.632439
556.6817, 4.984268
557.1638, 5.151237
557.6459, 4.807236
558.1281, 3.860497
558.6102, 3.231117
559.0923, 3.862389
559.5744, 5.679955
560.0565, 6.670525
560.5386, 6.105797
561.0208, 5.721634
561.5029, 6.119072
561.9850, 6.809296
562.4671, 7.236328
562.9492, 7.258133
563.4313, 7.133408
563.9135, 7.103500
564.3956, 7.184097
564.8777, 7.486893
565.3598, 8.264984
565.8419, 8.877808
566.3240, 8.949654
566.8062, 8.857368
567.2883, 8.967712
567.7704, 9.378792
568.2525, 10.14361
568.7346, 11.39260
569.2167, 12.87124
569.6989, 14.17772
570.1810, 15.26637
570.6631, 16.23191
571.1452, 17.13428
571.6273, 17.95666
572.1094, 18.63605
572.5916, 19.12974
573.0737, 19.57019
573.5558, 19.69968
574.0379, 19.96431
574.5200, 21.00090
575.0021, 22.77268
575.4843, 24.60066
575.9664, 25.94948
576.4485, 26.88267
576.9306, 27.77735
577.4127, 28.51936
577.8948, 29.40933
578.3770, 30.84694
578.8591, 32.15908
579.3412, 32.81397
579.8233, 32.79396
580.3054, 32.45541
580.7875, 31.92293
581.2697, 31.30159
581.7518, 30.96751
582.2339, 30.98626
582.7161, 30.66809
583.1982, 29.63416
583.6803, 28.21398
584.1624, 26.83023
584.6445, 25.43703
585.1266, 24.34332
585.6088, 24.20970
586.0909, 23.96361
586.5730, 22.29568
587.0551, 19.60317
587.5372, 17.43463
588.0193, 16.63983
588.5015, 16.63922
588.9836, 16.15363
589.4657, 14.88485
589.9478, 13.77663
590.4299, 13.12887
590.9120, 12.32983
591.3942, 10.79019
591.8763, 8.906120
592.3584, 7.504707
592.8405, 6.992317
593.3226, 7.076073
593.8047, 7.597275
594.2869, 8.537323
594.7690, 8.689453
595.2511, 7.582848
595.7332, 6.096138
596.2153, 4.773636
596.6974, 3.658035
597.1796, 2.996620
597.6617, 3.210785
598.1438, 3.467232
598.6259, 3.298012
599.1080, 2.869987
599.5901, 2.405647
600.0723, 1.977005
600.5544, 1.710487
601.0365, 1.769402
601.5186, 2.164101
602.0007, 2.453850
602.4828, 2.821709
602.9650, 2.841927
603.4471, 2.089561
603.9292, 1.166061
604.4113, 0.7095260
604.8934, 0.8091050
605.3755, 1.004929
605.8577, 0.8964610
606.3398, 0.5601880
606.8219, 0.2449190
607.3040, 6.8259999E-02
607.7861, 0.2433010
608.2682, 0.1768570
608.7504, 3.5812002E-02
609.2325, 0.2087710
609.7146, 0.3133470
610.1967, 0.5239720
610.6788, 1.218376
611.1609, 1.786240
611.6431, 1.534706
612.1252, 0.6397400
612.6073, 0.2427600
613.0894, 0.7790830
613.5715, 1.026756
614.0536, 1.099617
614.5358, 0.9683990
615.0179, 0.7296450
615.5000, 0.1095580
615.9821, 0.3442840
616.4642, 0.1935960
616.9464, 0.2528530
617.4285, 0.3326720
617.9106, 0.3098680
618.3927, 1.001945
618.8748, 0.8338620
619.3569, 9.1549996E-03
619.8391, 0.5357440
620.3212, 0.5637970
620.8033, 0.3537600
621.2854, 5.3099999E-03
621.7675, 0.4421770
622.2496, 0.5712970
622.7318, 0.1792600
623.2139, 0.2327800
623.6960, 0.4029310
624.1781, 0.6004710
624.6602, 1.445633
625.1423, 2.768734
625.6245, 3.386642
626.1066, 2.189396
626.5887, 0.2827380
627.0708, 1.526642
627.5529, 1.003944
628.0350, 0.5518190
628.5172, 0.6901170
628.9993, 0.8978500
629.4814, 0.8019330
629.9635, 0.4482730
630.4456, 0.1648250
630.9277, 0.1359940
631.4099, 0.2133410
631.8920, 0.1666110
632.3741, 6.7284003E-02
632.8562, 0.2507320
633.3383, 0.8500750
633.8204, 1.584358
634.3026, 2.138741
634.7847, 2.505791
635.2668, 2.750946
635.7489, 2.923256
636.2310, 2.935379
636.7131, 2.517006
637.1953, 2.048080
637.6774, 2.060738
638.1595, 2.612289
638.6416, 3.183968
639.1237, 3.187401
639.6058, 2.775818
640.0880, 2.771156
640.5701, 3.257675
641.0522, 3.832397
641.5343, 4.500645
642.0164, 5.050926
642.4985, 5.062656
642.9807, 4.466724
643.4628, 4.357437
643.9449, 5.520302
644.4270, 6.882244
644.9091, 7.535721
645.3912, 7.661068
645.8734, 7.891026
646.3555, 8.481735
646.8376, 9.090218
647.3197, 9.140831
647.8018, 8.500610
648.2839, 8.041458
648.7661, 7.451805
649.2482, 7.459480
649.7303, 8.842979
650.2124, 10.66373
650.6945, 11.68723
651.1766, 11.62387
651.6588, 11.42435
652.1409, 11.79983
652.6230, 12.54131
653.1051, 13.40243
653.5872, 14.34530
654.0693, 14.69304
654.5515, 13.92844
655.0336, 12.61886
655.5157, 11.94280
655.9978, 12.16250
656.4799, 12.45815
656.9620, 13.18642
657.4442, 13.63661
657.9263, 13.10070
658.4084, 12.09355
658.8905, 11.55042
659.3726, 11.85108
659.8547, 12.56554
660.3369, 13.27944
660.8190, 13.96764
661.3011, 14.25385
661.7832, 14.07069
662.2653, 13.59828
662.7474, 12.68256
663.2296, 11.64530
663.7117, 11.15360
664.1938, 11.38693
664.6759, 11.59261
665.1580, 11.50072
665.6401, 11.29853
666.1223, 11.20000
666.6044, 11.17158
667.0865, 11.04368
667.5686, 10.73121
668.0507, 10.28633
668.5328, 9.794762
669.0150, 9.247780
669.4971, 8.677948
669.9792, 7.891697
670.4613, 7.328083
670.9434, 7.259476
671.4255, 7.478924
671.9077, 7.739635
672.3898, 8.068935
672.8719, 8.090282
673.3540, 7.204727
673.8361, 6.027390
674.3182, 5.700829
674.8004, 6.179024
675.2825, 6.395115
675.7646, 5.667603
676.2467, 4.610699
676.7288, 4.795662
677.2109, 7.342911
677.6931, 8.453510
678.1752, 7.001850
678.6573, 5.489677
679.1394, 4.951828
679.6215, 5.074772
680.1036, 5.273285
680.5858, 5.348888
681.0679, 5.523186
681.5500, 6.147640
682.0321, 7.047356
682.5142, 7.658138
682.9963, 7.888798
683.4785, 8.169651
683.9606, 8.936962
684.4427, 9.939625
684.9248, 10.27714
685.4069, 9.506001
685.8890, 9.108086
686.3712, 9.144085
686.8533, 9.546097
687.3354, 10.66206
687.8175, 11.98838
688.2996, 12.54470
688.7817, 11.97291
689.2639, 11.13359
689.7460, 11.15341
690.2281, 11.87402
690.7102, 12.19393
691.1923, 11.98340
691.6744, 11.79905
692.1566, 11.95692
692.6387, 12.24381
693.1208, 12.21628
693.6029, 11.76686
694.0850, 11.54824
694.5671, 12.00660
695.0493, 12.40162
695.5314, 12.08622
696.0135, 11.38863
696.4956, 11.02380
696.9777, 11.21428
697.4598, 11.56446
697.9420, 11.52965
698.4241, 11.13907
698.9062, 11.20114
699.3883, 11.85863
699.8704, 12.59920
700.3525, 13.58928
700.8347, 14.26102
701.3168, 13.55074
701.7989, 11.27567
702.2810, 9.958939
702.7631, 11.10779
703.2452, 12.67395
703.7274, 13.24593
704.2095, 13.11714
704.6916, 12.94059
705.1737, 12.95562
705.6558, 13.11337
706.1379, 13.40561
706.6201, 13.82652
707.1022, 13.99651
707.5843, 13.73670
708.0664, 13.53360
708.5485, 13.73100
709.0306, 13.96286
709.5128, 13.74401
709.9949, 13.12665
710.4770, 12.82109
710.9591, 13.12445
711.4412, 13.65493
711.9233, 14.48558
712.4055, 15.29647
712.8876, 15.21213
713.3697, 14.09736
713.8518, 12.88060
714.3339, 12.50949
714.8160, 12.82771
715.2982, 12.65888
715.7803, 11.55428
716.2624, 11.03626
716.7445, 12.15174
717.2266, 13.31647
717.7087, 13.28495
718.1909, 12.30838
718.6730, 11.55680
719.1551, 11.61145
719.6372, 11.70604
720.1193, 11.15920
720.6014, 10.38428
721.0836, 10.22302
721.5657, 10.71695
722.0478, 10.99527
722.5299, 10.32008
723.0120, 9.038582
723.4941, 8.827099
723.9763, 10.34116
724.4584, 11.11454
724.9405, 10.37474
725.4226, 9.397903
725.9047, 8.719177
726.3868, 8.337662
726.8690, 8.271019
727.3511, 8.675835
727.8332, 8.955677
728.3153, 8.626667
728.7974, 8.036587
729.2795, 7.673149
729.7617, 7.531506
730.2438, 7.310837
730.7259, 6.844219
731.2080, 6.244186
731.6901, 5.709934
732.1722, 5.215755
732.6544, 4.912567
733.1365, 5.044735
733.6186, 5.025494
734.1007, 4.319088
734.5828, 3.480003
735.0649, 3.275242
735.5471, 3.849960
736.0292, 4.472832
736.5113, 5.043629
736.9934, 5.316929
737.4755, 4.830719
737.9576, 3.844402
738.4398, 3.011105
738.9219, 2.555012
739.4040, 2.561047
739.8861, 3.304123
740.3682, 4.759594
740.8503, 5.172817
741.3325, 3.946320
741.8146, 2.936096
742.2967, 3.091507
742.7788, 3.342182
743.2609, 2.519974
743.7430, 0.7967000
744.2252, 0.2296220
744.7073, 0.4361840
745.1894, 1.391838
745.6715, 1.910439
746.1536, 2.059139
746.6357, 1.864571
747.1179, 1.377842
747.6000, 0.8101430
748.0821, 0.2993160
748.5642, 0.1150740
749.0463, 0.3102380
749.5284, 0.2693710
750.0106, 6.6161998E-02
750.4927, 0.3980900
750.9748, 0.8732600
751.4569, 1.316761
751.9390, 1.629410
752.4211, 1.522293
752.9033, 0.7217710
753.3854, 7.6145001E-02
753.8675, 0.2495730
754.3496, 0.1739460
754.8317, 0.8103180
755.3138, 2.253525
755.7960, 2.894958
756.2781, 2.158401
756.7602, 0.8913690
757.2423, 0.2698290
757.7244, 0.2839430
758.2065, 0.4766160
758.6887, 0.9479790
759.1708, 1.222443
759.6529, 0.9786800
760.1350, 0.5316350
760.6171, 0.3926350
761.0992, 0.5918080
761.5814, 0.6194800
762.0635, 0.2508390
762.5456, 0.1201900
763.0277, 0.2742580
763.5098, 0.3465580
763.9919, 0.6329610
764.4741, 1.101330
764.9562, 1.264103
765.4383, 0.5898550
765.9204, 0.4773940
766.4025, 0.8162800
766.8846, 0.4421650
767.3668, 8.2722001E-02
767.8489, 0.7530140
768.3310, 1.134312
768.8131, 0.7627720
769.2952, 0.2134320
769.7773, 0.9234430
770.2595, 1.448860
770.7416, 1.600487
771.2237, 0.8885570
771.7058, 0.2471580
772.1879, 0.3807750
772.6700, 1.018589
773.1522, 1.550190
773.6343, 1.750416
774.1164, 1.812210
774.5985, 2.034065
775.0806, 2.223595
775.5627, 1.736710
776.0449, 0.6237530
776.5270, 0.1003650
777.0091, 4.7462001E-02
777.4912, 0.6111450
777.9733, 0.9442210
778.4554, 1.049744
778.9376, 0.9010580
779.4197, 3.0678000E-02
779.9019, 0.4831280
780.3840, 0.2623140
780.8661, 1.239296
781.3482, 1.499237
781.8303, 1.109329
782.3124, 0.9180980
782.7946, 1.507236
783.2767, 2.143959
783.7588, 2.176624
784.2409, 1.855747
784.7230, 1.630016
785.2051, 1.556820
785.6873, 1.420631
786.1694, 1.065548
786.6515, 0.6583180
787.1336, 0.5830350
787.6157, 0.9189380
788.0978, 1.063854
788.5800, 0.8725850
789.0621, 0.7038230
789.5442, 0.7934910
790.0263, 1.009857
790.5084, 1.140205
790.9905, 1.159325
791.4727, 1.182003
791.9548, 1.213329
792.4369, 1.277470
792.9190, 1.416599
793.4011, 1.590755
793.8832, 1.801964
794.3654, 2.011707
794.8475, 1.974129
795.3296, 1.254627
795.8117, 0.2970390
796.2938, 0.5469590
796.7759, 1.989613
797.2581, 2.821228
797.7402, 2.469498
798.2223, 1.844292
798.7044, 1.791374
799.1865, 2.206337
799.6686, 2.426792
800.1508, 2.370480
800.6329, 2.291206
801.1150, 1.930004
801.5971, 1.744522
802.0792, 2.274921
802.5613, 3.064690
803.0435, 3.095451
803.5256, 2.060722
804.0077, 1.080238
804.4898, 1.083679
804.9719, 1.578487
805.4540, 1.958069
805.9362, 2.184677
806.4183, 2.145622
806.9004, 1.803020
807.3825, 1.666225
807.8646, 2.433800
808.3467, 3.981693
808.8289, 4.727543
809.3110, 4.389732
809.7931, 3.999481
810.2752, 3.673618
810.7573, 3.470757
811.2394, 3.592827
811.7216, 3.866924
812.2037, 3.757996
812.6858, 2.948185
813.1679, 2.218857
813.6500, 1.610676
814.1321, 1.379208
814.6143, 2.093079
815.0964, 3.322937
815.5785, 4.059311
816.0606, 3.895138
816.5427, 3.409103
817.0248, 3.289440
817.5070, 3.387634
817.9891, 3.050797
818.4712, 2.272320
818.9533, 1.888916
819.4354, 2.246330
819.9175, 2.916149
820.3997, 3.477295
820.8818, 3.928154
821.3639, 3.894039
821.8460, 3.065189
822.3281, 2.155220
822.8102, 0.8477330
823.2924, 6.9637001E-02
823.7745, 0.1061330
824.2566, 1.000710
824.7387, 1.794994
825.2208, 2.323830
825.7029, 2.426216
826.1851, 1.636696
826.6672, 0.7256890
827.1493, 0.7250600
827.6314, 1.354610
828.1135, 1.699036
828.5956, 1.414528
829.0778, 0.9576720
829.5599, 0.8687970
830.0420, 1.107822
830.5241, 1.440086
831.0062, 1.926159
831.4883, 2.006363
831.9705, 1.332668
832.4526, 0.6003420
832.9347, 0.5241620
833.4168, 1.020332
833.8989, 1.276161
834.3810, 1.032497
834.8632, 0.9353830
835.3453, 1.182423
835.8274, 1.447575
836.3095, 1.463188
836.7916, 1.366653
837.2737, 1.451107
837.7559, 1.808098
838.2380, 2.217117
838.7201, 2.593590
839.2022, 2.754040
839.6843, 2.275360
840.1664, 1.365467
840.6486, 0.6498990
841.1307, 0.3221590
841.6128, 0.2962720
842.0949, 0.5625270
842.5770, 0.9849660
843.0591, 0.8326800
843.5413, 7.8449003E-02
844.0234, 0.6091380
844.5055, 0.4708480
844.9876, 0.1321680
845.4697, 0.1260110
845.9518, 0.3412480
846.4340, 0.6444630
846.9161, 1.140728
847.3982, 1.442196
847.8803, 1.456821
848.3624, 1.325172
848.8445, 0.8745800
849.3267, 0.4453470
849.8088, 0.5967600
850.2909, 1.352261
850.7730, 2.016518
851.2551, 2.093143
851.7372, 1.896172
852.2194, 1.845718
852.7015, 1.815060
853.1836, 1.381271
853.6657, 0.5207820
854.1478, 0.2508390
854.6299, 0.6171800
855.1121, 0.5914380
855.5942, 1.1800000E-04
856.0763, 1.317871
856.5584, 1.756630
857.0405, 0.9921950
857.5226, 4.5101002E-02
858.0048, 0.8654170
858.4869, 1.547462
858.9690, 1.667027
859.4511, 1.199566
859.9332, 0.6736790
860.4153, 0.1134910
860.8975, 0.6678160
861.3796, 0.6465230
861.8617, 0.4996340
862.3438, 0.6577910
862.8259, 1.057281
863.3080, 1.358269
863.7902, 1.396553
864.2723, 1.410538
864.7544, 1.648903
865.2365, 1.963657
865.7186, 2.195114
866.2007, 2.292259
866.6829, 2.060013
867.1650, 1.441429
867.6471, 0.8296970
868.1292, 0.7137490
868.6113, 1.011612
869.0934, 1.263371
869.5756, 1.477856
870.0577, 1.559246
870.5398, 1.422127
871.0219, 1.306873
871.5040, 1.455055
871.9861, 1.760365
872.4683, 1.818096
872.9504, 1.378014
873.4325, 1.150291
873.9146, 1.359756
874.3967, 1.532749
874.8788, 1.416481
875.3610, 1.176491
875.8431, 1.000675
876.3252, 0.9246410
876.8073, 0.9641110
877.2894, 1.267914
877.7715, 1.546757
878.2537, 1.463604
878.7358, 1.267487
879.2179, 1.478050
879.7000, 2.008987
880.1821, 2.145546
880.6642, 1.440632
881.1464, 0.5088960
881.6285, 0.5011100
882.1106, 1.210262
882.5927, 1.367638
883.0748, 0.9013100
883.5569, 0.3921200
884.0391, 1.8719001E-02
884.5212, 0.1651650
885.0033, 7.5686999E-02
885.4854, 0.2802730
885.9675, 0.7428890
886.4496, 1.502445
886.9318, 1.979538
887.4139, 1.897926
887.8960, 1.733257
888.3781, 1.765312
888.8602, 1.899323
889.3423, 1.940922
889.8245, 1.849827
890.3066, 1.752338
890.7887, 1.627998
891.2708, 1.575993
891.7529, 1.650066
892.2350, 1.830544
892.7172, 2.066799
893.1993, 2.371193
893.6814, 2.885147
894.1635, 3.864643
894.6456, 4.730095
895.1277, 4.537113
895.6099, 3.762657
896.0920, 3.502174
896.5741, 3.810703
897.0562, 4.206089
897.5383, 4.459995
898.0204, 4.651516
898.5026, 4.932087
898.9847, 5.273506
899.4668, 5.173996
899.9489, 4.467194
900.4310, 4.302776
900.9131, 5.114559
901.3953, 6.217266
901.8774, 7.144318
902.3595, 7.895737
902.8416, 8.254692
903.3237, 7.802670
903.8058, 7.691113
904.2880, 8.302559
904.7701, 8.801178
905.2522, 8.697536
905.7343, 8.383759
906.2164, 8.222076
906.6985, 8.284237
907.1807, 8.873138
907.6628, 10.64266
908.1449, 12.33276
908.6270, 13.08057
909.1091, 13.49097
909.5912, 14.21638
910.0734, 15.25435
910.5555, 16.20972
911.0376, 16.88580
911.5197, 17.91266
912.0018, 20.26187
912.4839, 23.28224
912.9661, 25.30269
913.4482, 26.71843
913.9303, 29.40308
914.4124, 33.88615
914.8945, 39.20279
915.3766, 44.53873
915.8588, 49.77849
916.3409, 54.76636
916.8230, 59.41488
917.3051, 65.61902
917.7872, 73.57544
918.2693, 82.97393
918.7515, 93.91957
919.2336, 105.7404
919.7157, 117.3786
920.1978, 128.8753
920.6799, 140.2225
921.1620, 154.5129
921.6442, 164.2597
922.1263, 168.4372
922.6084, 167.7545
923.0905, 161.7229
923.5726, 151.4111
924.0547, 138.5502
924.5369, 122.7334
925.0190, 107.9248
925.5011, 95.08441
925.9832, 84.20210
926.4653, 75.25399
926.9474, 68.13466
927.4296, 63.00219
927.9117, 59.64716
928.3938, 57.11404
928.8759, 54.67163
929.3580, 53.26617
929.8401, 54.33403
930.3223, 57.02332
930.8044, 59.91063
931.2865, 62.83530
931.7686, 65.69494
932.2507, 68.47299
932.7328, 72.10651
933.2150, 77.96319
933.6971, 85.35817
934.1792, 91.27837
934.6613, 95.72118
935.1434, 101.8315
935.6255, 110.0451
936.1077, 120.7234
936.5898, 134.2959
937.0719, 150.2679
937.5540, 167.6490
938.0361, 186.0873
938.5182, 207.7724
939.0004, 235.0444
939.4825, 261.3376
939.9646, 289.8553
940.4467, 311.8867
940.9288, 319.7726
941.4109, 314.4468
941.8931, 298.6025
942.3752, 266.7561
942.8573, 234.7083
943.3394, 202.5427
943.8215, 172.5383
944.3036, 145.4975
944.7858, 121.6620
945.2679, 101.2687
945.7500, 84.32217
946.2321, 70.58315
946.7142, 61.00357
947.1964, 53.23108
947.6785, 46.11245
948.1606, 39.79221
948.6427, 34.51917
949.1248, 30.18698
949.6069, 26.43288
950.0891, 23.14209
950.5712, 20.45783
951.0533, 18.85904
951.5354, 17.73777
952.0175, 15.97983
952.4996, 13.86346
952.9818, 12.23719
953.4639, 11.20557
953.9460, 10.28609
954.4281, 9.169472
954.9102, 8.043022
955.3923, 7.357315
955.8745, 7.023602
956.3566, 6.002972
956.8387, 4.218208
957.3208, 3.346996
957.8029, 4.022934
958.2850, 5.052399
958.7672, 5.366222
959.2493, 5.106640
959.7314, 4.853313
960.2135, 4.648949
960.6956, 4.265366
961.1777, 3.543140
961.6599, 2.966728
962.1420, 2.869240
962.6241, 2.884113
963.1062, 2.465481
963.5883, 1.617294
964.0704, 1.203934
964.5526, 1.409546
965.0347, 1.756172
965.5168, 2.468353
965.9989, 3.031342
966.4810, 3.220882
966.9631, 3.058723
967.4453, 2.473877
967.9274, 1.474625
968.4095, 0.7940180
968.8916, 0.8159980
969.3737, 0.7733080
969.8558, 0.2688410
970.3380, 0.3371470
970.8201, 0.6825070
971.3022, 0.8266450
971.7843, 1.085823
972.2664, 1.585495
972.7485, 1.755417
973.2307, 0.9044800
973.7128, 0.1712070
974.1949, 0.7325100
974.6770, 1.005833
975.1591, 1.224499
975.6412, 1.405914
976.1234, 1.441269
976.6055, 1.254414
977.0876, 1.039894
977.5698, 1.023739
978.0519, 1.201595
978.5340, 1.767006
979.0161, 2.527195
979.4982, 2.269608
979.9803, 0.8499070
980.4625, 0.4395410
980.9446, 0.5420380
981.4267, 6.5296002E-02
981.9088, 0.3565290
982.3909, 0.3765530
982.8730, 0.5905800
983.3552, 1.031963
983.8373, 1.250603
984.3194, 1.040497
984.8015, 0.8880770
985.2836, 1.353237
985.7657, 2.278515
986.2479, 2.945343
986.7300, 3.415791
987.2121, 3.164009
987.6942, 1.759254
988.1763, 0.7969630
988.6584, 1.173336
989.1406, 2.120197
989.6227, 2.595341
990.1048, 2.608471
990.5869, 2.914341
991.0690, 3.903473
991.5511, 4.411358
992.0333, 3.951420
992.5154, 3.450016
992.9975, 3.235172
993.4796, 3.357910
993.9617, 4.068645
994.4438, 5.471912
994.9260, 6.306122
995.4081, 5.694088
995.8902, 5.617809
996.3723, 7.001850
996.8544, 8.552380
997.3365, 9.718739
997.8187, 10.30278
998.3008, 9.709240
998.7829, 7.662140
999.2650, 6.607162
999.7471, 8.611507
1000.229, 10.12541
1000.711, 9.038780
1001.193, 7.071270
1001.676, 5.758877
1002.158, 5.058693
1002.640, 4.318066
1003.122, 3.308670
1003.604, 2.604614
1004.086, 2.831131
1004.568, 3.175690
1005.050, 3.006607
1005.533, 2.531952
1006.015, 1.929611
1006.497, 1.332615
1006.979, 0.9982990
1007.461, 1.050598
1007.943, 1.281792
1008.425, 1.437943
1008.907, 1.723995
1009.389, 2.534313
1009.872, 3.640003
1010.354, 4.605946
1010.836, 5.328594
1011.318, 5.750404
1011.800, 5.794300
1012.282, 5.887917
1012.764, 6.696583
1013.246, 7.889671
1013.729, 8.935753
1014.211, 9.714260
1014.693, 9.745758
1015.175, 8.993328
1015.657, 8.161289
1016.139, 7.774929
1016.621, 7.366848
1017.103, 5.842957
1017.585, 3.581066
1018.068, 2.359146
1018.550, 2.151680
1019.032, 2.095951
1019.514, 1.950203
1019.996, 1.723167
1020.478, 1.392273
1020.960, 1.093552
1021.442, 1.233479
1021.924, 1.785591
1022.407, 1.997047
1022.889, 1.815155
1023.371, 1.914059
1023.853, 2.607391
1024.335, 2.891808
1024.817, 1.718361
1025.299, 0.2742690
1025.781, 1.050831
1026.264, 0.4774510
1026.746, 0.2318120
1027.228, 1.111130
1027.710, 1.845379
1028.192, 2.376709
1028.674, 2.490955
1029.156, 1.846931
1029.638, 0.7299000
1030.120, 0.4227520
1030.603, 1.413193
1031.085, 1.460987
1031.567, 1.4503000E-02
1032.049, 1.117336
1032.531, 1.048244
1033.013, 0.5872460
1033.495, 0.5364720
1033.977, 0.7592010
1034.459, 0.5118830
1034.942, 0.7417870
1035.424, 1.133949
1035.906, 0.1510310
1036.388, 0.8957020
1036.870, 0.1868900
1037.352, 1.563606
1037.834, 1.551933
1038.316, 0.4154360
1038.799, 4.2110002E-03
1039.281, 0.9811970
1039.763, 1.432907
1040.245, 0.6181790
1040.727, 0.2065850
1041.209, 1.278118
1041.691, 2.561047
1042.173, 2.794865
1042.656, 2.159878
1043.138, 1.596794
1043.620, 1.032299
1044.102, 0.7536320
1044.584, 0.7990150
1045.066, 1.105156
1045.548, 1.922768
1046.030, 2.778248
1046.512, 3.160423
1046.995, 3.160656
1047.477, 3.277744
1047.959, 3.630272
1048.441, 3.958019
1048.923, 4.351906
1049.405, 4.548016
1049.887, 4.381950
1050.369, 4.011524
1050.851, 3.344307
1051.334, 2.599800
1051.816, 2.599495
1052.298, 3.799187
1052.780, 4.847546
1053.262, 5.346249
1053.744, 5.747505
1054.226, 6.027237
1054.708, 6.487705
1055.191, 7.715469
1055.673, 9.386856
1056.155, 10.26412
1056.637, 9.734253
1057.119, 9.629814
1057.601, 11.05127
1058.083, 12.37310
1058.565, 12.49737
1059.047, 12.33232
1059.530, 12.79607
1060.012, 13.84128
1060.494, 15.01624
1060.976, 16.18670
1061.458, 17.60093
1061.940, 19.39327
1062.422, 21.41424
1062.904, 23.91408
1063.386, 26.34509
1063.869, 27.80077
1064.351, 28.78092
1064.833, 30.61213
1065.315, 33.60944
1065.797, 37.62819
1066.279, 44.23031
1066.761, 49.85620
1067.243, 52.07884
1067.726, 52.75970
1068.208, 53.60957
1068.690, 54.51937
1069.172, 54.77493
1069.654, 54.19111
1070.136, 53.05806
1070.618, 50.96453
1071.100, 49.02017
1071.583, 47.79974
1072.065, 47.00147
1072.547, 46.62416
1073.029, 46.33301
1073.511, 45.35146
1073.993, 43.58424
1074.475, 42.22361
1074.957, 42.41941
1075.439, 42.61600
1075.922, 42.19877
1076.404, 41.27697
1076.886, 39.76525
1077.368, 37.89542
1077.850, 35.95462
1078.332, 34.02586
1078.814, 32.42232
1079.296, 31.63381
1079.779, 30.72017
1080.261, 29.10643
1080.743, 27.30710
1081.225, 25.84151
1081.707, 24.45669
1082.189, 22.49352
1082.671, 20.01144
1083.153, 18.08326
1083.635, 17.48579
1084.118, 16.94821
1084.600, 15.85563
1085.082, 14.57988
1085.564, 13.25549
1086.046, 12.03458
1086.528, 11.22949
1087.010, 10.73889
1087.492, 9.881149
1087.974, 8.117863
1088.457, 6.816513
1088.939, 6.911163
1089.421, 7.210968
1089.903, 6.867634
1090.385, 6.356541
1090.867, 6.444954
1091.349, 6.892982
1091.831, 6.600414
1092.314, 5.039539
1092.796, 3.931656
1093.278, 4.192642
1093.760, 4.615086
1094.242, 4.737282
1094.724, 4.649532
1095.206, 4.151482
1095.688, 3.429527
1096.171, 2.962704
1096.653, 2.892250
1097.135, 2.732700
1097.617, 2.109264
1098.099, 1.653477
1098.581, 1.750431
1099.063, 1.994915
1099.545, 2.032097
1100.027, 1.964195
1100.510, 2.047672
1100.992, 2.322121
1101.474, 2.608395
1101.956, 3.132252
1102.438, 3.291817
1102.920, 2.485325
1103.402, 1.750191
1103.884, 1.965851
1104.366, 2.490162
1104.849, 2.291183
1105.331, 1.378643
1105.813, 0.9360770
1106.295, 1.438042
1106.777, 1.963531
1107.259, 2.741421
1107.741, 3.088223
1108.223, 2.185993
1108.706, 1.086220
1109.188, 1.101093
1109.670, 1.990479
1110.152, 2.295528
1110.634, 1.615391
1111.116, 1.086254
1111.598, 0.6630630
1112.080, 0.4924390
1112.563, 0.8659710
1113.045, 1.340076
1113.527, 1.703243
1114.009, 1.868298
1114.491, 1.522182
1114.973, 0.4449310
1115.455, 0.1796990
1115.937, 0.2775730
1116.419, 3.4938999E-02
1116.901, 0.7846570
1117.384, 1.578335
1117.866, 1.966595
1118.348, 2.120937
1118.830, 2.380749
1119.312, 2.744099
1119.794, 2.554096
1120.276, 1.431557
1120.758, 0.7923360
1121.241, 0.9338840
1121.723, 1.248566
1122.205, 1.619354
1122.687, 1.746010
1123.169, 1.132542
1123.651, 8.5490001E-03
1124.133, 0.2732470
1124.615, 0.4335480
1125.098, 1.167294
1125.580, 1.996624
1126.062, 2.556320
1126.544, 2.755234
1127.026, 2.501663
1127.508, 1.589092
1127.990, 0.4311640
1128.472, 8.8180996E-02
1128.954, 0.5808980
1129.437, 1.349155
1129.919, 2.484901
1130.401, 2.252552
1130.883, 7.5393997E-02
1131.365, 1.163288
1131.847, 0.4043730
1132.329, 2.889553
1132.811, 3.419968
1133.293, 2.398533
1133.776, 1.507801
1134.258, 0.7875290
1134.740, 0.7473750
1135.222, 1.420406
1135.704, 2.005672
1136.186, 2.153679
1136.668, 1.960102
1137.150, 1.385204
1137.633, 0.7655940
1138.115, 1.016525
1138.597, 1.730827
1139.079, 1.398144
1139.561, 0.3181530
1140.043, 1.1917000E-02
1140.525, 0.7406040
1141.007, 1.658264
1141.490, 2.268990
1141.972, 2.637970
1142.454, 2.873581
1142.936, 2.923313
1143.418, 2.496147
1143.900, 1.853951
1144.382, 1.640499
1144.864, 1.818542
1145.346, 1.965149
1145.828, 1.906178
1146.311, 1.598816
1146.793, 0.6396060
1147.275, 0.1587030
1147.757, 2.0096000E-02
1148.239, 0.7585410
1148.721, 1.932896
1149.203, 3.092484
1149.685, 3.293858
1150.168, 2.486328
1150.650, 1.758350
1151.132, 1.549225
1151.614, 1.595818
1152.096, 1.960403
1152.578, 2.312527
1153.060, 2.501118
1153.542, 2.495663
1154.025, 2.182735
1154.507, 1.664963
1154.989, 1.267647
1155.471, 1.081894
1155.953, 0.8836670
1156.435, 0.4306720
1156.917, 0.2164380
1157.399, 0.5513380
1157.881, 1.021267
1158.364, 1.520344
1158.846, 1.879639
1159.328, 1.770397
1159.810, 1.171612
1160.292, 0.6743010
1160.774, 0.1468350
1161.256, 2.7748000E-02
1161.738, 0.2298200
1162.220, 0.7843970
1162.703, 1.996857
1163.185, 2.887554
1163.667, 2.314045
1164.149, 0.8069500
1164.631, 0.1150890
1165.113, 0.3173180
1165.595, 0.9485630
1166.077, 2.224651
1166.560, 2.998154
1167.042, 3.031029
1167.524, 2.473251
1168.006, 1.279583
1168.488, 5.1121000E-02
1168.970, 0.2774350
1169.452, 0.1356010
1169.934, 0.4974560
1170.417, 0.8251230
1170.899, 1.455814
1171.381, 2.373138
1171.863, 2.837074
1172.345, 2.604149
1172.827, 2.091499
1173.309, 1.617935
1173.791, 1.147671
1174.273, 0.5649410
1174.755, 2.5978001E-02
1175.238, 0.4138640
1175.720, 0.5808300
1176.202, 0.3940160
1176.684, 6.6680998E-02
1177.166, 0.4156070
1177.648, 0.4893420
1178.130, 0.4324040
1178.612, 0.3421860
1179.095, 0.2222820
1179.577, 8.5593998E-02
1180.059, 8.9249000E-02
1180.541, 0.4853290
1181.023, 0.8801460
1181.505, 0.7938120
1181.987, 0.2269940
1182.469, 0.3879700
1182.952, 0.9380650
1183.434, 1.238640
1183.916, 1.024490
1184.398, 0.7514110
1184.880, 0.5120390
1185.362, 0.4698490
1185.844, 1.108894
1186.326, 1.975861
1186.808, 1.865524
1187.291, 0.4982380
1187.773, 0.3631440
1188.255, 0.4165120
1188.737, 0.1818160
1189.219, 0.5476300
1189.701, 1.181793
1190.183, 1.305756
1190.665, 1.142349
1191.147, 0.9087520
1191.630, 0.6038970
1192.112, 0.1698300
1192.594, 0.5505220
1193.076, 0.5140760
1193.558, 0.4305570
1194.040, 1.423943
1194.522, 2.349800
1195.004, 2.809052
1195.487, 2.537140
1195.969, 1.788513
1196.451, 0.7866130
1196.933, 0.2816240
1197.415, 0.6068040
1197.897, 0.3170010
1198.379, 1.9104000E-02
1198.861, 0.1939770
1199.344, 9.7411998E-02
1199.826, 0.3216630
1200.308, 0.5951770
1200.790, 0.4116900
1201.272, 9.5458999E-02
1201.754, 1.055557
1202.236, 2.004356
1202.718, 2.225624
1203.200, 1.989517
1203.682, 1.747581
1204.165, 1.505562
1204.647, 0.8460770
1205.129, 0.2725300
1205.611, 0.5247880
1206.093, 1.479958
1206.575, 3.329109
1207.057, 3.874924
1207.539, 3.737411
1208.022, 2.743156
1208.504, 1.756447
1208.986, 1.942474
1209.468, 3.009964
1209.950, 3.695282
1210.432, 3.803719
1210.914, 3.769028
1211.396, 3.129906
1211.879, 3.130775
1212.361, 4.187279
1212.843, 5.544891
1213.325, 6.928452
1213.807, 8.297241
1214.289, 9.677544
1214.771, 10.97073
1215.253, 11.57830
1215.735, 11.34053
1216.218, 11.90685
1216.700, 13.37246
1217.182, 14.67923
1217.664, 15.55193
1218.146, 17.43600
1218.628, 21.27032
1219.110, 25.55976
1219.592, 28.20155
1220.074, 30.09775
1220.557, 33.55824
1221.039, 37.96387
1221.521, 41.59982
1222.003, 44.65572
1222.485, 48.20616
1222.967, 52.46344
1223.449, 56.79826
1223.931, 60.79784
1224.414, 64.99638
1224.896, 70.40463
1225.378, 75.46701
1225.860, 78.51352
1226.342, 80.85553
1226.824, 84.52078
1227.306, 88.17813
1227.788, 88.92267
1228.271, 86.48302
1228.753, 83.21896
1229.235, 79.19888
1229.717, 75.11045
1230.199, 71.32236
1230.681, 67.03880
1231.163, 61.49908
1231.645, 55.97608
1232.127, 51.57280
1232.609, 47.82158
1233.092, 43.19025
1233.574, 37.66896
1234.056, 33.86015
1234.538, 31.97054
1235.020, 30.14185
1235.502, 28.10844
1235.984, 26.49001
1236.466, 25.44432
1236.949, 24.39787
1237.431, 22.92764
1237.913, 21.16840
1238.395, 19.65385
1238.877, 18.27978
1239.359, 16.98080
1239.841, 15.73837
1240.323, 14.65217
1240.806, 13.79600
1241.288, 12.75562
1241.770, 11.45073
1242.252, 10.41965
1242.734, 9.778839
1243.216, 9.387321
1243.698, 9.365242
1244.180, 9.241417
1244.662, 8.685394
1245.145, 8.174728
1245.627, 8.747025
1246.109, 9.685524
1246.591, 9.029572
1247.073, 6.458191
1247.555, 5.155609
1248.037, 6.213745
1248.519, 6.793312
1249.001, 6.568527
1249.484, 6.300766
1249.966, 6.307953
1250.448, 6.103363
1250.930, 5.126732
1251.412, 4.115387
1251.894, 4.712120
1252.376, 6.578766
1252.858, 6.952492
1253.341, 6.046165
1253.823, 5.855949
1254.305, 6.467789
1254.787, 6.813637
1255.269, 6.611099
1255.751, 6.615303
1256.233, 7.382996
1256.715, 8.201950
1257.198, 8.323303
1257.680, 8.083328
1258.162, 7.961266
1258.644, 7.625420
1259.126, 6.090179
1259.608, 4.204781
1260.090, 3.963898
1260.572, 5.488342
1261.054, 6.621529
1261.536, 6.745804
1262.019, 6.560326
1262.501, 5.903114
1262.983, 5.367592
1263.465, 5.215736
1263.947, 5.130997
1264.429, 4.901543
1264.911, 4.647438
1265.393, 4.594025
1265.876, 4.673447
1266.358, 4.314079
1266.840, 3.464607
1267.322, 3.247231
1267.804, 3.705200
1268.286, 4.143341
1268.768, 4.406128
1269.250, 4.913254
1269.733, 5.910332
1270.215, 6.404594
1270.697, 4.884674
1271.179, 2.883789
1271.661, 2.551376
1272.143, 3.176987
1272.625, 4.245384
1273.107, 5.228577
1273.589, 5.123672
1274.072, 4.159508
1274.554, 3.793793
1275.036, 4.593620
1275.518, 4.591293
1276.000, 1.956665
1276.482, 0.2418440
1276.964, 1.428352
1277.446, 2.461456
1277.929, 1.448425
1278.411, 0.1606670
1278.893, 0.4631350
1279.375, 1.637436
1279.857, 1.614471
1280.339, 0.3739090
1280.821, 9.5573001E-02
1281.303, 0.2440340
1281.786, 0.1367030
1282.268, 0.0000000E+00
##END=



