##NAMES=Kleinite
##RRUFFID=R060329
##IDEAL CHEMISTRY=Hg_2_N(Cl,S^6+^O_4_)&#183;nH_2_O
##LOCALITY=McDermott mine, Humboldt County, Nevada, USA
##OWNER=RRUFF
##SOURCE=Michael Scott
##DESCRIPTION=Light yellow hexagonal prismatic or tabular crystals, associated with orange or dark yellow platy terlinguacreekite.
##STATUS=The identification of this mineral has been confirmed by single-crystal X-ray diffraction.
##URL=rruff.info/R060329
9.059570e+001, 1.224671e+003
9.107782e+001, 1.175120e+003
9.155994e+001, 1.157560e+003
9.204205e+001, 1.194776e+003
9.252417e+001, 1.248567e+003
9.300629e+001, 1.306196e+003
9.348840e+001, 1.356365e+003
9.397052e+001, 1.390265e+003
9.445264e+001, 1.404361e+003
9.493475e+001, 1.415677e+003
9.541687e+001, 1.426912e+003
9.589898e+001, 1.440065e+003
9.638110e+001, 1.453773e+003
9.686321e+001, 1.466302e+003
9.734533e+001, 1.475882e+003
9.782745e+001, 1.481030e+003
9.830956e+001, 1.490818e+003
9.879168e+001, 1.504655e+003
9.927380e+001, 1.522804e+003
9.975591e+001, 1.546442e+003
1.002380e+002, 1.574236e+003
1.007201e+002, 1.603300e+003
1.012023e+002, 1.633299e+003
1.016844e+002, 1.662803e+003
1.021665e+002, 1.687473e+003
1.026486e+002, 1.704934e+003
1.031307e+002, 1.719260e+003
1.036128e+002, 1.734392e+003
1.040950e+002, 1.750893e+003
1.045771e+002, 1.765309e+003
1.050592e+002, 1.774266e+003
1.055413e+002, 1.779346e+003
1.060234e+002, 1.782294e+003
1.065055e+002, 1.783188e+003
1.069877e+002, 1.782370e+003
1.074698e+002, 1.781624e+003
1.079519e+002, 1.782605e+003
1.084340e+002, 1.781121e+003
1.089161e+002, 1.774562e+003
1.093982e+002, 1.764138e+003
1.098804e+002, 1.752966e+003
1.103625e+002, 1.744355e+003
1.108446e+002, 1.739576e+003
1.113267e+002, 1.730579e+003
1.118088e+002, 1.714702e+003
1.122909e+002, 1.697171e+003
1.127731e+002, 1.679408e+003
1.132552e+002, 1.662136e+003
1.137373e+002, 1.645856e+003
1.142194e+002, 1.631470e+003
1.147015e+002, 1.619289e+003
1.151836e+002, 1.608705e+003
1.156658e+002, 1.600385e+003
1.161479e+002, 1.593212e+003
1.166300e+002, 1.585653e+003
1.171121e+002, 1.577033e+003
1.175942e+002, 1.568761e+003
1.180763e+002, 1.564901e+003
1.185584e+002, 1.567375e+003
1.190406e+002, 1.569103e+003
1.195227e+002, 1.568950e+003
1.200048e+002, 1.566651e+003
1.204869e+002, 1.560933e+003
1.209690e+002, 1.549612e+003
1.214511e+002, 1.535661e+003
1.219333e+002, 1.524893e+003
1.224154e+002, 1.517331e+003
1.228975e+002, 1.512827e+003
1.233796e+002, 1.512495e+003
1.238617e+002, 1.516861e+003
1.243438e+002, 1.520803e+003
1.248260e+002, 1.525701e+003
1.253081e+002, 1.527477e+003
1.257902e+002, 1.521394e+003
1.262723e+002, 1.505297e+003
1.267544e+002, 1.481100e+003
1.272365e+002, 1.452378e+003
1.277187e+002, 1.415246e+003
1.282008e+002, 1.379850e+003
1.286829e+002, 1.348800e+003
1.291650e+002, 1.320961e+003
1.296471e+002, 1.295003e+003
1.301292e+002, 1.270119e+003
1.306114e+002, 1.246329e+003
1.310935e+002, 1.223914e+003
1.315756e+002, 1.203861e+003
1.320577e+002, 1.184196e+003
1.325398e+002, 1.164386e+003
1.330219e+002, 1.144570e+003
1.335041e+002, 1.125324e+003
1.339862e+002, 1.107063e+003
1.344683e+002, 1.089776e+003
1.349504e+002, 1.073427e+003
1.354325e+002, 1.057883e+003
1.359146e+002, 1.043124e+003
1.363968e+002, 1.029489e+003
1.368789e+002, 1.016892e+003
1.373610e+002, 1.004553e+003
1.378431e+002, 9.915342e+002
1.383252e+002, 9.773832e+002
1.388073e+002, 9.651046e+002
1.392895e+002, 9.562015e+002
1.397716e+002, 9.486942e+002
1.402537e+002, 9.401688e+002
1.407358e+002, 9.299959e+002
1.412179e+002, 9.193573e+002
1.417000e+002, 9.097908e+002
1.421821e+002, 9.011909e+002
1.426643e+002, 8.929741e+002
1.431464e+002, 8.850566e+002
1.436285e+002, 8.773787e+002
1.441106e+002, 8.695060e+002
1.445927e+002, 8.605914e+002
1.450748e+002, 8.524705e+002
1.455570e+002, 8.467018e+002
1.460391e+002, 8.433026e+002
1.465212e+002, 8.407318e+002
1.470033e+002, 8.377177e+002
1.474854e+002, 8.341772e+002
1.479675e+002, 8.309611e+002
1.484497e+002, 8.283927e+002
1.489318e+002, 8.260826e+002
1.494139e+002, 8.239088e+002
1.498960e+002, 8.218387e+002
1.503781e+002, 8.197677e+002
1.508602e+002, 8.175655e+002
1.513424e+002, 8.151718e+002
1.518245e+002, 8.127224e+002
1.523066e+002, 8.095499e+002
1.527887e+002, 8.066896e+002
1.532708e+002, 8.047061e+002
1.537529e+002, 8.038600e+002
1.542351e+002, 8.043473e+002
1.547172e+002, 8.067528e+002
1.551993e+002, 8.143712e+002
1.556814e+002, 8.199816e+002
1.561635e+002, 8.221686e+002
1.566456e+002, 8.225151e+002
1.571278e+002, 8.226647e+002
1.576099e+002, 8.233827e+002
1.580920e+002, 8.247394e+002
1.585741e+002, 8.271488e+002
1.590562e+002, 8.318419e+002
1.595383e+002, 8.360501e+002
1.600205e+002, 8.383871e+002
1.605026e+002, 8.396642e+002
1.609847e+002, 8.418014e+002
1.614668e+002, 8.459635e+002
1.619489e+002, 8.518374e+002
1.624310e+002, 8.575657e+002
1.629131e+002, 8.640133e+002
1.633953e+002, 8.695399e+002
1.638774e+002, 8.721033e+002
1.643595e+002, 8.720895e+002
1.648416e+002, 8.734650e+002
1.653237e+002, 8.802236e+002
1.658058e+002, 8.897322e+002
1.662880e+002, 8.959108e+002
1.667701e+002, 8.972183e+002
1.672522e+002, 8.956847e+002
1.677343e+002, 8.935843e+002
1.682164e+002, 8.911265e+002
1.686985e+002, 8.871149e+002
1.691807e+002, 8.795544e+002
1.696628e+002, 8.703450e+002
1.701449e+002, 8.617200e+002
1.706270e+002, 8.549601e+002
1.711091e+002, 8.490687e+002
1.715912e+002, 8.418016e+002
1.720734e+002, 8.329701e+002
1.725555e+002, 8.229230e+002
1.730376e+002, 8.112360e+002
1.735197e+002, 7.987074e+002
1.740018e+002, 7.864154e+002
1.744839e+002, 7.751122e+002
1.749661e+002, 7.645931e+002
1.754482e+002, 7.537569e+002
1.759303e+002, 7.426447e+002
1.764124e+002, 7.310787e+002
1.768945e+002, 7.187490e+002
1.773766e+002, 7.059740e+002
1.778588e+002, 6.933868e+002
1.783409e+002, 6.813697e+002
1.788230e+002, 6.699011e+002
1.793051e+002, 6.588235e+002
1.797872e+002, 6.482020e+002
1.802693e+002, 6.378792e+002
1.807515e+002, 6.279975e+002
1.812336e+002, 6.184114e+002
1.817157e+002, 6.088356e+002
1.821978e+002, 5.989038e+002
1.826799e+002, 5.884426e+002
1.831620e+002, 5.795634e+002
1.836441e+002, 5.729799e+002
1.841263e+002, 5.669385e+002
1.846084e+002, 5.607946e+002
1.850905e+002, 5.544526e+002
1.855726e+002, 5.480070e+002
1.860547e+002, 5.416196e+002
1.865368e+002, 5.353189e+002
1.870190e+002, 5.285365e+002
1.875011e+002, 5.205137e+002
1.879832e+002, 5.126177e+002
1.884653e+002, 5.060397e+002
1.889474e+002, 5.008968e+002
1.894296e+002, 4.961056e+002
1.899117e+002, 4.906083e+002
1.903938e+002, 4.844446e+002
1.908759e+002, 4.785299e+002
1.913580e+002, 4.731855e+002
1.918401e+002, 4.680643e+002
1.923223e+002, 4.624618e+002
1.928044e+002, 4.560892e+002
1.932865e+002, 4.503053e+002
1.937686e+002, 4.473698e+002
1.942507e+002, 4.463558e+002
1.947328e+002, 4.443932e+002
1.952150e+002, 4.398162e+002
1.956971e+002, 4.338185e+002
1.961792e+002, 4.288661e+002
1.966613e+002, 4.255917e+002
1.971434e+002, 4.223936e+002
1.976255e+002, 4.179751e+002
1.981077e+002, 4.126682e+002
1.985898e+002, 4.073607e+002
1.990719e+002, 4.026140e+002
1.995540e+002, 3.982436e+002
2.000361e+002, 3.934304e+002
2.005182e+002, 3.876230e+002
2.010004e+002, 3.821164e+002
2.014825e+002, 3.776416e+002
2.019646e+002, 3.739873e+002
2.024467e+002, 3.706780e+002
2.029288e+002, 3.674901e+002
2.034109e+002, 3.644063e+002
2.038930e+002, 3.612269e+002
2.043752e+002, 3.581372e+002
2.048573e+002, 3.547378e+002
2.053394e+002, 3.505643e+002
2.058215e+002, 3.459479e+002
2.063036e+002, 3.416158e+002
2.067857e+002, 3.382337e+002
2.072679e+002, 3.358501e+002
2.077500e+002, 3.334808e+002
2.082321e+002, 3.311767e+002
2.087142e+002, 3.288365e+002
2.091963e+002, 3.260224e+002
2.096784e+002, 3.230780e+002
2.101606e+002, 3.209193e+002
2.106427e+002, 3.206171e+002
2.111248e+002, 3.225907e+002
2.116069e+002, 3.226429e+002
2.120890e+002, 3.204077e+002
2.125711e+002, 3.168369e+002
2.130533e+002, 3.114135e+002
2.135354e+002, 3.047614e+002
2.140175e+002, 2.983334e+002
2.144996e+002, 2.934750e+002
2.149817e+002, 2.903771e+002
2.154638e+002, 2.876593e+002
2.159460e+002, 2.851879e+002
2.164281e+002, 2.831024e+002
2.169102e+002, 2.818531e+002
2.173923e+002, 2.812065e+002
2.178744e+002, 2.801949e+002
2.183565e+002, 2.778258e+002
2.188387e+002, 2.738597e+002
2.193208e+002, 2.707645e+002
2.198029e+002, 2.686929e+002
2.202850e+002, 2.672265e+002
2.207671e+002, 2.664277e+002
2.212492e+002, 2.661586e+002
2.217314e+002, 2.657502e+002
2.222135e+002, 2.646089e+002
2.226956e+002, 2.626586e+002
2.231777e+002, 2.607072e+002
2.236598e+002, 2.582900e+002
2.241419e+002, 2.561990e+002
2.246240e+002, 2.555073e+002
2.251062e+002, 2.561586e+002
2.255883e+002, 2.563294e+002
2.260704e+002, 2.540097e+002
2.265525e+002, 2.496611e+002
2.270346e+002, 2.470183e+002
2.275167e+002, 2.479288e+002
2.279989e+002, 2.496336e+002
2.284810e+002, 2.493581e+002
2.289631e+002, 2.469172e+002
2.294452e+002, 2.444960e+002
2.299273e+002, 2.440282e+002
2.304094e+002, 2.448179e+002
2.308916e+002, 2.449026e+002
2.313737e+002, 2.433677e+002
2.318558e+002, 2.413194e+002
2.323379e+002, 2.401085e+002
2.328200e+002, 2.398649e+002
2.333021e+002, 2.395408e+002
2.337843e+002, 2.380402e+002
2.342664e+002, 2.361017e+002
2.347485e+002, 2.349387e+002
2.352306e+002, 2.353760e+002
2.357127e+002, 2.362778e+002
2.361948e+002, 2.357911e+002
2.366770e+002, 2.334336e+002
2.371591e+002, 2.316908e+002
2.376412e+002, 2.330136e+002
2.381233e+002, 2.353074e+002
2.386054e+002, 2.360697e+002
2.390875e+002, 2.339367e+002
2.395697e+002, 2.308114e+002
2.400518e+002, 2.300195e+002
2.405339e+002, 2.324197e+002
2.410160e+002, 2.343924e+002
2.414981e+002, 2.339735e+002
2.419802e+002, 2.326981e+002
2.424624e+002, 2.319743e+002
2.429445e+002, 2.323189e+002
2.434266e+002, 2.332817e+002
2.439087e+002, 2.341001e+002
2.443908e+002, 2.346716e+002
2.448729e+002, 2.353783e+002
2.453550e+002, 2.363928e+002
2.458372e+002, 2.375358e+002
2.463193e+002, 2.387603e+002
2.468014e+002, 2.400728e+002
2.472835e+002, 2.412095e+002
2.477656e+002, 2.416332e+002
2.482477e+002, 2.409520e+002
2.487299e+002, 2.404826e+002
2.492120e+002, 2.403312e+002
2.496941e+002, 2.405181e+002
2.501762e+002, 2.412658e+002
2.506583e+002, 2.426120e+002
2.511404e+002, 2.440354e+002
2.516226e+002, 2.445144e+002
2.521047e+002, 2.432420e+002
2.525868e+002, 2.428866e+002
2.530689e+002, 2.443898e+002
2.535510e+002, 2.462825e+002
2.540331e+002, 2.473248e+002
2.545153e+002, 2.472860e+002
2.549974e+002, 2.471106e+002
2.554795e+002, 2.484227e+002
2.559616e+002, 2.524273e+002
2.564437e+002, 2.552908e+002
2.569258e+002, 2.566140e+002
2.574080e+002, 2.572548e+002
2.578901e+002, 2.575968e+002
2.583722e+002, 2.577945e+002
2.588543e+002, 2.579761e+002
2.593364e+002, 2.582700e+002
2.598185e+002, 2.585097e+002
2.603007e+002, 2.593486e+002
2.607828e+002, 2.614801e+002
2.612649e+002, 2.635605e+002
2.617470e+002, 2.647827e+002
2.622291e+002, 2.650620e+002
2.627112e+002, 2.647439e+002
2.631934e+002, 2.641029e+002
2.636755e+002, 2.627580e+002
2.641576e+002, 2.625882e+002
2.646397e+002, 2.646546e+002
2.651218e+002, 2.667684e+002
2.656039e+002, 2.676535e+002
2.660861e+002, 2.673329e+002
2.665682e+002, 2.666467e+002
2.670503e+002, 2.664190e+002
2.675324e+002, 2.667688e+002
2.680145e+002, 2.668091e+002
2.684966e+002, 2.667379e+002
2.689788e+002, 2.662601e+002
2.694609e+002, 2.650923e+002
2.699430e+002, 2.633446e+002
2.704251e+002, 2.613403e+002
2.709072e+002, 2.592491e+002
2.713893e+002, 2.570557e+002
2.718715e+002, 2.557531e+002
2.723536e+002, 2.561087e+002
2.728357e+002, 2.564019e+002
2.733178e+002, 2.558941e+002
2.737999e+002, 2.547136e+002
2.742820e+002, 2.533158e+002
2.747642e+002, 2.519736e+002
2.752463e+002, 2.506903e+002
2.757284e+002, 2.495509e+002
2.762105e+002, 2.487889e+002
2.766926e+002, 2.478825e+002
2.771747e+002, 2.462021e+002
2.776568e+002, 2.442263e+002
2.781389e+002, 2.431786e+002
2.786211e+002, 2.438909e+002
2.791032e+002, 2.457888e+002
2.795853e+002, 2.463452e+002
2.800674e+002, 2.445182e+002
2.805495e+002, 2.428717e+002
2.810316e+002, 2.421093e+002
2.815138e+002, 2.419481e+002
2.819959e+002, 2.420410e+002
2.824780e+002, 2.423363e+002
2.829601e+002, 2.424932e+002
2.834422e+002, 2.414042e+002
2.839243e+002, 2.376522e+002
2.844065e+002, 2.354488e+002
2.848886e+002, 2.366788e+002
2.853707e+002, 2.397043e+002
2.858528e+002, 2.422649e+002
2.863349e+002, 2.436563e+002
2.868170e+002, 2.441787e+002
2.872992e+002, 2.441494e+002
2.877813e+002, 2.432776e+002
2.882634e+002, 2.428796e+002
2.887455e+002, 2.436146e+002
2.892276e+002, 2.447511e+002
2.897097e+002, 2.453682e+002
2.901919e+002, 2.452469e+002
2.906740e+002, 2.448271e+002
2.911561e+002, 2.445454e+002
2.916382e+002, 2.443772e+002
2.921203e+002, 2.446293e+002
2.926024e+002, 2.458438e+002
2.930846e+002, 2.472049e+002
2.935667e+002, 2.477786e+002
2.940488e+002, 2.474615e+002
2.945309e+002, 2.470413e+002
2.950130e+002, 2.471004e+002
2.954951e+002, 2.477115e+002
2.959773e+002, 2.490729e+002
2.964594e+002, 2.524608e+002
2.969415e+002, 2.556849e+002
2.974236e+002, 2.567794e+002
2.979057e+002, 2.558061e+002
2.983878e+002, 2.544360e+002
2.988700e+002, 2.536617e+002
2.993521e+002, 2.535090e+002
2.998342e+002, 2.536989e+002
3.003163e+002, 2.546883e+002
3.007984e+002, 2.555957e+002
3.012805e+002, 2.557260e+002
3.017627e+002, 2.552552e+002
3.022448e+002, 2.550111e+002
3.027269e+002, 2.554490e+002
3.032090e+002, 2.564080e+002
3.036911e+002, 2.573896e+002
3.041732e+002, 2.586754e+002
3.046554e+002, 2.595623e+002
3.051375e+002, 2.593131e+002
3.056196e+002, 2.583976e+002
3.061017e+002, 2.581067e+002
3.065838e+002, 2.590527e+002
3.070659e+002, 2.606145e+002
3.075481e+002, 2.616257e+002
3.080302e+002, 2.620893e+002
3.085123e+002, 2.622545e+002
3.089944e+002, 2.620074e+002
3.094765e+002, 2.615522e+002
3.099586e+002, 2.612844e+002
3.104408e+002, 2.613426e+002
3.109229e+002, 2.614408e+002
3.114050e+002, 2.612618e+002
3.118871e+002, 2.608410e+002
3.123692e+002, 2.599863e+002
3.128513e+002, 2.579722e+002
3.133335e+002, 2.558187e+002
3.138156e+002, 2.548400e+002
3.142977e+002, 2.552541e+002
3.147798e+002, 2.561627e+002
3.152619e+002, 2.570083e+002
3.157440e+002, 2.577213e+002
3.162262e+002, 2.576571e+002
3.167083e+002, 2.562952e+002
3.171904e+002, 2.544644e+002
3.176725e+002, 2.528687e+002
3.181546e+002, 2.515015e+002
3.186367e+002, 2.498776e+002
3.191188e+002, 2.473946e+002
3.196010e+002, 2.444414e+002
3.200831e+002, 2.426731e+002
3.205652e+002, 2.434841e+002
3.210473e+002, 2.440531e+002
3.215294e+002, 2.425392e+002
3.220115e+002, 2.394217e+002
3.224937e+002, 2.363401e+002
3.229758e+002, 2.340418e+002
3.234579e+002, 2.322825e+002
3.239400e+002, 2.304763e+002
3.244221e+002, 2.285203e+002
3.249042e+002, 2.267243e+002
3.253864e+002, 2.254223e+002
3.258685e+002, 2.243222e+002
3.263506e+002, 2.228436e+002
3.268327e+002, 2.207815e+002
3.273148e+002, 2.183685e+002
3.277969e+002, 2.158985e+002
3.282791e+002, 2.133572e+002
3.287612e+002, 2.108620e+002
3.292433e+002, 2.084799e+002
3.297254e+002, 2.061431e+002
3.302075e+002, 2.037541e+002
3.306896e+002, 2.012961e+002
3.311718e+002, 1.988703e+002
3.316539e+002, 1.965734e+002
3.321360e+002, 1.944215e+002
3.326181e+002, 1.922633e+002
3.331002e+002, 1.903703e+002
3.335823e+002, 1.882755e+002
3.340645e+002, 1.854160e+002
3.345466e+002, 1.819044e+002
3.350287e+002, 1.784619e+002
3.355108e+002, 1.755258e+002
3.359929e+002, 1.731251e+002
3.364750e+002, 1.713027e+002
3.369572e+002, 1.707151e+002
3.374393e+002, 1.699288e+002
3.379214e+002, 1.679023e+002
3.384035e+002, 1.651940e+002
3.388856e+002, 1.633027e+002
3.393677e+002, 1.630636e+002
3.398499e+002, 1.637299e+002
3.403320e+002, 1.632206e+002
3.408141e+002, 1.608729e+002
3.412962e+002, 1.587523e+002
3.417783e+002, 1.575234e+002
3.422604e+002, 1.566344e+002
3.427426e+002, 1.553553e+002
3.432247e+002, 1.534832e+002
3.437068e+002, 1.513364e+002
3.441889e+002, 1.493145e+002
3.446710e+002, 1.473714e+002
3.451531e+002, 1.457996e+002
3.456353e+002, 1.451893e+002
3.461174e+002, 1.445571e+002
3.465995e+002, 1.428518e+002
3.470816e+002, 1.401644e+002
3.475637e+002, 1.376708e+002
3.480458e+002, 1.365161e+002
3.485280e+002, 1.367860e+002
3.490101e+002, 1.365894e+002
3.494922e+002, 1.357078e+002
3.499743e+002, 1.346701e+002
3.504564e+002, 1.334778e+002
3.509385e+002, 1.323077e+002
3.514207e+002, 1.315294e+002
3.519028e+002, 1.313901e+002
3.523849e+002, 1.317493e+002
3.528670e+002, 1.320125e+002
3.533491e+002, 1.327349e+002
3.538312e+002, 1.326784e+002
3.543134e+002, 1.309278e+002
3.547955e+002, 1.286212e+002
3.552776e+002, 1.270706e+002
3.557597e+002, 1.267345e+002
3.562418e+002, 1.271647e+002
3.567239e+002, 1.276378e+002
3.572061e+002, 1.283016e+002
3.576882e+002, 1.286775e+002
3.581703e+002, 1.285725e+002
3.586524e+002, 1.283527e+002
3.591345e+002, 1.282603e+002
3.596166e+002, 1.283153e+002
3.600987e+002, 1.284145e+002
3.605808e+002, 1.284851e+002
3.610630e+002, 1.285539e+002
3.615451e+002, 1.283113e+002
3.620272e+002, 1.274512e+002
3.625093e+002, 1.266196e+002
3.629914e+002, 1.259868e+002
3.634735e+002, 1.255425e+002
3.639557e+002, 1.252617e+002
3.644378e+002, 1.251400e+002
3.649199e+002, 1.251319e+002
3.654020e+002, 1.250364e+002
3.658841e+002, 1.246933e+002
3.663662e+002, 1.244901e+002
3.668484e+002, 1.247034e+002
3.673305e+002, 1.249559e+002
3.678126e+002, 1.248176e+002
3.682947e+002, 1.241708e+002
3.687768e+002, 1.233279e+002
3.692589e+002, 1.227620e+002
3.697411e+002, 1.225385e+002
3.702232e+002, 1.224308e+002
3.707053e+002, 1.229221e+002
3.711874e+002, 1.231138e+002
3.716695e+002, 1.220935e+002
3.721516e+002, 1.201599e+002
3.726338e+002, 1.186216e+002
3.731159e+002, 1.188790e+002
3.735980e+002, 1.208524e+002
3.740801e+002, 1.218181e+002
3.745622e+002, 1.207587e+002
3.750443e+002, 1.199072e+002
3.755265e+002, 1.204120e+002
3.760086e+002, 1.215067e+002
3.764907e+002, 1.218562e+002
3.769728e+002, 1.206260e+002
3.774549e+002, 1.187373e+002
3.779370e+002, 1.184307e+002
3.784192e+002, 1.204219e+002
3.789013e+002, 1.219653e+002
3.793834e+002, 1.220889e+002
3.798655e+002, 1.216125e+002
3.803476e+002, 1.210160e+002
3.808297e+002, 1.204036e+002
3.813119e+002, 1.198977e+002
3.817940e+002, 1.196862e+002
3.822761e+002, 1.197615e+002
3.827582e+002, 1.197553e+002
3.832403e+002, 1.196267e+002
3.837224e+002, 1.193892e+002
3.842046e+002, 1.190216e+002
3.846867e+002, 1.185586e+002
3.851688e+002, 1.181121e+002
3.856509e+002, 1.175296e+002
3.861330e+002, 1.170453e+002
3.866151e+002, 1.173328e+002
3.870973e+002, 1.186113e+002
3.875794e+002, 1.198696e+002
3.880615e+002, 1.206451e+002
3.885436e+002, 1.210022e+002
3.890257e+002, 1.209117e+002
3.895078e+002, 1.201250e+002
3.899900e+002, 1.193315e+002
3.904721e+002, 1.192829e+002
3.909542e+002, 1.198678e+002
3.914363e+002, 1.201811e+002
3.919184e+002, 1.198032e+002
3.924005e+002, 1.191788e+002
3.928827e+002, 1.188963e+002
3.933648e+002, 1.189525e+002
3.938469e+002, 1.191971e+002
3.943290e+002, 1.199296e+002
3.948111e+002, 1.207014e+002
3.952932e+002, 1.206065e+002
3.957754e+002, 1.194376e+002
3.962575e+002, 1.182487e+002
3.967396e+002, 1.180150e+002
3.972217e+002, 1.186749e+002
3.977038e+002, 1.191653e+002
3.981859e+002, 1.194205e+002
3.986681e+002, 1.195177e+002
3.991501e+002, 1.193144e+002
3.996323e+002, 1.189514e+002
4.001144e+002, 1.189684e+002
4.005965e+002, 1.197153e+002
4.010786e+002, 1.208864e+002
4.015607e+002, 1.215797e+002
4.020428e+002, 1.216640e+002
4.025250e+002, 1.215940e+002
4.030071e+002, 1.211969e+002
4.034892e+002, 1.207990e+002
4.039713e+002, 1.208647e+002
4.044534e+002, 1.214739e+002
4.049355e+002, 1.222164e+002
4.054177e+002, 1.226082e+002
4.058998e+002, 1.225602e+002
4.063819e+002, 1.225704e+002
4.068640e+002, 1.226806e+002
4.073461e+002, 1.228014e+002
4.078282e+002, 1.229283e+002
4.083104e+002, 1.230315e+002
4.087925e+002, 1.230210e+002
4.092746e+002, 1.228180e+002
4.097567e+002, 1.225116e+002
4.102388e+002, 1.225152e+002
4.107209e+002, 1.232174e+002
4.112031e+002, 1.237353e+002
4.116852e+002, 1.237031e+002
4.121673e+002, 1.236166e+002
4.126494e+002, 1.240167e+002
4.131315e+002, 1.250127e+002
4.136136e+002, 1.262192e+002
4.140958e+002, 1.271467e+002
4.145779e+002, 1.277687e+002
4.150600e+002, 1.282295e+002
4.155421e+002, 1.285546e+002
4.160242e+002, 1.286847e+002
4.165063e+002, 1.284185e+002
4.169885e+002, 1.279268e+002
4.174706e+002, 1.275658e+002
4.179527e+002, 1.275171e+002
4.184348e+002, 1.278038e+002
4.189169e+002, 1.285968e+002
4.193990e+002, 1.302117e+002
4.198812e+002, 1.316223e+002
4.203633e+002, 1.326869e+002
4.208454e+002, 1.333238e+002
4.213275e+002, 1.333108e+002
4.218096e+002, 1.325800e+002
4.222917e+002, 1.316329e+002
4.227739e+002, 1.307295e+002
4.232560e+002, 1.299073e+002
4.237381e+002, 1.300008e+002
4.242202e+002, 1.317065e+002
4.247023e+002, 1.335785e+002
4.251844e+002, 1.344834e+002
4.256666e+002, 1.346180e+002
4.261487e+002, 1.346903e+002
4.266308e+002, 1.348535e+002
4.271129e+002, 1.351892e+002
4.275950e+002, 1.359267e+002
4.280771e+002, 1.370999e+002
4.285593e+002, 1.381502e+002
4.290414e+002, 1.386831e+002
4.295235e+002, 1.389472e+002
4.300056e+002, 1.395540e+002
4.304877e+002, 1.407543e+002
4.309698e+002, 1.417334e+002
4.314520e+002, 1.414905e+002
4.319341e+002, 1.408286e+002
4.324162e+002, 1.416317e+002
4.328983e+002, 1.445066e+002
4.333804e+002, 1.478538e+002
4.338625e+002, 1.498334e+002
4.343447e+002, 1.502404e+002
4.348268e+002, 1.505950e+002
4.353089e+002, 1.509641e+002
4.357910e+002, 1.512787e+002
4.362731e+002, 1.515718e+002
4.367552e+002, 1.517836e+002
4.372374e+002, 1.516842e+002
4.377195e+002, 1.510891e+002
4.382016e+002, 1.501847e+002
4.386837e+002, 1.496950e+002
4.391658e+002, 1.495383e+002
4.396479e+002, 1.499227e+002
4.401301e+002, 1.510276e+002
4.406122e+002, 1.525868e+002
4.410943e+002, 1.547132e+002
4.415764e+002, 1.572365e+002
4.420585e+002, 1.592671e+002
4.425406e+002, 1.595721e+002
4.430227e+002, 1.577507e+002
4.435049e+002, 1.571509e+002
4.439870e+002, 1.589881e+002
4.444691e+002, 1.608070e+002
4.449512e+002, 1.618042e+002
4.454333e+002, 1.622822e+002
4.459154e+002, 1.628333e+002
4.463976e+002, 1.637574e+002
4.468797e+002, 1.648943e+002
4.473618e+002, 1.658373e+002
4.478439e+002, 1.664137e+002
4.483260e+002, 1.673114e+002
4.488081e+002, 1.692063e+002
4.492903e+002, 1.710659e+002
4.497724e+002, 1.721070e+002
4.502545e+002, 1.723568e+002
4.507366e+002, 1.725771e+002
4.512187e+002, 1.734151e+002
4.517008e+002, 1.747192e+002
4.521830e+002, 1.758029e+002
4.526651e+002, 1.765623e+002
4.531472e+002, 1.773172e+002
4.536293e+002, 1.783776e+002
4.541114e+002, 1.795219e+002
4.545935e+002, 1.803715e+002
4.550757e+002, 1.806454e+002
4.555578e+002, 1.809962e+002
4.560399e+002, 1.819392e+002
4.565220e+002, 1.834149e+002
4.570041e+002, 1.852840e+002
4.574862e+002, 1.876838e+002
4.579684e+002, 1.900931e+002
4.584505e+002, 1.917327e+002
4.589326e+002, 1.926197e+002
4.594147e+002, 1.935575e+002
4.598968e+002, 1.948252e+002
4.603789e+002, 1.960986e+002
4.608611e+002, 1.970065e+002
4.613432e+002, 1.976095e+002
4.618253e+002, 1.982543e+002
4.623074e+002, 1.990828e+002
4.627895e+002, 2.001954e+002
4.632716e+002, 2.020658e+002
4.637538e+002, 2.053213e+002
4.642359e+002, 2.084571e+002
4.647180e+002, 2.112954e+002
4.652001e+002, 2.139669e+002
4.656822e+002, 2.167074e+002
4.661643e+002, 2.195180e+002
4.666465e+002, 2.219629e+002
4.671286e+002, 2.233856e+002
4.676107e+002, 2.235479e+002
4.680928e+002, 2.251221e+002
4.685749e+002, 2.294382e+002
4.690570e+002, 2.337726e+002
4.695392e+002, 2.374784e+002
4.700213e+002, 2.407181e+002
4.705034e+002, 2.437516e+002
4.709855e+002, 2.466907e+002
4.714676e+002, 2.495541e+002
4.719497e+002, 2.523765e+002
4.724319e+002, 2.551588e+002
4.729140e+002, 2.578782e+002
4.733961e+002, 2.603810e+002
4.738782e+002, 2.629428e+002
4.743603e+002, 2.657807e+002
4.748424e+002, 2.688259e+002
4.753246e+002, 2.718399e+002
4.758067e+002, 2.744652e+002
4.762888e+002, 2.770219e+002
4.767709e+002, 2.804013e+002
4.772530e+002, 2.847462e+002
4.777351e+002, 2.889012e+002
4.782173e+002, 2.919740e+002
4.786994e+002, 2.947468e+002
4.791815e+002, 2.984728e+002
4.796636e+002, 3.034198e+002
4.801457e+002, 3.084861e+002
4.806278e+002, 3.129539e+002
4.811100e+002, 3.172096e+002
4.815920e+002, 3.221450e+002
4.820742e+002, 3.279495e+002
4.825563e+002, 3.336291e+002
4.830384e+002, 3.381594e+002
4.835205e+002, 3.415672e+002
4.840026e+002, 3.458659e+002
4.844847e+002, 3.519122e+002
4.849669e+002, 3.578465e+002
4.854490e+002, 3.629575e+002
4.859311e+002, 3.674581e+002
4.864132e+002, 3.716696e+002
4.868953e+002, 3.757311e+002
4.873774e+002, 3.797447e+002
4.878596e+002, 3.837714e+002
4.883417e+002, 3.874848e+002
4.888238e+002, 3.922564e+002
4.893059e+002, 3.986292e+002
4.897880e+002, 4.053412e+002
4.902701e+002, 4.124652e+002
4.907523e+002, 4.193903e+002
4.912344e+002, 4.247426e+002
4.917165e+002, 4.274278e+002
4.921986e+002, 4.287033e+002
4.926807e+002, 4.322503e+002
4.931628e+002, 4.390977e+002
4.936450e+002, 4.453474e+002
4.941271e+002, 4.492804e+002
4.946092e+002, 4.529617e+002
4.950913e+002, 4.582446e+002
4.955734e+002, 4.649698e+002
4.960555e+002, 4.708655e+002
4.965377e+002, 4.734694e+002
4.970198e+002, 4.740846e+002
4.975019e+002, 4.762628e+002
4.979840e+002, 4.802474e+002
4.984661e+002, 4.850244e+002
4.989482e+002, 4.904718e+002
4.994304e+002, 4.962730e+002
4.999125e+002, 5.017343e+002
5.003946e+002, 5.066304e+002
5.008767e+002, 5.116976e+002
5.013588e+002, 5.175060e+002
5.018409e+002, 5.237120e+002
5.023231e+002, 5.297784e+002
5.028052e+002, 5.355801e+002
5.032873e+002, 5.413605e+002
5.037694e+002, 5.474280e+002
5.042515e+002, 5.538417e+002
5.047336e+002, 5.594704e+002
5.052158e+002, 5.636998e+002
5.056979e+002, 5.679236e+002
5.061800e+002, 5.720323e+002
5.066621e+002, 5.766398e+002
5.071442e+002, 5.829225e+002
5.076263e+002, 5.912312e+002
5.081085e+002, 6.002448e+002
5.085906e+002, 6.078500e+002
5.090727e+002, 6.136384e+002
5.095548e+002, 6.195104e+002
5.100369e+002, 6.247240e+002
5.105190e+002, 6.307486e+002
5.110012e+002, 6.387294e+002
5.114833e+002, 6.478831e+002
5.119654e+002, 6.565328e+002
5.124475e+002, 6.636473e+002
5.129296e+002, 6.705721e+002
5.134117e+002, 6.802233e+002
5.138939e+002, 6.931372e+002
5.143760e+002, 7.049088e+002
5.148581e+002, 7.141833e+002
5.153402e+002, 7.224322e+002
5.158223e+002, 7.304595e+002
5.163044e+002, 7.384188e+002
5.167866e+002, 7.471484e+002
5.172687e+002, 7.576512e+002
5.177508e+002, 7.687874e+002
5.182329e+002, 7.784305e+002
5.187150e+002, 7.868058e+002
5.191971e+002, 7.973802e+002
5.196793e+002, 8.124365e+002
5.201614e+002, 8.299204e+002
5.206435e+002, 8.446942e+002
5.211256e+002, 8.557213e+002
5.216077e+002, 8.678334e+002
5.220898e+002, 8.829193e+002
5.225720e+002, 8.985998e+002
5.230541e+002, 9.123239e+002
5.235362e+002, 9.242623e+002
5.240183e+002, 9.365379e+002
5.245004e+002, 9.505220e+002
5.249825e+002, 9.661241e+002
5.254647e+002, 9.833743e+002
5.259468e+002, 1.003174e+003
5.264289e+002, 1.023262e+003
5.269110e+002, 1.044101e+003
5.273931e+002, 1.064769e+003
5.278752e+002, 1.084395e+003
5.283574e+002, 1.102938e+003
5.288395e+002, 1.120919e+003
5.293216e+002, 1.138113e+003
5.298037e+002, 1.154994e+003
5.302858e+002, 1.175303e+003
5.307679e+002, 1.200789e+003
5.312501e+002, 1.225512e+003
5.317322e+002, 1.245871e+003
5.322143e+002, 1.264613e+003
5.326964e+002, 1.284652e+003
5.331785e+002, 1.306446e+003
5.336606e+002, 1.329135e+003
5.341428e+002, 1.353678e+003
5.346249e+002, 1.378488e+003
5.351070e+002, 1.399565e+003
5.355891e+002, 1.416102e+003
5.360712e+002, 1.433022e+003
5.365533e+002, 1.454559e+003
5.370355e+002, 1.479691e+003
5.375176e+002, 1.501469e+003
5.379997e+002, 1.517801e+003
5.384818e+002, 1.533748e+003
5.389639e+002, 1.550228e+003
5.394460e+002, 1.567421e+003
5.399282e+002, 1.585898e+003
5.404103e+002, 1.605595e+003
5.408924e+002, 1.625615e+003
5.413745e+002, 1.645074e+003
5.418566e+002, 1.664003e+003
5.423387e+002, 1.681332e+003
5.428209e+002, 1.696845e+003
5.433029e+002, 1.710717e+003
5.437850e+002, 1.722835e+003
5.442672e+002, 1.733370e+003
5.447493e+002, 1.743231e+003
5.452314e+002, 1.752499e+003
5.457135e+002, 1.758440e+003
5.461956e+002, 1.756359e+003
5.466777e+002, 1.747042e+003
5.471599e+002, 1.740413e+003
5.476420e+002, 1.738900e+003
5.481241e+002, 1.736069e+003
5.486062e+002, 1.727310e+003
5.490883e+002, 1.714700e+003
5.495704e+002, 1.700766e+003
5.500526e+002, 1.684939e+003
5.505347e+002, 1.670056e+003
5.510168e+002, 1.658515e+003
5.514989e+002, 1.649040e+003
5.519810e+002, 1.638649e+003
5.524631e+002, 1.626688e+003
5.529453e+002, 1.615078e+003
5.534274e+002, 1.605476e+003
5.539095e+002, 1.597871e+003
5.543916e+002, 1.592159e+003
5.548737e+002, 1.589197e+003
5.553558e+002, 1.586786e+003
5.558380e+002, 1.583170e+003
5.563201e+002, 1.580268e+003
5.568022e+002, 1.580378e+003
5.572843e+002, 1.584110e+003
5.577664e+002, 1.590764e+003
5.582485e+002, 1.600298e+003
5.587307e+002, 1.612844e+003
5.592128e+002, 1.622930e+003
5.596949e+002, 1.628723e+003
5.601770e+002, 1.634505e+003
5.606591e+002, 1.642213e+003
5.611412e+002, 1.650520e+003
5.616234e+002, 1.657720e+003
5.621055e+002, 1.663283e+003
5.625876e+002, 1.668676e+003
5.630697e+002, 1.676346e+003
5.635518e+002, 1.684957e+003
5.640339e+002, 1.690289e+003
5.645161e+002, 1.691989e+003
5.649982e+002, 1.689821e+003
5.654803e+002, 1.683677e+003
5.659624e+002, 1.673186e+003
5.664445e+002, 1.658491e+003
5.669266e+002, 1.638566e+003
5.674088e+002, 1.615986e+003
5.678909e+002, 1.591738e+003
5.683730e+002, 1.565282e+003
5.688551e+002, 1.535418e+003
5.693372e+002, 1.502290e+003
5.698193e+002, 1.466685e+003
5.703015e+002, 1.429343e+003
5.707836e+002, 1.390327e+003
5.712657e+002, 1.353612e+003
5.717478e+002, 1.319134e+003
5.722299e+002, 1.287124e+003
5.727120e+002, 1.256134e+003
5.731942e+002, 1.228269e+003
5.736763e+002, 1.205871e+003
5.741584e+002, 1.188979e+003
5.746405e+002, 1.175325e+003
5.751226e+002, 1.164636e+003
5.756047e+002, 1.155736e+003
5.760869e+002, 1.143620e+003
5.765690e+002, 1.127960e+003
5.770511e+002, 1.110592e+003
5.775332e+002, 1.093238e+003
5.780153e+002, 1.074154e+003
5.784974e+002, 1.050919e+003
5.789796e+002, 1.023064e+003
5.794617e+002, 9.930187e+002
5.799438e+002, 9.617944e+002
5.804259e+002, 9.288311e+002
5.809080e+002, 8.927653e+002
5.813901e+002, 8.539598e+002
5.818723e+002, 8.137269e+002
5.823544e+002, 7.724517e+002
5.828365e+002, 7.312047e+002
5.833186e+002, 6.934069e+002
5.838007e+002, 6.597208e+002
5.842828e+002, 6.286154e+002
5.847650e+002, 5.998686e+002
5.852471e+002, 5.735385e+002
5.857292e+002, 5.502399e+002
5.862113e+002, 5.294136e+002
5.866934e+002, 5.095596e+002
5.871755e+002, 4.897285e+002
5.876577e+002, 4.703313e+002
5.881398e+002, 4.523822e+002
5.886219e+002, 4.358079e+002
5.891040e+002, 4.211014e+002
5.895861e+002, 4.090753e+002
5.900682e+002, 3.981698e+002
5.905504e+002, 3.868665e+002
5.910325e+002, 3.753094e+002
5.915146e+002, 3.645955e+002
5.919967e+002, 3.548510e+002
5.924788e+002, 3.462900e+002
5.929609e+002, 3.399756e+002
5.934431e+002, 3.351497e+002
5.939252e+002, 3.294310e+002
5.944073e+002, 3.219346e+002
5.948894e+002, 3.137267e+002
5.953715e+002, 3.061870e+002
5.958536e+002, 2.993012e+002
5.963358e+002, 2.931602e+002
5.968179e+002, 2.880764e+002
5.973000e+002, 2.832758e+002
5.977821e+002, 2.786646e+002
5.982642e+002, 2.740811e+002
5.987463e+002, 2.693134e+002
5.992285e+002, 2.642826e+002
5.997106e+002, 2.591302e+002
6.001927e+002, 2.536800e+002
6.006748e+002, 2.479664e+002
6.011569e+002, 2.437386e+002
6.016390e+002, 2.417814e+002
6.021212e+002, 2.398271e+002
6.026033e+002, 2.363710e+002
6.030854e+002, 2.321599e+002
6.035675e+002, 2.282409e+002
6.040496e+002, 2.245317e+002
6.045317e+002, 2.216781e+002
6.050139e+002, 2.205865e+002
6.054960e+002, 2.202769e+002
6.059781e+002, 2.193029e+002
6.064602e+002, 2.175300e+002
6.069423e+002, 2.156566e+002
6.074244e+002, 2.142207e+002
6.079066e+002, 2.130645e+002
6.083887e+002, 2.114056e+002
6.088708e+002, 2.073347e+002
6.093529e+002, 2.056116e+002
6.098350e+002, 2.087077e+002
6.103171e+002, 2.122622e+002
6.107993e+002, 2.129438e+002
6.112814e+002, 2.111590e+002
6.117635e+002, 2.094392e+002
6.122456e+002, 2.094029e+002
6.127277e+002, 2.103710e+002
6.132098e+002, 2.107641e+002
6.136920e+002, 2.104659e+002
6.141741e+002, 2.110886e+002
6.146562e+002, 2.135002e+002
6.151383e+002, 2.163402e+002
6.156204e+002, 2.180159e+002
6.161025e+002, 2.187864e+002
6.165847e+002, 2.202837e+002
6.170668e+002, 2.233445e+002
6.175489e+002, 2.267224e+002
6.180310e+002, 2.295345e+002
6.185131e+002, 2.320999e+002
6.189952e+002, 2.351384e+002
6.194774e+002, 2.388558e+002
6.199595e+002, 2.428382e+002
6.204416e+002, 2.465277e+002
6.209237e+002, 2.498690e+002
6.214058e+002, 2.539908e+002
6.218879e+002, 2.592800e+002
6.223701e+002, 2.649388e+002
6.228522e+002, 2.713017e+002
6.233343e+002, 2.776461e+002
6.238164e+002, 2.832971e+002
6.242985e+002, 2.880785e+002
6.247806e+002, 2.920913e+002
6.252628e+002, 2.950546e+002
6.257448e+002, 2.973389e+002
6.262269e+002, 3.000800e+002
6.267090e+002, 3.033870e+002
6.271912e+002, 3.062274e+002
6.276733e+002, 3.084481e+002
6.281554e+002, 3.096454e+002
6.286375e+002, 3.087122e+002
6.291196e+002, 3.053223e+002
6.296017e+002, 3.019569e+002
6.300839e+002, 2.992281e+002
6.305660e+002, 2.964034e+002
6.310481e+002, 2.933059e+002
6.315302e+002, 2.896543e+002
6.320123e+002, 2.847542e+002
6.324944e+002, 2.783072e+002
6.329766e+002, 2.710847e+002
6.334587e+002, 2.644123e+002
6.339408e+002, 2.583881e+002
6.344229e+002, 2.522742e+002
6.349050e+002, 2.461730e+002
6.353871e+002, 2.398637e+002
6.358693e+002, 2.330143e+002
6.363514e+002, 2.260060e+002
6.368335e+002, 2.193396e+002
6.373156e+002, 2.131053e+002
6.377977e+002, 2.074759e+002
6.382798e+002, 2.029031e+002
6.387620e+002, 1.989681e+002
6.392441e+002, 1.948123e+002
6.397262e+002, 1.903629e+002
6.402083e+002, 1.859618e+002
6.406904e+002, 1.818432e+002
6.411725e+002, 1.779294e+002
6.416547e+002, 1.739117e+002
6.421368e+002, 1.691482e+002
6.426189e+002, 1.652940e+002
6.431010e+002, 1.629671e+002
6.435831e+002, 1.610008e+002
6.440652e+002, 1.584432e+002
6.445474e+002, 1.556186e+002
6.450295e+002, 1.535212e+002
6.455116e+002, 1.527395e+002
6.459937e+002, 1.526432e+002
6.464758e+002, 1.523463e+002
6.469579e+002, 1.518484e+002
6.474401e+002, 1.510471e+002
6.479222e+002, 1.498837e+002
6.484043e+002, 1.485074e+002
6.488864e+002, 1.468148e+002
6.493685e+002, 1.449969e+002
6.498506e+002, 1.437399e+002
6.503328e+002, 1.436902e+002
6.508149e+002, 1.432877e+002
6.512970e+002, 1.415168e+002
6.517791e+002, 1.392888e+002
6.522612e+002, 1.376033e+002
6.527433e+002, 1.366148e+002
6.532255e+002, 1.361997e+002
6.537076e+002, 1.363771e+002
6.541897e+002, 1.368174e+002
6.546718e+002, 1.361651e+002
6.551539e+002, 1.337824e+002
6.556360e+002, 1.318569e+002
6.561182e+002, 1.309933e+002
6.566003e+002, 1.304068e+002
6.570824e+002, 1.297776e+002
6.575645e+002, 1.290785e+002
6.580466e+002, 1.282883e+002
6.585287e+002, 1.272359e+002
6.590109e+002, 1.263436e+002
6.594930e+002, 1.262056e+002
6.599751e+002, 1.265424e+002
6.604572e+002, 1.266009e+002
6.609393e+002, 1.262203e+002
6.614214e+002, 1.254966e+002
6.619036e+002, 1.244333e+002
6.623857e+002, 1.230841e+002
6.628678e+002, 1.220466e+002
6.633499e+002, 1.214257e+002
6.638320e+002, 1.209923e+002
6.643141e+002, 1.212315e+002
6.647963e+002, 1.212660e+002
6.652784e+002, 1.200180e+002
6.657605e+002, 1.178272e+002
6.662426e+002, 1.161877e+002
6.667247e+002, 1.161717e+002
6.672068e+002, 1.169659e+002
6.676890e+002, 1.171150e+002
6.681711e+002, 1.166362e+002
6.686532e+002, 1.161666e+002
6.691353e+002, 1.159410e+002
6.696174e+002, 1.155177e+002
6.700995e+002, 1.142209e+002
6.705817e+002, 1.122136e+002
6.710638e+002, 1.111262e+002
6.715459e+002, 1.118292e+002
6.720280e+002, 1.124114e+002
6.725101e+002, 1.123595e+002
6.729922e+002, 1.118304e+002
6.734744e+002, 1.107676e+002
6.739565e+002, 1.093350e+002
6.744386e+002, 1.081248e+002
6.749207e+002, 1.076186e+002
6.754028e+002, 1.076076e+002
6.758849e+002, 1.073802e+002
6.763671e+002, 1.068503e+002
6.768492e+002, 1.064888e+002
6.773313e+002, 1.064375e+002
6.778134e+002, 1.065281e+002
6.782955e+002, 1.067784e+002
6.787776e+002, 1.070777e+002
6.792598e+002, 1.070078e+002
6.797419e+002, 1.063128e+002
6.802240e+002, 1.054335e+002
6.807061e+002, 1.045177e+002
6.811882e+002, 1.036287e+002
6.816703e+002, 1.027838e+002
6.821525e+002, 1.020266e+002
6.826346e+002, 1.016233e+002
6.831167e+002, 1.018838e+002
6.835988e+002, 1.025704e+002
6.840809e+002, 1.024241e+002
6.845630e+002, 1.008218e+002
6.850452e+002, 9.975225e+001
6.855273e+002, 9.992340e+001
6.860094e+002, 1.003151e+002
6.864915e+002, 1.002717e+002
6.869736e+002, 9.995709e+001
6.874557e+002, 1.000081e+002
6.879379e+002, 1.010017e+002
6.884200e+002, 1.018291e+002
6.889021e+002, 1.011505e+002
6.893842e+002, 9.960977e+001
6.898663e+002, 9.881454e+001
6.903484e+002, 9.903571e+001
6.908306e+002, 9.930675e+001
6.913127e+002, 9.884105e+001
6.917948e+002, 9.781467e+001
6.922769e+002, 9.709973e+001
6.927590e+002, 9.672457e+001
6.932411e+002, 9.664120e+001
6.937233e+002, 9.721339e+001
6.942054e+002, 9.772285e+001
6.946875e+002, 9.756255e+001
6.951696e+002, 9.698875e+001
6.956517e+002, 9.675123e+001
6.961339e+002, 9.727930e+001
6.966160e+002, 9.793690e+001
6.970981e+002, 9.801707e+001
6.975802e+002, 9.763580e+001
6.980623e+002, 9.715092e+001
6.985444e+002, 9.660577e+001
6.990266e+002, 9.612045e+001
6.995087e+002, 9.575951e+001
6.999908e+002, 9.553552e+001
7.004729e+002, 9.551347e+001
7.009550e+002, 9.625205e+001
7.014371e+002, 9.631690e+001
7.019193e+002, 9.488713e+001
7.024014e+002, 9.352171e+001
7.028835e+002, 9.321994e+001
7.033656e+002, 9.373059e+001
7.038477e+002, 9.440526e+001
7.043298e+002, 9.498546e+001
7.048120e+002, 9.545000e+001
7.052941e+002, 9.584181e+001
7.057762e+002, 9.610657e+001
7.062583e+002, 9.586800e+001
7.067404e+002, 9.501054e+001
7.072225e+002, 9.424916e+001
7.077046e+002, 9.411734e+001
7.081867e+002, 9.426831e+001
7.086688e+002, 9.371864e+001
7.091509e+002, 9.187590e+001
7.096331e+002, 9.087958e+001
7.101152e+002, 9.133867e+001
7.105973e+002, 9.222009e+001
7.110794e+002, 9.334032e+001
7.115615e+002, 9.432554e+001
7.120436e+002, 9.446023e+001
7.125258e+002, 9.351096e+001
7.130079e+002, 9.243658e+001
7.134900e+002, 9.259122e+001
7.139721e+002, 9.366298e+001
7.144542e+002, 9.382864e+001
7.149363e+002, 9.291454e+001
7.154185e+002, 9.182213e+001
7.159006e+002, 9.072691e+001
7.163827e+002, 8.992432e+001
7.168648e+002, 9.009858e+001
7.173469e+002, 9.146651e+001
7.178290e+002, 9.239107e+001
7.183112e+002, 9.243711e+001
7.187933e+002, 9.232827e+001
7.192754e+002, 9.247582e+001
7.197575e+002, 9.267445e+001
7.202396e+002, 9.252073e+001
7.207217e+002, 9.195531e+001
7.212039e+002, 9.141057e+001
7.216860e+002, 9.138744e+001
7.221681e+002, 9.170940e+001
7.226502e+002, 9.157290e+001
7.231323e+002, 9.088067e+001
7.236144e+002, 9.060063e+001
7.240966e+002, 9.131586e+001
7.245787e+002, 9.214911e+001
7.250608e+002, 9.193320e+001
7.255429e+002, 9.069386e+001
7.260250e+002, 8.987099e+001
7.265071e+002, 8.982275e+001
7.269893e+002, 8.986077e+001
7.274714e+002, 8.972470e+001
7.279535e+002, 8.955147e+001
7.284356e+002, 8.950737e+001
7.289177e+002, 8.960590e+001
7.293998e+002, 8.971828e+001
7.298820e+002, 8.967843e+001
7.303641e+002, 8.972112e+001
7.308462e+002, 9.078447e+001
7.313283e+002, 9.294650e+001
7.318104e+002, 9.351949e+001
7.322925e+002, 9.135424e+001
7.327747e+002, 8.897329e+001
7.332568e+002, 8.853094e+001
7.337389e+002, 8.966535e+001
7.342210e+002, 9.028491e+001
7.347031e+002, 9.002080e+001
7.351852e+002, 8.981071e+001
7.356674e+002, 8.979376e+001
7.361495e+002, 8.994185e+001
7.366316e+002, 9.042729e+001
7.371137e+002, 9.105138e+001
7.375958e+002, 9.127339e+001
7.380779e+002, 9.079676e+001
7.385601e+002, 9.010319e+001
7.390422e+002, 9.009441e+001
7.395243e+002, 9.063847e+001
7.400064e+002, 9.023958e+001
7.404885e+002, 8.850101e+001
7.409706e+002, 8.714760e+001
7.414528e+002, 8.735800e+001
7.419349e+002, 8.841091e+001
7.424170e+002, 8.867431e+001
7.428991e+002, 8.789500e+001
7.433812e+002, 8.728806e+001
7.438633e+002, 8.682661e+001
7.443455e+002, 8.668902e+001
7.448276e+002, 8.740982e+001
7.453097e+002, 8.834827e+001
7.457918e+002, 8.841512e+001
7.462739e+002, 8.736825e+001
7.467560e+002, 8.614333e+001
7.472382e+002, 8.556224e+001
7.477203e+002, 8.552276e+001
7.482024e+002, 8.586333e+001
7.486845e+002, 8.659966e+001
7.491666e+002, 8.699770e+001
7.496487e+002, 8.664599e+001
7.501309e+002, 8.628935e+001
7.506130e+002, 8.695913e+001
7.510951e+002, 8.874799e+001
7.515772e+002, 8.968272e+001
7.520593e+002, 8.938377e+001
7.525414e+002, 8.879738e+001
7.530236e+002, 8.773515e+001
7.535057e+002, 8.675484e+001
7.539878e+002, 8.643258e+001
7.544699e+002, 8.669809e+001
7.549520e+002, 8.706566e+001
7.554341e+002, 8.736998e+001
7.559163e+002, 8.741393e+001
7.563984e+002, 8.671235e+001
7.568805e+002, 8.547066e+001
7.573626e+002, 8.464705e+001
7.578447e+002, 8.441433e+001
7.583268e+002, 8.427101e+001
7.588090e+002, 8.383292e+001
7.592911e+002, 8.324817e+001
7.597732e+002, 8.301400e+001
7.602553e+002, 8.331968e+001
7.607374e+002, 8.364381e+001
7.612195e+002, 8.410780e+001
7.617017e+002, 8.446360e+001
7.621838e+002, 8.450200e+001
7.626659e+002, 8.438927e+001
7.631480e+002, 8.444899e+001
7.636301e+002, 8.478271e+001
7.641122e+002, 8.496700e+001
7.645944e+002, 8.447786e+001
7.650765e+002, 8.375093e+001
7.655586e+002, 8.344550e+001
7.660407e+002, 8.355589e+001
7.665228e+002, 8.402249e+001
7.670049e+002, 8.486647e+001
7.674871e+002, 8.548692e+001
7.679692e+002, 8.501350e+001
7.684513e+002, 8.338390e+001
7.689334e+002, 8.208821e+001
7.694155e+002, 8.082240e+001
7.698976e+002, 8.040224e+001
7.703798e+002, 8.184618e+001
7.708619e+002, 8.350015e+001
7.713440e+002, 8.397249e+001
7.718261e+002, 8.340968e+001
7.723082e+002, 8.296730e+001
7.727903e+002, 8.335239e+001
7.732725e+002, 8.356496e+001
7.737546e+002, 8.267018e+001
7.742367e+002, 8.125789e+001
7.747188e+002, 8.005005e+001
7.752009e+002, 7.925124e+001
7.756830e+002, 7.920007e+001
7.761652e+002, 8.020164e+001
7.766473e+002, 8.169960e+001
7.771294e+002, 8.233759e+001
7.776115e+002, 8.199101e+001
7.780936e+002, 8.161514e+001
7.785757e+002, 8.121412e+001
7.790579e+002, 8.089288e+001
7.795400e+002, 8.084385e+001
7.800221e+002, 8.085233e+001
7.805042e+002, 8.045099e+001
7.809863e+002, 7.943956e+001
7.814684e+002, 7.894248e+001
7.819506e+002, 8.012551e+001
7.824327e+002, 8.101086e+001
7.829148e+002, 7.974984e+001
7.833969e+002, 7.751776e+001
7.838790e+002, 7.640789e+001
7.843611e+002, 7.690211e+001
7.848433e+002, 7.784215e+001
7.853254e+002, 7.826839e+001
7.858075e+002, 7.826135e+001
7.862896e+002, 7.787430e+001
7.867717e+002, 7.709592e+001
7.872538e+002, 7.695061e+001
7.877360e+002, 7.794410e+001
7.882181e+002, 7.885307e+001
7.887002e+002, 7.840861e+001
7.891823e+002, 7.681899e+001
7.896644e+002, 7.587235e+001
7.901465e+002, 7.604454e+001
7.906286e+002, 7.613932e+001
7.911107e+002, 7.594016e+001
7.915928e+002, 7.575815e+001
7.920750e+002, 7.581050e+001
7.925571e+002, 7.603581e+001
7.930392e+002, 7.632669e+001
7.935213e+002, 7.667204e+001
7.940034e+002, 7.682744e+001
7.944855e+002, 7.642364e+001
7.949677e+002, 7.574736e+001
7.954498e+002, 7.527586e+001
7.959319e+002, 7.504392e+001
7.964140e+002, 7.517918e+001
7.968961e+002, 7.578031e+001
7.973782e+002, 7.626577e+001
7.978604e+002, 7.573933e+001
7.983425e+002, 7.413247e+001
7.988246e+002, 7.309578e+001
7.993067e+002, 7.274886e+001
7.997888e+002, 7.274860e+001
8.002709e+002, 7.351201e+001
8.007531e+002, 7.419920e+001
8.012352e+002, 7.404927e+001
8.017173e+002, 7.321391e+001
8.021994e+002, 7.250685e+001
8.026815e+002, 7.201854e+001
8.031636e+002, 7.187859e+001
8.036458e+002, 7.240029e+001
8.041279e+002, 7.315841e+001
8.046100e+002, 7.367499e+001
8.050921e+002, 7.393026e+001
8.055742e+002, 7.412047e+001
8.060563e+002, 7.435046e+001
8.065385e+002, 7.454459e+001
8.070206e+002, 7.458955e+001
8.075027e+002, 7.448832e+001
8.079848e+002, 7.419044e+001
8.084669e+002, 7.359938e+001
8.089490e+002, 7.336360e+001
8.094312e+002, 7.403576e+001
8.099133e+002, 7.484245e+001
8.103954e+002, 7.446889e+001
8.108775e+002, 7.260911e+001
8.113596e+002, 7.160909e+001
8.118417e+002, 7.205891e+001
8.123239e+002, 7.260473e+001
8.128060e+002, 7.295923e+001
8.132881e+002, 7.319031e+001
8.137702e+002, 7.354268e+001
8.142523e+002, 7.387798e+001
8.147344e+002, 7.351508e+001
8.152166e+002, 7.164857e+001
8.156987e+002, 6.995203e+001
8.161808e+002, 7.073064e+001
8.166629e+002, 7.286742e+001
8.171450e+002, 7.383688e+001
8.176271e+002, 7.341982e+001
8.181093e+002, 7.273920e+001
8.185914e+002, 7.242300e+001
8.190735e+002, 7.227934e+001
8.195556e+002, 7.189941e+001
8.200377e+002, 7.119843e+001
8.205198e+002, 7.081008e+001
8.210020e+002, 7.088589e+001
8.214841e+002, 7.098138e+001
8.219662e+002, 7.091154e+001
8.224483e+002, 7.079457e+001
8.229304e+002, 7.074103e+001
8.234125e+002, 7.075348e+001
8.238947e+002, 7.085134e+001
8.243768e+002, 7.104213e+001
8.248589e+002, 7.131529e+001
8.253410e+002, 7.215350e+001
8.258231e+002, 7.275676e+001
8.263052e+002, 7.177426e+001
8.267874e+002, 6.959746e+001
8.272695e+002, 6.809264e+001
8.277516e+002, 6.836958e+001
8.282337e+002, 6.943267e+001
8.287158e+002, 6.992665e+001
8.291979e+002, 6.999231e+001
8.296801e+002, 7.027711e+001
8.301622e+002, 7.083810e+001
8.306443e+002, 7.118312e+001
8.311264e+002, 7.101534e+001
8.316085e+002, 7.065667e+001
8.320906e+002, 7.066003e+001
8.325728e+002, 7.110339e+001
8.330549e+002, 7.133128e+001
8.335370e+002, 7.112981e+001
8.340191e+002, 7.101728e+001
8.345012e+002, 7.130479e+001
8.349833e+002, 7.156585e+001
8.354655e+002, 7.131198e+001
8.359476e+002, 7.067064e+001
8.364297e+002, 7.036688e+001
8.369118e+002, 7.107330e+001
8.373939e+002, 7.143613e+001
8.378760e+002, 7.029922e+001
8.383582e+002, 6.870081e+001
8.388403e+002, 6.765367e+001
8.393224e+002, 6.729625e+001
8.398045e+002, 6.771589e+001
8.402866e+002, 6.896036e+001
8.407687e+002, 7.026166e+001
8.412509e+002, 7.048022e+001
8.417330e+002, 6.979329e+001
8.422151e+002, 6.914417e+001
8.426972e+002, 6.854003e+001
8.431793e+002, 6.814265e+001
8.436614e+002, 6.800617e+001
8.441436e+002, 6.814072e+001
8.446257e+002, 6.866749e+001
8.451078e+002, 6.956626e+001
8.455899e+002, 6.990971e+001
8.460720e+002, 6.905650e+001
8.465541e+002, 6.858345e+001
8.470363e+002, 6.908066e+001
8.475184e+002, 6.955703e+001
8.480005e+002, 6.927794e+001
8.484826e+002, 6.851744e+001
8.489647e+002, 6.795033e+001
8.494468e+002, 6.776306e+001
8.499290e+002, 6.770658e+001
8.504111e+002, 6.760802e+001
8.508932e+002, 6.760550e+001
8.513753e+002, 6.796233e+001
8.518574e+002, 6.850954e+001
8.523395e+002, 6.881681e+001
8.528217e+002, 6.877216e+001
8.533038e+002, 6.867904e+001
8.537859e+002, 6.886156e+001
8.542680e+002, 6.919909e+001
8.547501e+002, 6.931776e+001
8.552322e+002, 6.921848e+001
8.557144e+002, 6.898505e+001
8.561965e+002, 6.860860e+001
8.566786e+002, 6.822443e+001
8.571607e+002, 6.797185e+001
8.576428e+002, 6.776131e+001
8.581249e+002, 6.727129e+001
8.586071e+002, 6.615193e+001
8.590892e+002, 6.552014e+001
8.595713e+002, 6.550423e+001
8.600534e+002, 6.580914e+001
8.605355e+002, 6.648300e+001
8.610176e+002, 6.733727e+001
8.614998e+002, 6.832719e+001
8.619819e+002, 6.939677e+001
8.624640e+002, 6.990368e+001
8.629461e+002, 6.910125e+001
8.634282e+002, 6.818385e+001
8.639103e+002, 6.787274e+001
8.643925e+002, 6.800584e+001
8.648746e+002, 6.857279e+001
8.653567e+002, 6.938609e+001
8.658388e+002, 6.985683e+001
8.663209e+002, 6.963387e+001
8.668030e+002, 6.899158e+001
8.672852e+002, 6.813063e+001
8.677673e+002, 6.718044e+001
8.682494e+002, 6.698461e+001
8.687315e+002, 6.761966e+001
8.692136e+002, 6.804309e+001
8.696957e+002, 6.779902e+001
8.701779e+002, 6.721547e+001
8.706600e+002, 6.660640e+001
8.711421e+002, 6.596166e+001
8.716242e+002, 6.635544e+001
8.721063e+002, 6.892992e+001
8.725884e+002, 7.053004e+001
8.730705e+002, 6.968199e+001
8.735526e+002, 6.859261e+001
8.740347e+002, 6.873967e+001
8.745168e+002, 6.963935e+001
8.749990e+002, 6.997993e+001
8.754811e+002, 6.929572e+001
8.759632e+002, 6.883653e+001
8.764453e+002, 6.960302e+001
8.769274e+002, 7.020696e+001
8.774095e+002, 6.896614e+001
8.778917e+002, 6.708368e+001
8.783738e+002, 6.697762e+001
8.788559e+002, 6.897099e+001
8.793380e+002, 7.079956e+001
8.798201e+002, 7.049516e+001
8.803022e+002, 6.925749e+001
8.807844e+002, 6.909196e+001
8.812665e+002, 6.970438e+001
8.817486e+002, 6.999546e+001
8.822307e+002, 6.980240e+001
8.827128e+002, 6.959945e+001
8.831949e+002, 6.970351e+001
8.836771e+002, 6.990086e+001
8.841592e+002, 6.964972e+001
8.846413e+002, 6.880828e+001
8.851234e+002, 6.865248e+001
8.856055e+002, 6.952870e+001
8.860876e+002, 7.023318e+001
8.865698e+002, 7.029726e+001
8.870519e+002, 7.006487e+001
8.875340e+002, 6.989955e+001
8.880161e+002, 6.979195e+001
8.884982e+002, 6.959147e+001
8.889803e+002, 6.891178e+001
8.894625e+002, 6.867842e+001
8.899446e+002, 6.906393e+001
8.904267e+002, 6.993086e+001
8.909088e+002, 7.164071e+001
8.913909e+002, 7.363166e+001
8.918730e+002, 7.486790e+001
8.923552e+002, 7.506398e+001
8.928373e+002, 7.479585e+001
8.933194e+002, 7.378761e+001
8.938015e+002, 7.303985e+001
8.942836e+002, 7.403541e+001
8.947657e+002, 7.601111e+001
8.952479e+002, 7.726888e+001
8.957300e+002, 7.752018e+001
8.962121e+002, 7.770171e+001
8.966942e+002, 7.852875e+001
8.971763e+002, 7.962521e+001
8.976584e+002, 8.004131e+001
8.981406e+002, 7.990504e+001
8.986227e+002, 8.074324e+001
8.991048e+002, 8.279832e+001
8.995869e+002, 8.442220e+001
9.000690e+002, 8.472733e+001
9.005511e+002, 8.454225e+001
9.010333e+002, 8.514417e+001
9.015154e+002, 8.658838e+001
9.019975e+002, 8.753740e+001
9.024796e+002, 8.758339e+001
9.029617e+002, 8.790864e+001
9.034438e+002, 8.930293e+001
9.039260e+002, 9.047807e+001
9.044081e+002, 9.033630e+001
9.048902e+002, 8.933360e+001
9.053723e+002, 8.862391e+001
9.058544e+002, 8.834969e+001
9.063365e+002, 8.831396e+001
9.068187e+002, 8.901977e+001
9.073008e+002, 8.936947e+001
9.077829e+002, 8.829305e+001
9.082650e+002, 8.666557e+001
9.087471e+002, 8.576653e+001
9.092292e+002, 8.572837e+001
9.097114e+002, 8.570490e+001
9.101935e+002, 8.535686e+001
9.106756e+002, 8.456585e+001
9.111577e+002, 8.285817e+001
9.116398e+002, 8.076145e+001
9.121219e+002, 7.926106e+001
9.126041e+002, 7.839367e+001
9.130862e+002, 7.773063e+001
9.135683e+002, 7.707107e+001
9.140504e+002, 7.640004e+001
9.145325e+002, 7.566978e+001
9.150146e+002, 7.490785e+001
9.154968e+002, 7.428126e+001
9.159789e+002, 7.379706e+001
9.164610e+002, 7.306306e+001
9.169431e+002, 7.178508e+001
9.174252e+002, 7.127013e+001
9.179073e+002, 7.304538e+001
9.183895e+002, 7.604803e+001
9.188716e+002, 7.617095e+001
9.193537e+002, 7.147256e+001
9.198358e+002, 6.889856e+001
9.203179e+002, 6.989577e+001
9.208000e+002, 7.096644e+001
9.212822e+002, 7.066334e+001
9.217643e+002, 6.979417e+001
9.222464e+002, 6.920833e+001
9.227285e+002, 6.890544e+001
9.232106e+002, 6.847391e+001
9.236927e+002, 6.755093e+001
9.241749e+002, 6.690678e+001
9.246570e+002, 6.714187e+001
9.251391e+002, 6.739440e+001
9.256212e+002, 6.668247e+001
9.261033e+002, 6.553186e+001
9.265854e+002, 6.518521e+001
9.270676e+002, 6.602373e+001
9.275497e+002, 6.700690e+001
9.280318e+002, 6.780656e+001
9.285139e+002, 6.810356e+001
9.289960e+002, 6.713603e+001
9.294781e+002, 6.557870e+001
9.299603e+002, 6.479686e+001
9.304424e+002, 6.490722e+001
9.309245e+002, 6.501186e+001
9.314066e+002, 6.451762e+001
9.318887e+002, 6.384960e+001
9.323708e+002, 6.374944e+001
9.328530e+002, 6.405952e+001
9.333351e+002, 6.408351e+001
9.338172e+002, 6.380481e+001
9.342993e+002, 6.367348e+001
9.347814e+002, 6.388137e+001
9.352635e+002, 6.398120e+001
9.357457e+002, 6.336245e+001
9.362278e+002, 6.228357e+001
9.367099e+002, 6.244070e+001
9.371920e+002, 6.426556e+001
9.376741e+002, 6.539601e+001
9.381563e+002, 6.531779e+001
9.386384e+002, 6.507785e+001
9.391205e+002, 6.525422e+001
9.396026e+002, 6.561636e+001
9.400847e+002, 6.572385e+001
9.405668e+002, 6.549590e+001
9.410490e+002, 6.549113e+001
9.415311e+002, 6.593147e+001
9.420132e+002, 6.628339e+001
9.424953e+002, 6.648370e+001
9.429774e+002, 6.653035e+001
9.434595e+002, 6.628174e+001
9.439417e+002, 6.589820e+001
9.444238e+002, 6.579294e+001
9.449059e+002, 6.611112e+001
9.453880e+002, 6.645665e+001
9.458701e+002, 6.659977e+001
9.463522e+002, 6.682106e+001
9.468344e+002, 6.731876e+001
9.473165e+002, 6.799963e+001
9.477986e+002, 6.897219e+001
9.482807e+002, 7.004628e+001
9.487628e+002, 7.040229e+001
9.492449e+002, 6.932610e+001
9.497271e+002, 6.809942e+001
9.502092e+002, 6.799660e+001
9.506913e+002, 6.850255e+001
9.511734e+002, 6.900054e+001
9.516555e+002, 6.935515e+001
9.521376e+002, 6.932699e+001
9.526198e+002, 6.886556e+001
9.531019e+002, 6.836073e+001
9.535840e+002, 6.825494e+001
9.540661e+002, 6.828145e+001
9.545482e+002, 6.750379e+001
9.550303e+002, 6.615382e+001
9.555124e+002, 6.600914e+001
9.559945e+002, 6.731346e+001
9.564766e+002, 6.836545e+001
9.569587e+002, 6.822656e+001
9.574409e+002, 6.749731e+001
9.579230e+002, 6.712831e+001
9.584051e+002, 6.710870e+001
9.588872e+002, 6.698668e+001
9.593693e+002, 6.678734e+001
9.598514e+002, 6.633414e+001
9.603336e+002, 6.545535e+001
9.608157e+002, 6.460983e+001
9.612978e+002, 6.407887e+001
9.617799e+002, 6.388572e+001
9.622620e+002, 6.418791e+001
9.627441e+002, 6.545351e+001
9.632263e+002, 6.575200e+001
9.637084e+002, 6.399534e+001
9.641905e+002, 6.274863e+001
9.646726e+002, 6.291626e+001
9.651547e+002, 6.367117e+001
9.656368e+002, 6.460464e+001
9.661190e+002, 6.555270e+001
9.666011e+002, 6.588053e+001
9.670832e+002, 6.526327e+001
9.675653e+002, 6.453217e+001
9.680474e+002, 6.376691e+001
9.685295e+002, 6.303712e+001
9.690117e+002, 6.219570e+001
9.694938e+002, 6.152212e+001
9.699759e+002, 6.149516e+001
9.704580e+002, 6.208199e+001
9.709401e+002, 6.262521e+001
9.714222e+002, 6.285015e+001
9.719044e+002, 6.293577e+001
9.723865e+002, 6.294801e+001
9.728686e+002, 6.291478e+001
9.733507e+002, 6.277397e+001
9.738328e+002, 6.263441e+001
9.743149e+002, 6.285969e+001
9.747971e+002, 6.349147e+001
9.752792e+002, 6.381314e+001
9.757613e+002, 6.294850e+001
9.762434e+002, 6.180545e+001
9.767255e+002, 6.160973e+001
9.772076e+002, 6.206063e+001
9.776898e+002, 6.270922e+001
9.781719e+002, 6.337334e+001
9.786540e+002, 6.356757e+001
9.791361e+002, 6.306514e+001
9.796182e+002, 6.237111e+001
9.801003e+002, 6.214770e+001
9.805825e+002, 6.222531e+001
9.810646e+002, 6.196389e+001
9.815467e+002, 6.143169e+001
9.820288e+002, 6.123347e+001
9.825109e+002, 6.148840e+001
9.829930e+002, 6.175225e+001
9.834752e+002, 6.172020e+001
9.839573e+002, 6.160599e+001
9.844394e+002, 6.195094e+001
9.849215e+002, 6.276386e+001
9.854036e+002, 6.253495e+001
9.858857e+002, 6.096656e+001
9.863679e+002, 6.024009e+001
9.868500e+002, 6.117702e+001
9.873321e+002, 6.225916e+001
9.878142e+002, 6.217821e+001
9.882963e+002, 6.137099e+001
9.887784e+002, 6.127269e+001
9.892606e+002, 6.224803e+001
9.897427e+002, 6.260448e+001
9.902248e+002, 6.196221e+001
9.907069e+002, 6.142973e+001
9.911890e+002, 6.135720e+001
9.916711e+002, 6.152535e+001
9.921533e+002, 6.179818e+001
9.926354e+002, 6.214390e+001
9.931175e+002, 6.238223e+001
9.935996e+002, 6.280709e+001
9.940817e+002, 6.259733e+001
9.945638e+002, 6.074605e+001
9.950460e+002, 5.944836e+001
9.955281e+002, 6.005315e+001
9.960102e+002, 6.128342e+001
9.964923e+002, 6.178965e+001
9.969744e+002, 6.158427e+001
9.974565e+002, 6.135902e+001
9.979387e+002, 6.127966e+001
9.984208e+002, 6.112703e+001
9.989029e+002, 6.067871e+001
9.993850e+002, 6.031673e+001
9.998671e+002, 6.035734e+001
1.000349e+003, 6.059893e+001
1.000831e+003, 6.072409e+001
1.001313e+003, 6.070758e+001
1.001796e+003, 6.077922e+001
1.002278e+003, 6.093077e+001
1.002760e+003, 6.134872e+001
1.003242e+003, 6.283826e+001
1.003724e+003, 6.402924e+001
1.004206e+003, 6.308854e+001
1.004688e+003, 6.102856e+001
1.005170e+003, 6.002811e+001
1.005653e+003, 6.055193e+001
1.006135e+003, 6.125137e+001
1.006617e+003, 6.144203e+001
1.007099e+003, 6.123270e+001
1.007581e+003, 6.019289e+001
1.008063e+003, 5.915057e+001
1.008545e+003, 5.962845e+001
1.009027e+003, 6.117204e+001
1.009509e+003, 6.209342e+001
1.009992e+003, 6.184008e+001
1.010474e+003, 6.146333e+001
1.010956e+003, 6.203722e+001
1.011438e+003, 6.285281e+001
1.011920e+003, 6.281821e+001
1.012402e+003, 6.219291e+001
1.012884e+003, 6.133219e+001
1.013366e+003, 6.045864e+001
1.013849e+003, 6.032966e+001
1.014331e+003, 6.125581e+001
1.014813e+003, 6.233793e+001
1.015295e+003, 6.248832e+001
1.015777e+003, 6.211115e+001
1.016259e+003, 6.224232e+001
1.016741e+003, 6.277327e+001
1.017223e+003, 6.321568e+001
1.017705e+003, 6.349354e+001
1.018188e+003, 6.367565e+001
1.018670e+003, 6.379382e+001
1.019152e+003, 6.388824e+001
1.019634e+003, 6.403069e+001
1.020116e+003, 6.419246e+001
1.020598e+003, 6.421294e+001
1.021080e+003, 6.409819e+001
1.021562e+003, 6.396743e+001
1.022044e+003, 6.382924e+001
1.022527e+003, 6.398651e+001
1.023009e+003, 6.468554e+001
1.023491e+003, 6.541471e+001
1.023973e+003, 6.526363e+001
1.024455e+003, 6.430745e+001
1.024937e+003, 6.381437e+001
1.025419e+003, 6.382071e+001
1.025901e+003, 6.406907e+001
1.026384e+003, 6.461290e+001
1.026866e+003, 6.487685e+001
1.027348e+003, 6.434343e+001
1.027830e+003, 6.366882e+001
1.028312e+003, 6.415127e+001
1.028794e+003, 6.585948e+001
1.029276e+003, 6.718822e+001
1.029758e+003, 6.829142e+001
1.030240e+003, 6.837679e+001
1.030723e+003, 6.686989e+001
1.031205e+003, 6.530476e+001
1.031687e+003, 6.460202e+001
1.032169e+003, 6.458155e+001
1.032651e+003, 6.489907e+001
1.033133e+003, 6.556675e+001
1.033615e+003, 6.651479e+001
1.034097e+003, 6.816463e+001
1.034579e+003, 6.914296e+001
1.035062e+003, 6.886215e+001
1.035544e+003, 6.833866e+001
1.036026e+003, 6.809172e+001
1.036508e+003, 6.814743e+001
1.036990e+003, 6.865166e+001
1.037472e+003, 6.976711e+001
1.037954e+003, 7.040416e+001
1.038436e+003, 7.019399e+001
1.038919e+003, 7.009212e+001
1.039401e+003, 7.039844e+001
1.039883e+003, 7.070799e+001
1.040365e+003, 7.061794e+001
1.040847e+003, 7.039416e+001
1.041329e+003, 7.064268e+001
1.041811e+003, 7.148431e+001
1.042293e+003, 7.216122e+001
1.042776e+003, 7.256579e+001
1.043258e+003, 7.294128e+001
1.043740e+003, 7.363873e+001
1.044222e+003, 7.401718e+001
1.044704e+003, 7.330745e+001
1.045186e+003, 7.210224e+001
1.045668e+003, 7.159943e+001
1.046150e+003, 7.197967e+001
1.046632e+003, 7.231174e+001
1.047115e+003, 7.269926e+001
1.047597e+003, 7.274825e+001
1.048079e+003, 7.195485e+001
1.048561e+003, 7.118865e+001
1.049043e+003, 7.123627e+001
1.049525e+003, 7.166770e+001
1.050007e+003, 7.157006e+001
1.050489e+003, 7.078175e+001
1.050971e+003, 7.022562e+001
1.051454e+003, 7.028481e+001
1.051936e+003, 7.032018e+001
1.052418e+003, 7.026527e+001
1.052900e+003, 7.000188e+001
1.053382e+003, 6.890735e+001
1.053864e+003, 6.775642e+001
1.054346e+003, 6.822879e+001
1.054828e+003, 7.061201e+001
1.055311e+003, 7.224518e+001
1.055793e+003, 7.222640e+001
1.056275e+003, 7.162191e+001
1.056757e+003, 7.023293e+001
1.057239e+003, 6.893599e+001
1.057721e+003, 6.836639e+001
1.058203e+003, 6.836397e+001
1.058685e+003, 6.880000e+001
1.059167e+003, 6.961613e+001
1.059650e+003, 6.976826e+001
1.060132e+003, 6.809192e+001
1.060614e+003, 6.680680e+001
1.061096e+003, 6.712978e+001
1.061578e+003, 6.778851e+001
1.062060e+003, 6.788114e+001
1.062542e+003, 6.759219e+001
1.063024e+003, 6.733992e+001
1.063506e+003, 6.718755e+001
1.063989e+003, 6.695354e+001
1.064471e+003, 6.640754e+001
1.064953e+003, 6.599913e+001
1.065435e+003, 6.596477e+001
1.065917e+003, 6.608595e+001
1.066399e+003, 6.638544e+001
1.066881e+003, 6.663131e+001
1.067363e+003, 6.632489e+001
1.067846e+003, 6.551192e+001
1.068328e+003, 6.513068e+001
1.068810e+003, 6.588667e+001
1.069292e+003, 6.651152e+001
1.069774e+003, 6.630276e+001
1.070256e+003, 6.588893e+001
1.070738e+003, 6.573949e+001
1.071220e+003, 6.569182e+001
1.071703e+003, 6.549760e+001
1.072185e+003, 6.511597e+001
1.072667e+003, 6.453265e+001
1.073149e+003, 6.341601e+001
1.073631e+003, 6.285106e+001
1.074113e+003, 6.375780e+001
1.074595e+003, 6.496581e+001
1.075077e+003, 6.586758e+001
1.075559e+003, 6.640049e+001
1.076042e+003, 6.652569e+001
1.076524e+003, 6.627504e+001
1.077006e+003, 6.573866e+001
1.077488e+003, 6.480741e+001
1.077970e+003, 6.404578e+001
1.078452e+003, 6.358790e+001
1.078934e+003, 6.352625e+001
1.079416e+003, 6.424744e+001
1.079898e+003, 6.517094e+001
1.080380e+003, 6.568899e+001
1.080863e+003, 6.575734e+001
1.081345e+003, 6.546870e+001
1.081827e+003, 6.472956e+001
1.082309e+003, 6.425675e+001
1.082791e+003, 6.462504e+001
1.083273e+003, 6.506059e+001
1.083755e+003, 6.510255e+001
1.084237e+003, 6.495556e+001
1.084720e+003, 6.484045e+001
1.085202e+003, 6.475056e+001
1.085684e+003, 6.446691e+001
1.086166e+003, 6.385528e+001
1.086648e+003, 6.385477e+001
1.087130e+003, 6.583345e+001
1.087612e+003, 6.731454e+001
1.088094e+003, 6.643141e+001
1.088577e+003, 6.497192e+001
1.089059e+003, 6.452882e+001
1.089541e+003, 6.489706e+001
1.090023e+003, 6.539417e+001
1.090505e+003, 6.588159e+001
1.090987e+003, 6.625755e+001
1.091469e+003, 6.658630e+001
1.091951e+003, 6.666505e+001
1.092433e+003, 6.627592e+001
1.092916e+003, 6.573273e+001
1.093398e+003, 6.510108e+001
1.093880e+003, 6.457780e+001
1.094362e+003, 6.453127e+001
1.094844e+003, 6.497044e+001
1.095326e+003, 6.530589e+001
1.095808e+003, 6.536451e+001
1.096290e+003, 6.527399e+001
1.096772e+003, 6.495414e+001
1.097255e+003, 6.462920e+001
1.097737e+003, 6.448148e+001
1.098219e+003, 6.438868e+001
1.098701e+003, 6.395512e+001
1.099183e+003, 6.331988e+001
1.099665e+003, 6.355516e+001
1.100147e+003, 6.566599e+001
1.100629e+003, 6.706659e+001
1.101112e+003, 6.662831e+001
1.101594e+003, 6.587341e+001
1.102076e+003, 6.539120e+001
1.102558e+003, 6.509028e+001
1.103040e+003, 6.475505e+001
1.103522e+003, 6.447723e+001
1.104004e+003, 6.472082e+001
1.104486e+003, 6.592186e+001
1.104969e+003, 6.645854e+001
1.105451e+003, 6.562115e+001
1.105933e+003, 6.462489e+001
1.106415e+003, 6.353320e+001
1.106897e+003, 6.277311e+001
1.107379e+003, 6.288263e+001
1.107861e+003, 6.353389e+001
1.108343e+003, 6.386213e+001
1.108825e+003, 6.368046e+001
1.109307e+003, 6.389796e+001
1.109790e+003, 6.535085e+001
1.110272e+003, 6.612939e+001
1.110754e+003, 6.515151e+001
1.111236e+003, 6.413310e+001
1.111718e+003, 6.438884e+001
1.112200e+003, 6.513144e+001
1.112682e+003, 6.493367e+001
1.113164e+003, 6.371455e+001
1.113647e+003, 6.299961e+001
1.114129e+003, 6.294080e+001
1.114611e+003, 6.315529e+001
1.115093e+003, 6.418266e+001
1.115575e+003, 6.468931e+001
1.116057e+003, 6.352815e+001
1.116539e+003, 6.211431e+001
1.117021e+003, 6.232007e+001
1.117504e+003, 6.383196e+001
1.117986e+003, 6.428371e+001
1.118468e+003, 6.307313e+001
1.118950e+003, 6.219613e+001
1.119432e+003, 6.147265e+001
1.119914e+003, 6.155640e+001
1.120396e+003, 6.318356e+001
1.120878e+003, 6.480237e+001
1.121360e+003, 6.496971e+001
1.121843e+003, 6.419814e+001
1.122325e+003, 6.402574e+001
1.122807e+003, 6.460396e+001
1.123289e+003, 6.483498e+001
1.123771e+003, 6.459434e+001
1.124253e+003, 6.443304e+001
1.124735e+003, 6.447356e+001
1.125217e+003, 6.465908e+001
1.125699e+003, 6.511271e+001
1.126182e+003, 6.531102e+001
1.126664e+003, 6.412308e+001
1.127146e+003, 6.170097e+001
1.127628e+003, 6.104590e+001
1.128110e+003, 6.240457e+001
1.128592e+003, 6.335519e+001
1.129074e+003, 6.357922e+001
1.129556e+003, 6.327699e+001
1.130039e+003, 6.240739e+001
1.130521e+003, 6.185043e+001
1.131003e+003, 6.273132e+001
1.131485e+003, 6.455174e+001
1.131967e+003, 6.553937e+001
1.132449e+003, 6.573753e+001
1.132931e+003, 6.591682e+001
1.133413e+003, 6.612178e+001
1.133896e+003, 6.625841e+001
1.134378e+003, 6.629727e+001
1.134860e+003, 6.584068e+001
1.135342e+003, 6.448792e+001
1.135824e+003, 6.294098e+001
1.136306e+003, 6.247888e+001
1.136788e+003, 6.291185e+001
1.137270e+003, 6.378073e+001
1.137752e+003, 6.489116e+001
1.138234e+003, 6.526505e+001
1.138717e+003, 6.482682e+001
1.139199e+003, 6.438847e+001
1.139681e+003, 6.436429e+001
1.140163e+003, 6.466389e+001
1.140645e+003, 6.546385e+001
1.141127e+003, 6.625941e+001
1.141609e+003, 6.579404e+001
1.142091e+003, 6.474142e+001
1.142574e+003, 6.467809e+001
1.143056e+003, 6.548218e+001
1.143538e+003, 6.618419e+001
1.144020e+003, 6.646395e+001
1.144502e+003, 6.651900e+001
1.144984e+003, 6.640725e+001
1.145466e+003, 6.632832e+001
1.145948e+003, 6.667256e+001
1.146431e+003, 6.702355e+001
1.146913e+003, 6.686953e+001
1.147395e+003, 6.631179e+001
1.147877e+003, 6.535521e+001
1.148359e+003, 6.422363e+001
1.148841e+003, 6.372625e+001
1.149323e+003, 6.431187e+001
1.149805e+003, 6.487209e+001
1.150287e+003, 6.456577e+001
1.150770e+003, 6.414624e+001
1.151252e+003, 6.424010e+001
1.151734e+003, 6.444291e+001
1.152216e+003, 6.409840e+001
1.152698e+003, 6.354052e+001
1.153180e+003, 6.379810e+001
1.153662e+003, 6.507745e+001
1.154144e+003, 6.575703e+001
1.154626e+003, 6.500877e+001
1.155109e+003, 6.398420e+001
1.155591e+003, 6.228886e+001
1.156073e+003, 6.128268e+001
1.156555e+003, 6.244503e+001
1.157037e+003, 6.437666e+001
1.157519e+003, 6.527080e+001
1.158001e+003, 6.514712e+001
1.158483e+003, 6.501654e+001
1.158966e+003, 6.499435e+001
1.159448e+003, 6.492527e+001
1.159930e+003, 6.474870e+001
1.160412e+003, 6.459296e+001
1.160894e+003, 6.447594e+001
1.161376e+003, 6.440195e+001
1.161858e+003, 6.428203e+001
1.162340e+003, 6.426885e+001
1.162822e+003, 6.483259e+001
1.163305e+003, 6.612100e+001
1.163787e+003, 6.629376e+001
1.164269e+003, 6.470325e+001
1.164751e+003, 6.397009e+001
1.165233e+003, 6.475848e+001
1.165715e+003, 6.547926e+001
1.166197e+003, 6.536272e+001
1.166679e+003, 6.489326e+001
1.167161e+003, 6.459998e+001
1.167644e+003, 6.447844e+001
1.168126e+003, 6.455909e+001
1.168608e+003, 6.485419e+001
1.169090e+003, 6.490791e+001
1.169572e+003, 6.468925e+001
1.170054e+003, 6.476665e+001
1.170536e+003, 6.530714e+001
1.171018e+003, 6.549742e+001
1.171500e+003, 6.470007e+001
1.171983e+003, 6.380093e+001
1.172465e+003, 6.443404e+001
1.172947e+003, 6.604562e+001
1.173429e+003, 6.702345e+001
1.173911e+003, 6.731837e+001
1.174393e+003, 6.627612e+001
1.174875e+003, 6.424482e+001
1.175357e+003, 6.334972e+001
1.175840e+003, 6.429866e+001
1.176322e+003, 6.532945e+001
1.176804e+003, 6.487259e+001
1.177286e+003, 6.404347e+001
1.177768e+003, 6.450540e+001
1.178250e+003, 6.527502e+001
1.178732e+003, 6.455266e+001
1.179214e+003, 6.315727e+001
1.179697e+003, 6.295524e+001
1.180179e+003, 6.399582e+001
1.180661e+003, 6.506403e+001
1.181143e+003, 6.571324e+001
1.181625e+003, 6.588866e+001
1.182107e+003, 6.491187e+001
1.182589e+003, 6.422392e+001
1.183071e+003, 6.541534e+001
1.183553e+003, 6.676632e+001
1.184036e+003, 6.630287e+001
1.184518e+003, 6.487707e+001
1.185000e+003, 6.435340e+001
1.185482e+003, 6.494940e+001
1.185964e+003, 6.532449e+001
1.186446e+003, 6.507679e+001
1.186928e+003, 6.474963e+001
1.187410e+003, 6.435571e+001
1.187892e+003, 6.399630e+001
1.188375e+003, 6.363997e+001
1.188857e+003, 6.340870e+001
1.189339e+003, 6.353764e+001
1.189821e+003, 6.384285e+001
1.190303e+003, 6.373391e+001
1.190785e+003, 6.306141e+001
1.191267e+003, 6.292282e+001
1.191749e+003, 6.370261e+001
1.192232e+003, 6.384034e+001
1.192714e+003, 6.275263e+001
1.193196e+003, 6.204809e+001
1.193678e+003, 6.265978e+001
1.194160e+003, 6.366512e+001
1.194642e+003, 6.396175e+001
1.195124e+003, 6.367860e+001
1.195606e+003, 6.325732e+001
1.196089e+003, 6.270703e+001
1.196571e+003, 6.219994e+001
1.197053e+003, 6.176781e+001
1.197535e+003, 6.195219e+001
1.198017e+003, 6.284541e+001
1.198499e+003, 6.356142e+001
1.198981e+003, 6.353868e+001
1.199463e+003, 6.324958e+001
1.199945e+003, 6.329729e+001
1.200427e+003, 6.353655e+001
1.200910e+003, 6.378131e+001
1.201392e+003, 6.394581e+001
1.201874e+003, 6.379188e+001
1.202356e+003, 6.338622e+001
1.202838e+003, 6.291331e+001
1.203320e+003, 6.246774e+001
1.203802e+003, 6.229998e+001
1.204284e+003, 6.272574e+001
1.204767e+003, 6.294929e+001
1.205249e+003, 6.200039e+001
1.205731e+003, 6.099479e+001
1.206213e+003, 6.102319e+001
1.206695e+003, 6.141956e+001
1.207177e+003, 6.128250e+001
1.207659e+003, 6.077983e+001
1.208141e+003, 6.062685e+001
1.208624e+003, 6.098983e+001
1.209106e+003, 6.122200e+001
1.209588e+003, 6.110566e+001
1.210070e+003, 6.093875e+001
1.210552e+003, 6.079371e+001
1.211034e+003, 6.059777e+001
1.211516e+003, 6.005352e+001
1.211998e+003, 5.968011e+001
1.212480e+003, 6.029415e+001
1.212963e+003, 6.145639e+001
1.213445e+003, 6.138736e+001
1.213927e+003, 5.968915e+001
1.214409e+003, 5.883780e+001
1.214891e+003, 5.912733e+001
1.215373e+003, 5.901587e+001
1.215855e+003, 5.808005e+001
1.216337e+003, 5.740746e+001
1.216819e+003, 5.760777e+001
1.217302e+003, 5.817189e+001
1.217784e+003, 5.851061e+001
1.218266e+003, 5.866663e+001
1.218748e+003, 5.867711e+001
1.219230e+003, 5.861689e+001
1.219712e+003, 5.909118e+001
1.220194e+003, 5.991112e+001
1.220676e+003, 5.983772e+001
1.221159e+003, 5.872948e+001
1.221641e+003, 5.756312e+001
1.222123e+003, 5.684349e+001
1.222605e+003, 5.670643e+001
1.223087e+003, 5.768522e+001
1.223569e+003, 5.891481e+001
1.224051e+003, 5.965151e+001
1.224533e+003, 5.984499e+001
1.225016e+003, 5.881065e+001
1.225498e+003, 5.744202e+001
1.225980e+003, 5.779844e+001
1.226462e+003, 5.981628e+001
1.226944e+003, 6.090087e+001
1.227426e+003, 5.982912e+001
1.227908e+003, 5.871226e+001
1.228390e+003, 5.825569e+001
1.228872e+003, 5.792150e+001
1.229354e+003, 5.729679e+001
1.229837e+003, 5.689256e+001
1.230319e+003, 5.724143e+001
1.230801e+003, 5.803039e+001
1.231283e+003, 5.880486e+001
1.231765e+003, 5.955122e+001
1.232247e+003, 5.964542e+001
1.232729e+003, 5.869345e+001
1.233211e+003, 5.838718e+001
1.233694e+003, 5.909653e+001
1.234176e+003, 5.926722e+001
1.234658e+003, 5.823303e+001
1.235140e+003, 5.754490e+001
1.235622e+003, 5.845046e+001
1.236104e+003, 5.982121e+001
1.236586e+003, 5.956133e+001
1.237068e+003, 5.819254e+001
1.237551e+003, 5.807897e+001
1.238033e+003, 5.886050e+001
1.238515e+003, 5.884180e+001
1.238997e+003, 5.803823e+001
1.239479e+003, 5.740174e+001
1.239961e+003, 5.722060e+001
1.240443e+003, 5.728252e+001
1.240925e+003, 5.747972e+001
1.241407e+003, 5.773983e+001
1.241890e+003, 5.831971e+001
1.242372e+003, 5.858862e+001
1.242854e+003, 5.726829e+001
1.243336e+003, 5.579084e+001
1.243818e+003, 5.626043e+001
1.244300e+003, 5.788970e+001
1.244782e+003, 5.869686e+001
1.245264e+003, 5.839249e+001
1.245746e+003, 5.800092e+001
1.246229e+003, 5.748871e+001
1.246711e+003, 5.745891e+001
1.247193e+003, 5.858909e+001
1.247675e+003, 5.943592e+001
1.248157e+003, 5.948664e+001
1.248639e+003, 5.911769e+001
1.249121e+003, 5.843896e+001
1.249603e+003, 5.764740e+001
1.250085e+003, 5.704196e+001
1.250568e+003, 5.664238e+001
1.251050e+003, 5.688963e+001
1.251532e+003, 5.788564e+001
1.252014e+003, 5.841673e+001
1.252496e+003, 5.838712e+001
1.252978e+003, 5.793252e+001
1.253460e+003, 5.709731e+001
1.253942e+003, 5.645580e+001
1.254425e+003, 5.642225e+001
1.254907e+003, 5.660130e+001
1.255389e+003, 5.650547e+001
1.255871e+003, 5.620185e+001
1.256353e+003, 5.555162e+001
1.256835e+003, 5.493608e+001
1.257317e+003, 5.526412e+001
1.257799e+003, 5.621381e+001
1.258281e+003, 5.695159e+001
1.258764e+003, 5.725568e+001
1.259246e+003, 5.715636e+001
1.259728e+003, 5.653353e+001
1.260210e+003, 5.601815e+001
1.260692e+003, 5.607917e+001
1.261174e+003, 5.608583e+001
1.261656e+003, 5.541349e+001
1.262138e+003, 5.490234e+001
1.262620e+003, 5.539347e+001
1.263103e+003, 5.636434e+001
1.263585e+003, 5.711321e+001
1.264067e+003, 5.758391e+001
1.264549e+003, 5.723603e+001
1.265031e+003, 5.559509e+001
1.265513e+003, 5.478962e+001
1.265995e+003, 5.500305e+001
1.266477e+003, 5.532401e+001
1.266960e+003, 5.558070e+001
1.267442e+003, 5.568134e+001
1.267924e+003, 5.555422e+001
1.268406e+003, 5.545497e+001
1.268888e+003, 5.576083e+001
1.269370e+003, 5.617646e+001
1.269852e+003, 5.588257e+001
1.270334e+003, 5.521320e+001
1.270817e+003, 5.515730e+001
1.271299e+003, 5.543314e+001
1.271781e+003, 5.486907e+001
1.272263e+003, 5.366335e+001
1.272745e+003, 5.352595e+001
1.273227e+003, 5.511383e+001
1.273709e+003, 5.629844e+001
1.274191e+003, 5.519326e+001
1.274673e+003, 5.423115e+001
1.275156e+003, 5.502175e+001
1.275638e+003, 5.591575e+001
1.276120e+003, 5.559533e+001
1.276602e+003, 5.495195e+001
1.277084e+003, 5.510434e+001
1.277566e+003, 5.583193e+001
1.278048e+003, 5.625141e+001
1.278530e+003, 5.631335e+001
1.279012e+003, 5.654435e+001
1.279495e+003, 5.709544e+001
1.279977e+003, 5.722990e+001
1.280459e+003, 5.681718e+001
1.280941e+003, 5.626524e+001
1.281423e+003, 5.570814e+001
1.281905e+003, 5.512664e+001
1.282387e+003, 5.447243e+001
1.282869e+003, 5.394343e+001
1.283352e+003, 5.395336e+001
1.283834e+003, 5.429276e+001
1.284316e+003, 5.450999e+001
1.284798e+003, 5.460780e+001
##END=



