##NAMES=Kryzhanovskite
##RRUFFID=R130050
##IDEAL CHEMISTRY=(Fe^3+^,Mn^2+^)_3_(PO_4_)_2_(OH,H_2_O)_3_
##LOCALITY=Bull Moose mine, Custer County, South Dakota, USA
##OWNER=RRUFF
##SOURCE=Don Doell
##DESCRIPTION=Light brown massive
##STATUS=The identification of this mineral has been confirmed only by single crystal X-ray diffraction.
##URL=rruff.info/R130050
114.6531, 0.0000000E+00
115.1353, 4.698212
115.6174, 6.357452
116.0995, 4.645630
116.5816, 3.501160
117.0637, 5.180206
117.5458, 7.852661
118.0280, 9.500580
118.5101, 7.374115
118.9922, 4.533386
119.4743, 2.254456
119.9564, 0.5773320
120.4385, 0.2772220
120.9207, 0.7271120
121.4028, 0.2304690
121.8849, 2.151794
122.3670, 10.35065
122.8491, 19.15646
123.3312, 22.53876
123.8134, 18.95312
124.2955, 13.26392
124.7776, 9.263000
125.2597, 6.767548
125.7418, 5.135864
126.2239, 3.844788
126.7061, 3.188904
127.1882, 3.901062
127.6703, 6.444916
128.1524, 9.726715
128.6345, 12.18423
129.1166, 13.88464
129.5988, 15.57962
130.0809, 18.37775
130.5630, 21.80499
131.0451, 23.77399
131.5272, 23.42896
132.0093, 21.67505
132.4915, 20.48462
132.9736, 19.87753
133.4557, 19.64740
133.9378, 19.57986
134.4199, 19.67471
134.9020, 20.18503
135.3842, 21.25165
135.8663, 22.77106
136.3484, 24.18866
136.8305, 25.30542
137.3126, 26.87296
137.7947, 30.26364
138.2769, 36.13098
138.7590, 40.48529
139.2411, 42.00818
139.7232, 40.65808
140.2053, 38.82858
140.6874, 36.42618
141.1696, 33.62003
141.6517, 30.54144
142.1338, 26.82864
142.6159, 23.65326
143.0980, 21.36694
143.5801, 20.10306
144.0623, 19.23163
144.5444, 18.77048
145.0265, 18.71445
145.5086, 19.14407
145.9907, 20.80771
146.4728, 21.98669
146.9550, 22.05304
147.4371, 20.41663
147.9192, 19.03015
148.4013, 18.01099
148.8834, 17.23053
149.3655, 16.38745
149.8477, 15.08859
150.3298, 14.06808
150.8119, 13.62976
151.2940, 14.40921
151.7761, 14.82523
152.2583, 14.28903
152.7404, 13.27954
153.2225, 13.16272
153.7046, 15.47192
154.1867, 17.67761
154.6688, 18.60855
155.1510, 17.24600
155.6331, 15.71481
156.1152, 14.13690
156.5973, 12.58429
157.0794, 11.37601
157.5615, 10.95215
158.0437, 10.65955
158.5258, 10.09158
159.0079, 8.813019
159.4900, 7.613861
159.9721, 6.579407
160.4542, 5.749451
160.9364, 5.354309
161.4185, 5.853699
161.9006, 6.641205
162.3827, 7.270142
162.8648, 7.870483
163.3469, 8.090210
163.8291, 7.503113
164.3112, 5.940552
164.7933, 4.627228
165.2754, 4.029999
165.7575, 3.610168
166.2396, 3.135590
166.7218, 2.570007
167.2039, 2.140167
167.6860, 1.918884
168.1681, 1.916016
168.6502, 2.293732
169.1323, 3.530884
169.6145, 5.133575
170.0966, 6.420074
170.5787, 7.061523
171.0608, 7.306396
171.5429, 7.322296
172.0250, 7.109894
172.5072, 6.713531
172.9893, 6.084137
173.4714, 5.371735
173.9535, 4.856720
174.4356, 4.773071
174.9177, 4.903809
175.3999, 5.033234
175.8820, 5.160431
176.3641, 5.204132
176.8462, 4.966125
177.3283, 4.565948
177.8104, 4.315186
178.2926, 4.572418
178.7747, 5.053558
179.2568, 5.261780
179.7389, 5.087219
180.2210, 4.888672
180.7031, 5.186890
181.1853, 5.843689
181.6674, 6.372375
182.1495, 6.448700
182.6316, 6.228668
183.1137, 6.031708
183.5958, 5.865692
184.0780, 5.863647
184.5601, 6.216339
185.0422, 6.859619
185.5243, 7.554413
186.0064, 8.404114
186.4885, 9.307800
186.9707, 9.674927
187.4528, 9.398102
187.9349, 8.809753
188.4170, 8.324799
188.8991, 7.945740
189.3812, 7.717499
189.8634, 7.683228
190.3455, 7.826691
190.8276, 8.056091
191.3097, 8.371460
191.7918, 8.753448
192.2739, 9.157990
192.7561, 9.585632
193.2382, 10.08746
193.7203, 10.80072
194.2024, 11.68811
194.6845, 12.23322
195.1666, 12.27307
195.6488, 12.14920
196.1309, 12.65585
196.6130, 13.89297
197.0951, 15.00735
197.5772, 15.49438
198.0593, 15.34918
198.5415, 15.08908
199.0236, 14.70645
199.5057, 14.28116
199.9878, 14.04037
200.4699, 14.02994
200.9520, 13.97638
201.4342, 13.75656
201.9163, 13.37482
202.3984, 12.76703
202.8805, 11.90958
203.3626, 10.84036
203.8447, 9.592804
204.3269, 8.097687
204.8090, 6.664886
205.2911, 5.507507
205.7732, 4.658081
206.2553, 3.798798
206.7374, 2.846100
207.2196, 1.914856
207.7017, 1.375824
208.1838, 1.354431
208.6659, 1.381378
209.1480, 1.169678
209.6301, 0.6441960
210.1123, 0.2347720
210.5944, 1.4618000E-02
211.0765, 0.1014100
211.5586, 0.4226380
212.0407, 1.117371
212.5228, 1.636414
213.0050, 1.525787
213.4871, 0.4617000
213.9692, 4.3152001E-02
214.4513, 0.6535640
214.9334, 1.856812
215.4155, 2.343964
215.8977, 1.939575
216.3798, 1.169556
216.8619, 0.2034300
217.3440, 1.179016
217.8261, 1.985809
218.3082, 1.856659
218.7904, 1.207672
219.2725, 1.409546
219.7546, 2.926941
220.2367, 4.458313
220.7188, 5.260254
221.2009, 4.967529
221.6831, 4.963287
222.1652, 5.365112
222.6473, 6.066772
223.1294, 6.696838
223.6115, 7.059662
224.0936, 7.697906
224.5758, 8.968109
225.0579, 11.26160
225.5400, 13.22217
226.0221, 14.81625
226.5042, 16.07385
226.9863, 17.04889
227.4685, 17.85721
227.9506, 18.21921
228.4327, 17.98322
228.9148, 16.97604
229.3969, 15.73123
229.8790, 14.13232
230.3612, 12.32794
230.8433, 10.69202
231.3254, 9.196747
231.8075, 7.876007
232.2896, 6.781036
232.7717, 6.085144
233.2539, 5.166382
233.7360, 3.917572
234.2181, 2.494873
234.7002, 1.250305
235.1823, 0.2563780
235.6644, 0.6632080
236.1466, 1.619110
236.6287, 2.768463
237.1108, 3.522858
237.5929, 3.776886
238.0750, 3.670837
238.5571, 3.465851
239.0393, 3.091827
239.5214, 2.723114
240.0035, 2.396149
240.4856, 2.045990
240.9677, 1.949463
241.4498, 2.364563
241.9320, 2.890930
242.4141, 2.783264
242.8962, 1.697693
243.3783, 0.5230410
243.8604, 0.4692990
244.3425, 1.265381
244.8247, 1.939575
245.3068, 2.436584
245.7889, 2.848816
246.2710, 3.382050
246.7531, 4.322327
247.2352, 4.876221
247.7174, 4.625763
248.1995, 3.271484
248.6816, 2.649109
249.1637, 3.051758
249.6458, 3.960449
250.1279, 4.663300
250.6101, 5.147064
251.0922, 5.447845
251.5743, 5.499969
252.0564, 5.239197
252.5385, 5.234100
253.0206, 5.592224
253.5028, 6.110046
253.9849, 6.550110
254.4670, 6.948273
254.9491, 7.204865
255.4312, 7.244751
255.9133, 7.049408
256.3955, 6.994995
256.8776, 7.104553
257.3597, 7.330170
257.8418, 7.615387
258.3239, 7.940216
258.8061, 8.377502
259.2882, 8.978760
259.7703, 9.742462
260.2524, 10.43509
260.7345, 11.07065
261.2166, 11.62463
261.6988, 12.06152
262.1809, 12.31387
262.6630, 12.63138
263.1451, 13.09198
263.6272, 13.67279
264.1093, 14.10049
264.5915, 14.31351
265.0736, 14.49478
265.5557, 14.79315
266.0378, 15.22565
266.5199, 15.69138
267.0020, 16.11777
267.4842, 16.55728
267.9663, 17.38327
268.4484, 18.79211
268.9305, 20.14813
269.4126, 20.86725
269.8947, 20.70306
270.3769, 20.93970
270.8590, 21.83243
271.3411, 23.24628
271.8232, 24.52151
272.3053, 25.56277
272.7874, 26.50421
273.2696, 27.53650
273.7517, 28.75317
274.2338, 29.77029
274.7159, 30.46838
275.1980, 31.06583
275.6801, 32.09854
276.1623, 33.66888
276.6444, 35.22708
277.1265, 36.49768
277.6086, 37.48425
278.0907, 38.35150
278.5728, 39.09476
279.0550, 39.75214
279.5371, 40.31995
280.0192, 40.76480
280.5013, 41.39163
280.9834, 42.36880
281.4655, 43.68829
281.9477, 45.10162
282.4298, 46.62393
282.9119, 48.15317
283.3940, 49.55457
283.8761, 50.82391
284.3582, 51.97174
284.8404, 52.95554
285.3225, 53.80154
285.8046, 54.70212
286.2867, 55.65839
286.7688, 56.61328
287.2509, 57.60675
287.7331, 58.61429
288.2152, 59.25275
288.6973, 59.20389
289.1794, 58.75647
289.6615, 58.98856
290.1436, 59.96619
290.6258, 60.89597
291.1079, 60.85968
291.5900, 60.05722
292.0721, 59.56342
292.5542, 59.72766
293.0363, 60.29727
293.5185, 60.86078
294.0006, 61.40619
294.4827, 61.62280
294.9648, 61.01807
295.4469, 59.91541
295.9290, 59.34738
296.4112, 59.70251
296.8933, 60.32855
297.3754, 60.17416
297.8575, 59.32642
298.3396, 58.33594
298.8217, 57.51996
299.3039, 56.77771
299.7860, 55.99945
300.2681, 55.22287
300.7502, 54.40985
301.2323, 53.40738
301.7144, 52.22046
302.1966, 51.05865
302.6787, 49.98471
303.1608, 49.00702
303.6429, 48.18726
304.1250, 47.57538
304.6071, 46.85126
305.0893, 45.72012
305.5714, 44.26007
306.0535, 42.68582
306.5356, 40.84265
307.0177, 39.05646
307.4998, 37.76520
307.9820, 36.96899
308.4641, 36.18909
308.9462, 34.98483
309.4283, 33.60849
309.9104, 32.41843
310.3925, 31.72147
310.8747, 31.13654
311.3568, 30.37213
311.8389, 29.46750
312.3210, 28.70605
312.8031, 28.39212
313.2852, 28.22177
313.7674, 27.89548
314.2495, 27.26099
314.7316, 26.55679
315.2137, 25.88086
315.6958, 25.22830
316.1779, 24.58591
316.6601, 23.80835
317.1422, 23.12173
317.6243, 22.68555
318.1064, 22.57864
318.5885, 22.61899
319.0706, 22.90948
319.5528, 23.29346
320.0349, 23.46912
320.5170, 23.13721
320.9991, 22.75253
321.4812, 22.47931
321.9633, 22.31445
322.4455, 22.33487
322.9276, 22.73657
323.4097, 23.27344
323.8918, 23.64365
324.3739, 23.85678
324.8560, 23.84933
325.3382, 23.41339
325.8203, 22.44791
326.3024, 22.04059
326.7845, 22.97083
327.2666, 24.10611
327.7487, 24.54501
328.2309, 23.66122
328.7130, 22.79840
329.1951, 21.89841
329.6772, 21.02002
330.1593, 20.78897
330.6414, 21.78140
331.1236, 22.87378
331.6057, 23.44345
332.0878, 23.11240
332.5699, 22.92493
333.0520, 22.95425
333.5341, 23.13611
334.0163, 23.31381
334.4984, 23.52982
334.9805, 23.68735
335.4626, 23.75211
335.9447, 23.70877
336.4268, 23.57523
336.9090, 23.27167
337.3911, 22.97650
337.8732, 23.05759
338.3553, 23.70667
338.8374, 24.05362
339.3195, 23.58344
339.8017, 22.32446
340.2838, 22.04938
340.7659, 23.07443
341.2480, 24.43845
341.7301, 24.91989
342.2122, 24.38525
342.6944, 24.10638
343.1765, 24.52682
343.6586, 25.40552
344.1407, 25.79120
344.6228, 25.64249
345.1049, 25.30099
345.5871, 24.96301
346.0692, 24.68811
346.5513, 24.71136
347.0334, 25.03995
347.5155, 25.50494
347.9977, 25.97928
348.4798, 26.48117
348.9619, 27.01996
349.4440, 27.86731
349.9261, 28.72485
350.4082, 28.70718
350.8904, 27.63464
351.3725, 26.53152
351.8546, 26.59315
352.3367, 27.48271
352.8188, 28.30695
353.3009, 28.70271
353.7831, 28.81464
354.2652, 28.72589
354.7473, 28.44798
355.2294, 28.20547
355.7115, 28.19710
356.1936, 28.31198
356.6758, 28.39302
357.1579, 28.28049
357.6400, 28.26567
358.1221, 28.68637
358.6042, 29.41678
359.0863, 30.00711
359.5685, 30.04608
360.0506, 29.97672
360.5327, 30.15939
361.0148, 30.76956
361.4969, 31.32840
361.9790, 31.69826
362.4612, 31.87836
362.9433, 31.87035
363.4254, 31.39792
363.9075, 30.97577
364.3896, 30.89755
364.8717, 31.25211
365.3539, 31.37514
365.8360, 30.85246
366.3181, 30.17163
366.8002, 29.76212
367.2823, 30.12592
367.7644, 30.25879
368.2466, 29.93227
368.7287, 29.17810
369.2108, 28.45909
369.6929, 27.87352
370.1750, 27.22821
370.6571, 26.43031
371.1393, 25.36464
371.6214, 24.32379
372.1035, 23.20641
372.5856, 22.14021
373.0677, 21.49042
373.5498, 21.53517
374.0320, 21.45367
374.5141, 20.91107
374.9962, 19.85117
375.4783, 18.86961
375.9604, 17.99364
376.4425, 17.17279
376.9247, 16.34140
377.4068, 15.51843
377.8889, 14.81772
378.3710, 14.24448
378.8531, 13.74342
379.3352, 13.33426
379.8174, 13.09903
380.2995, 12.58760
380.7816, 11.14803
381.2637, 8.961761
381.7458, 7.582489
382.2279, 7.261902
382.7101, 7.483643
383.1922, 7.582535
383.6743, 7.562744
384.1564, 7.365997
384.6385, 6.834457
385.1206, 6.150375
385.6028, 5.678085
386.0849, 5.398010
386.5670, 5.103577
387.0491, 4.563507
387.5312, 3.919495
388.0133, 3.383331
388.4955, 2.956223
388.9776, 2.646561
389.4597, 2.614075
389.9418, 2.822418
390.4239, 2.865448
390.9060, 2.384705
391.3882, 1.660385
391.8703, 0.9339600
392.3524, 0.1841890
392.8345, 0.4117280
393.3166, 0.6713410
393.7987, 0.7251130
394.2809, 0.8269040
394.7630, 1.116776
395.2451, 1.427780
395.7272, 1.742065
396.2093, 2.086334
396.6914, 2.224060
397.1736, 1.796494
397.6557, 1.291992
398.1378, 1.159912
398.6199, 2.147690
399.1020, 2.716568
399.5841, 2.456116
400.0663, 1.517822
400.5484, 0.9176940
401.0305, 0.8992920
401.5126, 0.9542850
401.9947, 0.8090210
402.4768, 0.2572940
402.9590, 3.4759998E-02
403.4411, 0.4086910
403.9232, 0.9082640
404.4053, 0.5922850
404.8874, 0.8652190
405.3695, 2.166138
405.8517, 2.864899
406.3338, 3.001160
406.8159, 3.136032
407.2980, 3.218109
407.7801, 3.484039
408.2622, 4.282867
408.7444, 5.586456
409.2265, 6.707047
409.7086, 7.497498
410.1907, 8.056290
410.6728, 8.534836
411.1549, 8.940689
411.6371, 9.372696
412.1192, 9.944427
412.6013, 10.57277
413.0834, 11.06802
413.5655, 11.40479
414.0476, 11.66454
414.5298, 11.81947
415.0119, 11.96161
415.4940, 12.28542
415.9761, 13.30942
416.4582, 14.21286
416.9403, 14.01709
417.4225, 12.91057
417.9046, 12.04002
418.3867, 12.36064
418.8688, 13.05211
419.3509, 13.43973
419.8330, 13.32283
420.3152, 13.05014
420.7973, 12.70222
421.2794, 12.29614
421.7615, 11.85849
422.2436, 11.25400
422.7257, 10.75824
423.2079, 10.50883
423.6900, 10.55356
424.1721, 10.52391
424.6542, 10.41751
425.1363, 10.20915
425.6184, 9.854218
426.1006, 9.051208
426.5827, 8.591537
427.0648, 8.731995
427.5469, 9.243988
428.0290, 9.327713
428.5111, 8.848572
428.9933, 8.192642
429.4754, 7.465561
429.9575, 6.618805
430.4396, 6.033966
430.9217, 5.742676
431.4038, 5.629211
431.8860, 5.627396
432.3681, 5.747498
432.8502, 5.736038
433.3323, 5.594223
433.8144, 5.236832
434.2965, 4.184677
434.7787, 2.456512
435.2608, 0.9990390
435.7429, 0.7620240
436.2250, 1.295624
436.7071, 1.503296
437.1892, 1.251724
437.6714, 0.6916050
438.1535, 0.3340300
438.6356, 1.545258
439.1177, 2.313080
439.5998, 2.002411
440.0819, 1.383484
440.5641, 1.032913
441.0462, 0.9460300
441.5283, 1.038727
442.0104, 1.569870
442.4925, 2.073883
442.9746, 2.098892
443.4568, 1.274109
443.9389, 0.5664520
444.4210, 0.5120090
444.9031, 0.7340240
445.3852, 0.5072330
445.8673, 0.9692540
446.3495, 2.257706
446.8316, 2.790741
447.3137, 2.394501
447.7958, 2.376480
448.2779, 3.016937
448.7600, 3.793152
449.2422, 4.320007
449.7243, 4.516495
450.2064, 4.628143
450.6885, 4.536713
451.1706, 4.422028
451.6527, 4.880188
452.1349, 6.095566
452.6170, 7.229263
453.0991, 7.803650
453.5812, 7.859711
454.0633, 8.359802
454.5454, 9.421005
455.0276, 10.49724
455.5097, 10.86038
455.9918, 10.61064
456.4739, 10.39049
456.9560, 10.43938
457.4381, 10.60776
457.9203, 10.50482
458.4024, 10.20892
458.8845, 10.15381
459.3666, 10.81932
459.8488, 11.80119
460.3309, 12.66618
460.8130, 13.35918
461.2951, 13.79927
461.7772, 13.87843
462.2593, 13.74429
462.7415, 13.55069
463.2236, 12.85231
463.7057, 12.48917
464.1878, 13.03911
464.6699, 14.24709
465.1520, 15.23036
465.6342, 15.63103
466.1163, 15.84987
466.5984, 16.05185
467.0805, 16.26459
467.5626, 16.40379
468.0447, 16.32759
468.5269, 16.26376
469.0090, 16.48589
469.4911, 17.31854
469.9732, 17.78769
470.4553, 17.56013
470.9374, 16.87187
471.4196, 16.82751
471.9017, 17.62167
472.3838, 18.45328
472.8659, 18.84830
473.3480, 18.80508
473.8301, 18.90865
474.3123, 19.21774
474.7944, 19.47595
475.2765, 19.31454
475.7586, 18.80185
476.2407, 18.28627
476.7228, 17.82533
477.2050, 17.46953
477.6871, 17.42548
478.1692, 17.61560
478.6513, 17.65382
479.1334, 17.20222
479.6155, 16.52885
480.0977, 15.85439
480.5798, 15.17926
481.0619, 14.71579
481.5440, 14.90758
482.0261, 15.27484
482.5082, 15.26099
482.9904, 14.33936
483.4725, 13.39232
483.9546, 12.65654
484.4367, 12.10608
484.9188, 11.63152
485.4009, 11.23238
485.8831, 10.88293
486.3652, 10.57663
486.8473, 10.33453
487.3294, 10.03419
487.8115, 9.538193
488.2936, 9.104660
488.7758, 9.124405
489.2579, 9.929367
489.7400, 10.03514
490.2221, 8.946747
490.7042, 7.156189
491.1863, 6.199722
491.6685, 6.125610
492.1506, 6.326965
492.6327, 6.674515
493.1148, 7.029663
493.5969, 6.775650
494.0790, 5.905457
494.5612, 4.838135
495.0433, 3.847046
495.5254, 2.955917
496.0075, 2.204224
496.4896, 1.664078
496.9717, 1.191376
497.4539, 0.6689300
497.9360, 0.1732030
498.4181, 0.1572720
498.9002, 2.1042001E-02
499.3823, 0.1333470
499.8644, 0.3643490
500.3466, 1.573074
500.8287, 2.393707
501.3108, 1.963074
501.7929, 1.261093
502.2750, 1.069870
502.7571, 2.048782
503.2393, 2.836365
503.7214, 3.310440
504.2035, 3.525665
504.6856, 3.556168
505.1677, 3.401154
505.6498, 3.122742
506.1320, 2.657181
506.6141, 2.012131
507.0962, 1.607910
507.5783, 1.511383
508.0604, 1.451721
508.5425, 1.183640
509.0247, 0.7230380
509.5068, 0.3491210
509.9889, 0.1450040
510.4710, 0.1302950
510.9531, 0.9727330
511.4352, 2.217331
511.9174, 3.255402
512.3995, 3.725296
512.8816, 3.918152
513.3637, 4.028610
513.8458, 4.102493
514.3279, 4.426575
514.8101, 5.274139
515.2922, 6.370193
515.7743, 7.523651
516.2564, 8.733231
516.7385, 9.885300
517.2206, 11.03796
517.7028, 12.06172
518.1849, 12.80290
518.6670, 12.22852
519.1491, 12.56035
519.6312, 14.82376
520.1133, 18.36958
520.5955, 20.39101
521.0776, 19.87915
521.5597, 19.52658
522.0418, 20.70081
522.5239, 23.65460
523.0060, 25.34842
523.4882, 25.48785
523.9703, 25.24055
524.4524, 25.86844
524.9345, 27.30914
525.4166, 28.66399
525.8987, 29.74731
526.3809, 30.72670
526.8630, 31.86020
527.3451, 33.13419
527.8272, 34.47002
528.3093, 35.92314
528.7914, 37.37003
529.2736, 38.55391
529.7557, 39.51405
530.2378, 40.72542
530.7199, 42.65239
531.2020, 44.84747
531.6841, 46.97720
532.1663, 49.17757
532.6484, 50.91426
533.1305, 51.62672
533.6126, 51.94785
534.0947, 52.80772
534.5768, 54.78609
535.0590, 56.68674
535.5411, 58.25587
536.0232, 59.58405
536.5053, 61.14015
536.9874, 62.99846
537.4695, 64.89117
537.9517, 66.68158
538.4338, 68.38669
538.9159, 69.92154
539.3980, 71.22186
539.8801, 72.58771
540.3622, 74.55402
540.8444, 76.91965
541.3265, 78.74586
541.8086, 79.66054
542.2907, 80.31531
542.7728, 81.52553
543.2549, 83.17484
543.7371, 84.90303
544.2192, 86.56238
544.7013, 88.20131
545.1834, 90.04468
545.6655, 92.06250
546.1476, 93.56668
546.6298, 93.89188
547.1119, 93.87242
547.5940, 94.06987
548.0761, 94.74783
548.5582, 95.26590
549.0403, 95.57700
549.5225, 95.71048
550.0046, 95.67218
550.4867, 95.33975
550.9688, 95.13635
551.4509, 95.38806
551.9330, 95.74332
552.4152, 94.73378
552.8973, 92.13220
553.3794, 89.49141
553.8615, 87.70828
554.3436, 86.59705
554.8257, 85.11713
555.3079, 83.26091
555.7900, 81.35535
556.2721, 79.67534
556.7542, 78.18857
557.2363, 76.89482
557.7184, 75.91000
558.2006, 74.70697
558.6827, 72.91098
559.1648, 70.69446
559.6469, 68.23566
560.1290, 64.98138
560.6111, 62.05928
561.0933, 60.27670
561.5754, 59.42499
562.0575, 58.08597
562.5396, 55.15356
563.0217, 52.57233
563.5038, 51.21680
563.9860, 51.47066
564.4681, 51.11899
564.9502, 49.87378
565.4323, 48.43350
565.9144, 47.57832
566.3965, 47.37889
566.8787, 46.90392
567.3608, 45.94508
567.8429, 44.80800
568.3250, 44.02568
568.8071, 43.56256
569.2892, 43.29097
569.7714, 43.24390
570.2535, 43.30370
570.7356, 43.36920
571.2177, 43.42128
571.6998, 43.36369
572.1819, 42.79436
572.6641, 42.31638
573.1462, 42.53102
573.6283, 43.67920
574.1104, 44.55682
574.5925, 44.48718
575.0746, 44.15030
575.5568, 44.16063
576.0389, 44.66544
576.5210, 45.41031
577.0031, 46.59106
577.4852, 47.92474
577.9673, 48.79948
578.4495, 49.08763
578.9316, 49.33676
579.4137, 49.64410
579.8958, 50.05789
580.3779, 50.77867
580.8600, 51.80743
581.3422, 53.15689
581.8243, 55.21901
582.3064, 57.55688
582.7885, 59.04512
583.2706, 59.57253
583.7527, 59.78685
584.2349, 59.89622
584.7170, 60.12659
585.1991, 60.79617
585.6812, 62.26062
586.1633, 63.70384
586.6454, 64.74448
587.1276, 65.53526
587.6097, 66.34476
588.0918, 67.20157
588.5739, 68.10417
589.0560, 68.95090
589.5381, 69.79880
590.0203, 71.12927
590.5024, 73.22252
590.9845, 75.25360
591.4666, 76.80933
591.9487, 77.89899
592.4308, 78.89087
592.9130, 79.76553
593.3951, 80.51724
593.8772, 80.86884
594.3593, 81.11311
594.8414, 82.25284
595.3235, 84.61763
595.8057, 87.12411
596.2878, 88.75865
596.7699, 89.86826
597.2520, 91.09584
597.7341, 93.10947
598.2162, 94.91310
598.6984, 95.89084
599.1805, 96.17850
599.6626, 96.44778
600.1447, 96.86346
600.6268, 97.37849
601.1089, 98.03281
601.5911, 98.82324
602.0732, 99.02228
602.5553, 98.48303
603.0374, 97.72160
603.5195, 97.06239
604.0016, 96.47162
604.4838, 95.82776
604.9659, 95.23880
605.4480, 94.60794
605.9301, 93.72870
606.4122, 92.49905
606.8943, 90.91002
607.3765, 88.93527
607.8586, 86.89203
608.3407, 84.84518
608.8228, 82.86356
609.3049, 81.33047
609.7870, 81.26466
610.2692, 81.00420
610.7513, 79.33850
611.2334, 76.41585
611.7155, 74.03665
612.1976, 72.74014
612.6797, 71.79471
613.1619, 70.94495
613.6440, 70.26318
614.1261, 69.33807
614.6082, 68.11813
615.0903, 66.75125
615.5724, 65.25632
616.0546, 63.62897
616.5367, 62.31212
617.0188, 61.40468
617.5009, 60.70923
617.9830, 60.07396
618.4651, 59.43260
618.9473, 58.54259
619.4294, 57.14375
619.9115, 55.66055
620.3936, 54.56960
620.8757, 53.75011
621.3578, 52.78777
621.8400, 51.36011
622.3221, 49.81319
622.8042, 48.31645
623.2863, 46.88321
623.7684, 45.58430
624.2505, 44.44054
624.7327, 43.38036
625.2148, 42.43568
625.6969, 41.70644
626.1790, 40.66882
626.6611, 39.23402
627.1432, 37.72789
627.6254, 36.56448
628.1075, 35.69438
628.5896, 34.51930
629.0717, 32.85551
629.5538, 31.15993
630.0359, 30.28181
630.5181, 29.87061
631.0002, 29.01520
631.4823, 26.83031
631.9644, 24.58954
632.4465, 23.24142
632.9286, 22.57635
633.4108, 21.96614
633.8929, 21.40630
634.3750, 20.64865
634.8571, 19.53423
635.3392, 18.03789
635.8214, 16.51950
636.3035, 14.74574
636.7856, 13.27052
637.2677, 12.54620
637.7498, 12.74043
638.2319, 12.42517
638.7141, 11.54712
639.1962, 10.37479
639.6783, 9.029953
640.1604, 7.583603
640.6425, 6.318481
641.1246, 5.241974
641.6068, 4.452789
642.0889, 4.074768
642.5710, 4.041885
643.0531, 4.254089
643.5352, 5.390274
644.0173, 6.017975
644.4995, 5.040726
644.9816, 3.056137
645.4637, 1.758362
645.9458, 2.069962
646.4279, 2.400558
646.9100, 2.406586
647.3922, 2.103470
647.8743, 1.716949
648.3564, 1.230621
648.8385, 0.6808010
649.3206, 2.4323000E-02
649.8027, 0.8392180
650.2849, 1.168900
650.7670, 0.9898680
651.2491, 0.7376710
651.7312, 0.9912870
652.2133, 1.373352
652.6954, 1.125610
653.1776, 0.1016080
653.6597, 1.048035
654.1418, 0.7135620
654.6239, 0.2277830
655.1060, 0.9926760
655.5881, 1.405106
656.0703, 1.613922
656.5524, 1.388245
657.0345, 1.039429
657.5166, 1.189560
657.9987, 2.186981
658.4808, 2.774872
658.9630, 2.516754
659.4451, 1.717010
659.9272, 1.502609
660.4093, 1.874283
660.8914, 2.150558
661.3735, 1.654892
661.8557, 0.9320220
662.3378, 1.278091
662.8199, 2.541565
663.3020, 3.364532
663.7841, 2.306244
664.2662, 0.8433530
664.7484, 0.2587590
665.2305, 0.8726810
665.7126, 1.204041
666.1947, 0.5298310
666.6768, 0.3067470
667.1589, 0.7081300
667.6411, 0.5053710
668.1232, 0.1805570
668.6053, 0.4040220
669.0874, 0.9303590
669.5695, 0.9470830
670.0516, 0.4598390
670.5338, 8.2367003E-02
671.0159, 0.6376500
671.4980, 1.101654
671.9801, 1.283691
672.4622, 1.240097
672.9443, 1.123718
673.4265, 0.9204410
673.9086, 0.7424470
674.3907, 0.6700130
674.8728, 0.6842650
675.3549, 0.7280880
675.8370, 0.7989350
676.3192, 0.8847960
676.8013, 1.021042
677.2834, 1.197342
677.7655, 1.200333
678.2476, 0.8870090
678.7297, 0.7083590
679.2119, 1.010086
679.6940, 1.750092
680.1761, 1.987900
680.6582, 1.675537
681.1403, 1.381210
681.6224, 1.712830
682.1046, 2.374756
682.5867, 2.796448
683.0688, 2.907257
683.5509, 2.846542
684.0330, 2.380264
684.5151, 1.953979
684.9973, 2.054550
685.4794, 3.313202
685.9615, 4.212555
686.4436, 4.190994
686.9257, 3.848877
687.4078, 3.921127
687.8900, 4.673325
688.3721, 5.115585
688.8542, 5.041550
689.3363, 4.666718
689.8184, 4.367752
690.3005, 4.150375
690.7827, 4.081635
691.2648, 4.279831
691.7469, 4.547470
692.2290, 4.604904
692.7111, 4.489120
693.1932, 4.319580
693.6754, 3.901993
694.1575, 3.671539
694.6396, 4.056213
695.1217, 4.987991
695.6038, 5.565262
696.0859, 5.343811
696.5681, 5.051773
697.0502, 4.944229
697.5323, 5.027969
698.0144, 5.151093
698.4965, 5.340103
698.9786, 5.482239
699.4608, 5.537796
699.9429, 5.481796
700.4250, 5.158447
700.9071, 4.557816
701.3892, 4.009827
701.8713, 3.734238
702.3535, 3.709549
702.8356, 3.978241
703.3177, 4.676270
703.7998, 5.214951
704.2819, 5.197113
704.7640, 4.995117
705.2462, 5.019257
705.7283, 5.515625
706.2104, 5.855133
706.6925, 5.976929
707.1746, 5.948166
707.6567, 5.835281
708.1389, 5.652557
708.6210, 5.586090
709.1031, 5.728302
709.5852, 5.880951
710.0673, 5.755737
710.5494, 5.445526
711.0316, 5.170197
711.5137, 4.809875
711.9958, 4.553696
712.4779, 4.486740
712.9600, 4.578964
713.4421, 4.812653
713.9243, 5.570190
714.4064, 6.099243
714.8885, 6.096008
715.3706, 5.605591
715.8527, 5.178574
716.3348, 4.892441
716.8170, 4.586731
717.2991, 4.095428
717.7812, 3.484238
718.2633, 3.411346
718.7454, 3.864517
719.2275, 4.172760
719.7097, 3.501724
720.1918, 2.536743
720.6739, 2.238205
721.1560, 2.718613
721.6381, 3.146942
722.1202, 3.015442
722.6024, 2.704819
723.0845, 2.452545
723.5666, 2.409653
724.0487, 2.111832
724.5308, 1.227997
725.0129, 0.5156860
725.4951, 0.8229830
725.9772, 2.236984
726.4593, 2.801987
726.9414, 2.258041
727.4235, 1.473145
727.9056, 1.522018
728.3878, 2.074966
728.8699, 2.380524
729.3520, 2.174530
729.8341, 1.920471
730.3162, 1.964813
730.7983, 2.129562
731.2805, 2.191116
731.7626, 2.082367
732.2447, 1.884628
732.7268, 1.485214
733.2089, 1.077240
733.6910, 1.053970
734.1732, 1.564880
734.6553, 1.765579
735.1374, 1.384018
735.6195, 0.7432400
736.1016, 0.4102780
736.5837, 0.3609470
737.0659, 0.5132600
737.5480, 1.106918
738.0301, 1.589081
738.5122, 1.216049
738.9943, 0.3221440
739.4764, 0.2091060
739.9586, 0.2302700
740.4407, 0.7492680
740.9228, 1.113312
741.4049, 1.319992
741.8870, 1.321609
742.3691, 1.007797
742.8513, 0.7952120
743.3334, 0.9263460
743.8155, 1.273071
744.2976, 1.276123
744.7797, 0.9543910
745.2618, 0.6679230
745.7440, 0.6920320
746.2261, 0.8436130
746.7082, 0.9334720
747.1903, 0.9529110
747.6724, 0.9192500
748.1545, 0.7808230
748.6367, 0.6415250
749.1188, 0.5496670
749.6009, 0.5064700
750.0830, 0.5279080
750.5651, 0.6502230
751.0472, 0.7673340
751.5294, 0.8345950
752.0115, 0.8516390
752.4936, 0.6945040
752.9757, 0.3513340
753.4578, 5.5771001E-02
753.9399, 6.6788003E-02
754.4221, 0.2318730
754.9042, 0.3853610
755.3863, 0.5256350
755.8684, 0.4523770
756.3505, 0.3001560
756.8326, 1.062988
757.3148, 1.267609
757.7969, 0.5457310
758.2790, 8.9538999E-02
758.7611, 6.0089000E-02
759.2432, 1.0380000E-03
759.7253, 0.2749330
760.2075, 0.7792510
760.6896, 0.9541020
761.1717, 0.7201390
761.6538, 0.3457030
762.1359, 1.0376000E-02
762.6180, 0.2710110
763.1002, 0.2122340
763.5823, 0.3579560
764.0644, 0.7249760
764.5465, 0.1900020
765.0286, 0.6014250
765.5107, 0.9471440
765.9929, 0.1685490
766.4750, 0.1480100
766.9571, 0.2111970
767.4392, 0.8266450
767.9213, 1.203217
768.4034, 1.338226
768.8856, 1.252609
769.3677, 0.8862000
769.8498, 0.5042270
770.3319, 0.4851530
770.8140, 0.7017820
771.2961, 0.8910370
771.7783, 0.9769130
772.2604, 1.009628
772.7425, 0.9011230
773.2246, 0.7843930
773.7067, 0.8716890
774.1888, 1.449966
774.6710, 1.834824
775.1531, 1.909943
775.6352, 1.812866
776.1173, 1.762360
776.5994, 1.760864
777.0815, 1.871948
777.5637, 2.138260
778.0458, 2.454514
778.5279, 2.683029
779.0100, 2.851486
779.4921, 3.014679
779.9742, 3.229675
780.4564, 3.391052
780.9385, 3.392426
781.4206, 3.315598
781.9027, 3.341888
782.3848, 3.570313
782.8669, 3.733780
783.3491, 3.774673
783.8312, 3.755997
784.3133, 3.838181
784.7954, 4.016708
785.2775, 4.106689
785.7596, 3.954117
786.2418, 3.828125
786.7239, 4.245178
787.2060, 4.981201
787.6881, 5.499664
788.1702, 5.346085
788.6523, 5.149857
789.1345, 5.050278
789.6166, 5.101929
790.0987, 5.454788
790.5808, 6.314575
791.0629, 7.052094
791.5450, 7.524628
792.0272, 7.778931
792.5093, 7.873734
792.9914, 7.823135
793.4735, 7.772125
793.9556, 7.713409
794.4377, 7.760315
794.9199, 8.158325
795.4020, 8.779510
795.8841, 9.262192
796.3662, 9.127899
796.8483, 9.200394
797.3304, 9.946365
797.8126, 11.13708
798.2947, 12.04286
798.7768, 12.71257
799.2589, 12.90332
799.7410, 12.34238
800.2231, 11.44066
800.7053, 11.30048
801.1874, 11.82281
801.6695, 12.45467
802.1516, 13.02373
802.6337, 13.49672
803.1158, 13.79956
803.5980, 13.97737
804.0801, 14.16859
804.5622, 14.33052
805.0443, 14.61554
805.5264, 15.20329
806.0085, 15.91815
806.4907, 16.06934
806.9728, 15.47742
807.4549, 15.29453
807.9370, 16.10425
808.4191, 17.32977
808.9012, 17.66565
809.3834, 17.34802
809.8655, 17.22513
810.3476, 17.97287
810.8297, 18.80202
811.3118, 19.19141
811.7939, 19.27234
812.2761, 19.43684
812.7582, 19.90599
813.2403, 20.22713
813.7224, 20.23586
814.2045, 20.06976
814.6866, 20.16704
815.1688, 20.54166
815.6509, 20.88382
816.1330, 20.97658
816.6151, 21.05103
817.0972, 21.53317
817.5793, 22.27483
818.0615, 22.90990
818.5436, 23.30379
819.0257, 23.54868
819.5078, 23.61858
819.9899, 23.55455
820.4720, 23.48296
820.9542, 23.41595
821.4363, 23.29691
821.9184, 23.08458
822.4005, 22.85721
822.8826, 22.71901
823.3647, 22.67337
823.8469, 22.77130
824.3290, 23.14409
824.8111, 23.50885
825.2932, 23.50502
825.7753, 23.32213
826.2574, 23.33185
826.7396, 24.06020
827.2217, 24.45418
827.7038, 24.15927
828.1859, 23.52261
828.6681, 23.18402
829.1502, 23.17003
829.6323, 23.41774
830.1144, 24.05896
830.5966, 24.65326
831.0787, 24.24817
831.5608, 23.30804
832.0429, 22.93533
832.5250, 23.86681
833.0071, 24.67296
833.4893, 24.70024
833.9714, 24.24554
834.4535, 23.70261
834.9356, 22.70233
835.4177, 22.32442
835.8998, 22.88583
836.3820, 23.82785
836.8641, 24.29578
837.3462, 24.32527
837.8283, 24.29951
838.3104, 24.27327
838.7925, 24.27000
839.2747, 24.48140
839.7568, 24.63663
840.2389, 24.33591
840.7210, 23.00404
841.2031, 22.19070
841.6852, 22.63910
842.1674, 23.48659
842.6495, 23.92477
843.1316, 23.85252
843.6137, 23.51025
844.0958, 22.84982
844.5779, 22.24629
845.0601, 22.12318
845.5422, 22.25436
846.0243, 22.33122
846.5064, 22.34062
846.9885, 22.22298
847.4706, 21.71184
847.9528, 21.12325
848.4349, 20.79710
848.9170, 20.87541
849.3991, 20.94971
849.8812, 21.05003
850.3633, 21.04256
850.8455, 20.74937
851.3276, 20.23558
851.8097, 20.02011
852.2918, 20.13843
852.7739, 20.02666
853.2560, 18.75838
853.7382, 17.35918
854.2203, 16.97055
854.7024, 17.83202
855.1845, 18.26866
855.6666, 17.51942
856.1487, 16.73073
856.6309, 16.48233
857.1130, 16.76718
857.5951, 16.71689
858.0772, 16.30655
858.5593, 15.84958
859.0414, 15.69185
859.5236, 15.54820
860.0057, 14.70058
860.4878, 13.30519
860.9699, 12.49377
861.4520, 13.45049
861.9341, 14.45543
862.4163, 14.58342
862.8984, 13.98485
863.3805, 13.76071
863.8626, 14.07080
864.3447, 14.20763
864.8268, 13.86368
865.3090, 13.18546
865.7911, 12.39238
866.2732, 11.55280
866.7553, 10.98224
867.2374, 11.13681
867.7195, 11.30841
868.2017, 11.06190
868.6838, 10.49341
869.1659, 9.871948
869.6480, 9.052994
870.1301, 8.505432
870.6122, 8.393921
871.0944, 8.524384
871.5765, 8.529663
872.0586, 8.411865
872.5407, 8.155167
873.0228, 7.705307
873.5049, 7.237579
873.9871, 6.920074
874.4692, 6.696350
874.9513, 6.477036
875.4334, 6.284241
875.9155, 6.031281
876.3976, 5.659805
876.8798, 5.278198
877.3619, 5.015778
877.8440, 4.878754
878.3261, 4.752502
878.8082, 4.625656
879.2903, 4.485016
879.7725, 4.263702
880.2546, 4.035187
880.7367, 3.939041
881.2188, 4.043701
881.7009, 4.048706
882.1830, 3.822647
882.6652, 3.469223
883.1473, 3.041473
883.6294, 2.507889
884.1115, 2.065826
884.5936, 1.692200
885.0757, 1.533478
885.5579, 1.966934
886.0400, 2.611206
886.5221, 2.634232
887.0042, 2.041260
887.4863, 1.362244
887.9684, 0.8353730
888.4506, 0.3486180
888.9327, 0.3121950
889.4148, 1.098221
889.8969, 1.127731
890.3790, 5.7098001E-02
890.8611, 0.7102360
891.3433, 0.4342350
891.8254, 0.4422610
892.3075, 0.7398990
892.7896, 0.5804900
893.2717, 0.4826810
893.7538, 0.8147280
894.2360, 1.188293
894.7181, 1.421463
895.2002, 1.520828
895.6823, 1.499878
896.1644, 1.384308
896.6465, 1.084854
897.1287, 0.4806670
897.6108, 0.1613770
898.0929, 0.3584900
898.5750, 0.1526790
899.0571, 0.3443600
899.5392, 1.270248
900.0214, 1.990540
900.5035, 1.845871
900.9856, 1.285080
901.4677, 0.8418120
901.9498, 0.9619600
902.4319, 0.4878690
902.9141, 1.103928
903.3962, 2.535110
903.8783, 2.309784
904.3604, 0.6539460
904.8425, 2.0096000E-02
905.3246, 0.4695130
905.8068, 1.143982
906.2889, 1.123367
906.7710, 0.9569700
907.2531, 1.160446
907.7352, 1.803162
908.2173, 2.539948
908.6995, 3.445007
909.1816, 4.250427
909.6637, 4.713196
910.1458, 4.947250
910.6279, 5.829071
911.1100, 7.325180
911.5922, 8.736679
912.0743, 9.290359
912.5564, 9.881744
913.0385, 11.70473
913.5206, 14.34802
914.0027, 16.59619
914.4849, 17.66650
914.9670, 18.87393
915.4491, 20.50281
915.9312, 22.37196
916.4133, 24.01915
916.8954, 25.46329
917.3776, 27.28168
917.8597, 29.65410
918.3418, 32.35416
918.8239, 35.32817
919.3060, 38.39629
919.7881, 41.27803
920.2703, 43.69656
920.7524, 46.40324
921.2345, 49.82234
921.7166, 53.21960
922.1987, 55.86076
922.6808, 57.70270
923.1630, 60.20818
923.6451, 63.52673
924.1272, 66.35733
924.6093, 67.24200
925.0914, 67.24823
925.5735, 67.73860
926.0557, 68.78448
926.5378, 69.01633
927.0199, 67.53688
927.5020, 65.70541
927.9841, 64.01431
928.4662, 62.36682
928.9484, 60.20316
929.4305, 57.51855
929.9126, 54.23080
930.3947, 50.06619
930.8768, 45.56593
931.3589, 41.20029
931.8411, 37.03676
932.3232, 33.31505
932.8053, 30.38994
933.2874, 27.56195
933.7695, 24.71852
934.2516, 21.93900
934.7338, 19.32631
935.2159, 16.86269
935.6980, 14.91443
936.1801, 13.60072
936.6622, 12.46609
937.1443, 10.77464
937.6265, 9.125259
938.1086, 8.352768
938.5907, 8.809479
939.0728, 9.240372
939.5549, 9.623505
940.0370, 9.680618
940.5192, 9.037521
941.0013, 7.761368
941.4834, 7.285477
941.9655, 7.597946
942.4476, 8.287094
942.9297, 9.452682
943.4119, 10.58823
943.8940, 11.04922
944.3761, 10.98434
944.8582, 11.14246
945.3403, 11.83759
945.8224, 12.56752
946.3046, 13.21783
946.7867, 13.83310
947.2688, 14.65099
947.7509, 15.67082
948.2330, 16.40039
948.7151, 16.50783
949.1973, 16.58708
949.6794, 17.20772
950.1615, 18.12903
950.6436, 19.03943
951.1257, 19.81837
951.6078, 20.55144
952.0900, 21.28055
952.5721, 22.00446
953.0542, 22.63995
953.5363, 23.22429
954.0184, 24.14255
954.5005, 25.40941
954.9827, 26.64279
955.4648, 27.25374
955.9469, 27.86269
956.4290, 29.01033
956.9111, 30.68689
957.3932, 32.26746
957.8754, 33.74915
958.3575, 35.24855
958.8396, 36.76697
959.3217, 38.32503
959.8038, 39.90994
960.2859, 41.55547
960.7681, 43.32297
961.2502, 45.04547
961.7323, 47.02969
962.2144, 49.65309
962.6965, 52.51843
963.1786, 55.13542
963.6608, 57.26663
964.1429, 59.63962
964.6250, 62.21097
965.1071, 65.17462
965.5892, 68.92267
966.0714, 73.12445
966.5535, 77.29610
967.0356, 81.35974
967.5177, 85.30644
967.9998, 89.10745
968.4819, 92.81253
968.9641, 96.92212
969.4462, 101.1547
969.9283, 103.3433
970.4104, 103.3221
970.8925, 102.5094
971.3746, 101.6054
971.8568, 99.99423
972.3389, 96.44090
972.8210, 91.46747
973.3031, 86.16805
973.7852, 80.93353
974.2673, 75.39395
974.7495, 69.03271
975.2316, 62.64421
975.7137, 57.03207
976.1958, 52.16692
976.6779, 47.76759
977.1600, 43.80357
977.6422, 40.29762
978.1243, 37.19487
978.6064, 34.51202
979.0885, 32.41499
979.5706, 30.92589
980.0527, 29.15569
980.5349, 26.43063
981.0170, 24.24901
981.4991, 23.30794
981.9812, 23.19333
982.4633, 22.48100
982.9454, 21.25172
983.4276, 19.99525
983.9097, 18.79747
984.3918, 17.78725
984.8739, 17.20647
985.3560, 16.80490
985.8381, 16.16556
986.3203, 14.97833
986.8024, 14.20875
987.2845, 13.97063
987.7666, 13.96306
988.2487, 14.06664
988.7308, 14.12610
989.2130, 13.60165
989.6951, 12.47629
990.1772, 11.47875
990.6593, 11.12318
991.1414, 10.89017
991.6235, 10.51628
992.1057, 10.01712
992.5878, 9.436218
993.0699, 8.727066
993.5520, 8.295776
994.0341, 8.445862
994.5162, 8.668930
994.9984, 8.077896
995.4805, 7.052460
995.9626, 6.317627
996.4447, 6.315628
996.9268, 6.251053
997.4089, 6.022415
997.8911, 5.678940
998.3732, 5.254517
998.8553, 4.755676
999.3374, 4.143066
999.8195, 3.417740
1000.302, 2.789764
1000.784, 2.554672
1001.266, 2.368134
1001.748, 1.813065
1002.230, 0.9467320
1002.712, 0.5479130
1003.194, 0.9357450
1003.676, 1.145020
1004.159, 0.8857120
1004.641, 0.3498080
1005.123, 0.1409300
1005.605, 0.5821530
1006.087, 0.9560550
1006.569, 1.239227
1007.051, 1.510269
1007.533, 1.989075
1008.016, 2.335342
1008.498, 2.169418
1008.980, 1.295822
1009.462, 1.089127
1009.944, 1.625473
1010.426, 2.241928
1010.908, 2.400620
1011.390, 2.372971
1011.872, 2.661926
1012.355, 3.133682
1012.837, 3.170059
1013.319, 2.133743
1013.801, 1.185974
1014.283, 0.4780120
1014.765, 6.9762997E-02
1015.247, 0.2256010
1015.729, 0.8497770
1016.211, 1.240982
1016.694, 1.293976
1017.176, 0.9082790
1017.658, 0.5480650
1018.140, 2.114380
1018.622, 2.866196
1019.104, 2.602142
1019.586, 2.324707
1020.068, 1.922394
1020.551, 1.901550
1021.033, 2.767410
1021.515, 4.054123
1021.997, 4.641449
1022.479, 4.752151
1022.961, 5.036575
1023.443, 5.910324
1023.925, 6.823273
1024.407, 7.678818
1024.890, 8.450043
1025.372, 9.095261
1025.854, 9.606812
1026.336, 9.953369
1026.818, 10.09415
1027.300, 10.49002
1027.782, 11.88474
1028.264, 13.49866
1028.746, 14.52130
1029.229, 14.88159
1029.711, 15.45628
1030.193, 16.53574
1030.675, 17.27670
1031.157, 17.12564
1031.639, 16.77609
1032.121, 18.27657
1032.603, 20.95692
1033.086, 22.61821
1033.568, 22.15286
1034.050, 21.51695
1034.532, 21.30951
1035.014, 21.53799
1035.496, 22.35675
1035.978, 23.97147
1036.460, 24.49266
1036.943, 23.84000
1037.425, 23.25140
1037.907, 23.88248
1038.389, 24.85452
1038.871, 25.13783
1039.353, 24.89821
1039.835, 24.89555
1040.317, 25.35167
1040.799, 25.94536
1041.281, 26.70392
1041.764, 27.46558
1042.246, 27.98198
1042.728, 28.29007
1043.210, 28.49693
1043.692, 28.62386
1044.174, 28.63725
1044.656, 28.25058
1045.138, 27.99414
1045.621, 28.33862
1046.103, 29.21107
1046.585, 29.52638
1047.067, 29.24301
1047.549, 28.97346
1048.031, 29.04778
1048.513, 29.20094
1048.995, 29.06238
1049.478, 28.79810
1049.960, 28.69174
1050.442, 29.00955
1050.924, 29.17969
1051.406, 29.12544
1051.888, 29.05287
1052.370, 29.23489
1052.852, 29.55042
1053.334, 29.41832
1053.817, 28.89757
1054.299, 28.74368
1054.781, 29.64903
1055.263, 30.73384
1055.745, 31.74303
1056.227, 32.59767
1056.709, 32.95792
1057.191, 32.77228
1057.673, 33.19092
1058.156, 34.61876
1058.638, 35.98505
1059.120, 35.80199
1059.602, 35.19443
1060.084, 35.43085
1060.566, 36.84805
1061.048, 38.25768
1061.530, 39.70082
1062.013, 40.91142
1062.495, 41.65771
1062.977, 42.15797
1063.459, 42.81628
1063.941, 43.70438
1064.423, 45.06395
1064.905, 47.69913
1065.387, 49.80969
1065.870, 50.45641
1066.352, 50.64401
1066.834, 51.17905
1067.316, 52.03055
1067.798, 53.26152
1068.280, 54.87527
1068.762, 56.36757
1069.244, 57.64154
1069.726, 58.41771
1070.208, 58.37250
1070.691, 57.60449
1071.173, 56.59769
1071.655, 55.26320
1072.137, 54.06107
1072.619, 53.18826
1073.101, 52.03677
1073.583, 49.45155
1074.065, 46.17493
1074.548, 43.39606
1075.030, 41.40359
1075.512, 39.41730
1075.994, 36.84776
1076.476, 34.75090
1076.958, 33.81155
1077.440, 33.59055
1077.922, 32.38132
1078.405, 30.36180
1078.887, 28.35974
1079.369, 26.42746
1079.851, 25.03450
1080.333, 24.86591
1080.815, 25.11662
1081.297, 24.88521
1081.779, 24.04759
1082.261, 23.38287
1082.744, 22.88016
1083.226, 22.59500
1083.708, 22.70218
1084.190, 22.93651
1084.672, 23.01695
1085.154, 22.98528
1085.636, 23.00829
1086.118, 23.14638
1086.601, 23.26093
1087.083, 23.33435
1087.565, 23.38333
1088.047, 23.40366
1088.529, 23.42274
1089.011, 23.49429
1089.493, 23.62425
1089.975, 23.78819
1090.458, 23.82283
1090.940, 24.08931
1091.422, 24.78506
1091.904, 25.75774
1092.386, 26.61696
1092.868, 27.34050
1093.350, 27.71239
1093.832, 27.54686
1094.314, 27.42018
1094.797, 27.82588
1095.279, 28.39096
1095.761, 28.81401
1096.243, 29.09813
1096.725, 29.02446
1097.207, 28.55054
1097.689, 28.22717
1098.171, 28.40387
1098.653, 28.84531
1099.136, 29.48836
1099.618, 30.14740
1100.100, 30.43475
1100.582, 29.61461
1101.064, 29.79721
1101.546, 31.45367
1102.028, 33.14760
1102.510, 33.25638
1102.993, 32.44789
1103.475, 32.28247
1103.957, 32.72925
1104.439, 33.09698
1104.921, 32.88553
1105.403, 32.85913
1105.885, 33.08614
1106.367, 33.52480
1106.849, 34.48624
1107.332, 35.80367
1107.814, 36.12541
1108.296, 35.13029
1108.778, 34.56015
1109.260, 36.25186
1109.742, 38.07242
1110.224, 38.49887
1110.706, 37.78831
1111.188, 37.42813
1111.671, 37.44661
1112.153, 37.54596
1112.635, 37.59329
1113.117, 37.74492
1113.599, 38.21848
1114.081, 38.82814
1114.563, 39.45593
1115.045, 40.21954
1115.528, 40.17097
1116.010, 39.07910
1116.492, 38.14865
1116.974, 38.25473
1117.456, 38.79045
1117.938, 38.82724
1118.420, 38.52440
1118.902, 38.19160
1119.385, 37.97395
1119.867, 37.63898
1120.349, 37.17082
1120.831, 36.66029
1121.313, 36.20854
1121.795, 35.78333
1122.277, 35.22115
1122.759, 34.55443
1123.241, 34.00282
1123.724, 33.71838
1124.206, 33.51445
1124.688, 33.41019
1125.170, 33.27472
1125.652, 32.81223
1126.134, 32.09656
1126.616, 31.75912
1127.098, 31.88907
1127.580, 31.88426
1128.063, 31.28453
1128.545, 30.45311
1129.027, 29.51947
1129.509, 28.56668
1129.991, 27.89209
1130.473, 27.50150
1130.955, 27.32611
1131.437, 27.43016
1131.920, 27.39108
1132.402, 26.59865
1132.884, 25.60545
1133.366, 24.99640
1133.848, 24.85149
1134.330, 24.46295
1134.812, 23.79228
1135.294, 23.06418
1135.776, 22.28461
1136.259, 21.64940
1136.741, 21.72012
1137.223, 22.00140
1137.705, 21.67029
1138.187, 20.06834
1138.669, 18.99937
1139.151, 18.67181
1139.633, 18.35034
1140.115, 17.36751
1140.598, 16.13411
1141.080, 15.59326
1141.562, 15.52795
1142.044, 15.30760
1142.526, 14.49792
1143.008, 13.86494
1143.490, 13.63696
1143.972, 13.38921
1144.455, 12.49760
1144.937, 11.26054
1145.419, 10.82388
1145.901, 11.11861
1146.383, 11.24887
1146.865, 10.78925
1147.347, 10.04526
1147.829, 8.899048
1148.312, 7.736328
1148.794, 7.251617
1149.276, 7.328827
1149.758, 7.237244
1150.240, 6.888824
1150.722, 6.456818
1151.204, 5.983368
1151.686, 5.523163
1152.168, 5.169403
1152.651, 4.834274
1153.133, 4.221405
1153.615, 3.346268
1154.097, 2.424789
1154.579, 1.468521
1155.061, 0.7762910
1155.543, 0.7662050
1156.025, 0.9790500
1156.507, 1.102661
1156.990, 1.122559
1157.472, 0.8878940
1157.954, 0.3804780
1158.436, 0.2212830
1158.918, 0.9966430
1159.400, 1.502960
1159.882, 0.9664920
1160.364, 0.1008000
1160.847, 0.2633510
1161.329, 1.6341999E-02
1161.811, 0.5989690
1162.293, 1.715912
1162.775, 2.295074
1163.257, 1.427017
1163.739, 0.2008210
1164.221, 6.5770000E-03
1164.703, 0.3876800
1165.186, 0.6868900
1165.668, 0.6559300
1166.150, 0.8332210
1166.632, 1.320068
1167.114, 1.625595
1167.596, 1.141281
1168.078, 0.4088900
1168.560, 0.3320160
1169.042, 0.7288510
1169.525, 1.111588
1170.007, 1.455414
1170.489, 1.578232
1170.971, 1.419250
1171.453, 1.162949
1171.935, 0.9728550
1172.417, 0.8212740
1172.899, 0.6036830
1173.382, 0.3512570
1173.864, 0.2375950
1174.346, 0.3967440
1174.828, 0.6376950
1175.310, 1.059845
1175.792, 1.326340
1176.274, 0.8085940
1176.756, 0.1354060
1177.239, 0.6595920
1177.721, 0.7099300
1178.203, 0.6970370
1178.685, 0.6930690
1179.167, 0.7613980
1179.649, 0.9489440
1180.131, 1.174316
1180.613, 1.292633
1181.095, 1.320297
1181.578, 1.299271
1182.060, 1.234238
1182.542, 1.185699
1183.024, 1.241898
1183.506, 1.241287
1183.988, 1.096298
1184.470, 0.8856200
1184.952, 0.7817380
1185.434, 0.7871860
1185.917, 0.9853670
1186.399, 1.476868
1186.881, 1.728638
1187.363, 1.075531
1187.845, 0.5529790
1188.327, 0.7113190
1188.809, 1.366745
1189.291, 1.900696
1189.774, 2.306412
1190.256, 2.533340
1190.738, 2.467026
1191.220, 2.491776
1191.702, 2.964050
1192.184, 3.423859
1192.666, 3.521881
1193.148, 3.346588
1193.630, 3.626785
1194.113, 4.244019
1194.595, 4.479675
1195.077, 3.816544
1195.559, 3.124054
1196.041, 2.784286
1196.523, 2.649109
1197.005, 2.621902
1197.487, 2.699905
1197.969, 2.836868
1198.452, 3.031555
1198.934, 3.274109
1199.416, 3.678619
1199.898, 3.976669
1200.380, 3.919006
1200.862, 3.778824
1201.344, 3.872284
1201.826, 3.767105
1202.309, 4.158585
1202.791, 3.788162
1203.273, 3.550369
1203.755, 3.774918
1204.237, 4.131866
1204.719, 4.540649
1205.201, 4.922409
1205.683, 5.197632
1206.166, 5.366226
1206.648, 5.400604
1207.130, 5.304337
1207.612, 5.172806
1208.094, 4.960815
1208.576, 4.849854
1209.058, 5.003616
1209.540, 5.289154
1210.022, 5.554825
1210.505, 5.799652
1210.987, 5.987442
1211.469, 6.111603
1211.951, 5.988861
1212.433, 5.029572
1212.915, 4.287369
1213.397, 4.627304
1213.879, 5.431702
1214.361, 5.609802
1214.844, 5.220139
1215.326, 5.291595
1215.808, 5.944473
1216.290, 6.430145
1216.772, 5.967239
1217.254, 5.441238
1217.736, 5.426880
1218.218, 5.741241
1218.701, 5.956848
1219.183, 6.061066
1219.665, 6.095169
1220.147, 6.031860
1220.629, 5.916214
1221.111, 5.799118
1221.593, 5.796570
1222.075, 5.893112
1222.557, 6.035843
1223.040, 6.290329
1223.522, 6.624863
1224.004, 6.495544
1224.486, 5.727600
1224.968, 5.187393
1225.450, 5.874084
1225.932, 6.523758
1226.414, 6.319977
1226.896, 6.642227
1227.379, 6.577423
1227.861, 6.118195
1228.343, 6.064102
1228.825, 5.085129
1229.307, 4.309891
1229.789, 4.518677
1230.271, 4.931519
1230.753, 5.220062
1231.236, 5.373672
1231.718, 5.319489
1232.200, 5.063446
1232.682, 4.641937
1233.164, 3.991013
1233.646, 3.487244
1234.128, 3.530380
1234.610, 3.652008
1235.093, 3.554367
1235.575, 3.330170
1236.057, 3.404831
1236.539, 3.665710
1237.021, 3.683853
1237.503, 3.218857
1237.985, 2.989868
1238.467, 3.422546
1238.949, 4.003265
1239.432, 4.626480
1239.914, 5.119659
1240.396, 4.679413
1240.878, 3.644669
1241.360, 2.956070
1241.842, 2.921295
1242.324, 3.121643
1242.806, 3.798141
1243.288, 4.099869
1243.771, 3.373138
1244.253, 2.191757
1244.735, 2.126221
1245.217, 2.834427
1245.699, 3.232590
1246.181, 2.867966
1246.663, 2.521210
1247.145, 2.164215
1247.628, 2.070770
1248.110, 2.505554
1248.592, 3.138428
1249.074, 3.385086
1249.556, 3.363113
1250.038, 3.283905
1250.520, 3.192291
1251.002, 3.044800
1251.484, 2.811096
1251.967, 2.609283
1252.449, 2.443405
1252.931, 2.419281
1253.413, 2.835785
1253.895, 3.424866
1254.377, 3.696259
1254.859, 3.382263
1255.341, 3.234512
1255.823, 3.293564
1256.306, 3.333359
1256.788, 3.187073
1257.270, 2.957825
1257.752, 2.820999
1258.234, 2.716019
1258.716, 2.569366
1259.198, 2.255325
1259.680, 2.478348
1260.163, 3.344498
1260.645, 3.758545
1261.127, 2.643295
1261.609, 1.382233
1262.091, 1.389832
1262.573, 1.956024
1263.055, 2.046188
1263.537, 1.552383
1264.020, 1.372528
1264.502, 1.500565
1264.984, 1.651794
1265.466, 1.389954
1265.948, 1.435913
1266.430, 2.907150
1266.912, 4.446930
1267.394, 4.338196
1267.876, 2.558258
1268.359, 1.942062
1268.841, 2.369370
1269.323, 2.723465
1269.805, 2.297287
1270.287, 1.823120
1270.769, 1.544067
1271.251, 1.387131
1271.733, 1.368896
1272.215, 1.475494
1272.698, 1.364639
1273.180, 1.095413
1273.662, 0.8892060
1274.144, 0.7795260
1274.626, 0.8077550
1275.108, 1.161255
1275.590, 1.407623
1276.072, 1.066193
1276.555, 0.3711700
1277.037, 0.1319580
1277.519, 0.2658690
1278.001, 0.4772950
1278.483, 0.6602330
1278.965, 0.9328310
1279.447, 1.365799
1279.929, 1.719284
1280.411, 1.801468
1280.894, 1.684326
1281.376, 1.310501
1281.858, 0.8520050
1282.340, 0.6932220
1282.822, 1.114349
1283.304, 1.427551
1283.786, 1.660553
1284.268, 1.665756
1284.750, 1.001923
1285.233, 0.3425290
1285.715, 0.6941220
1286.197, 1.518768
1286.679, 1.862427
1287.161, 1.514374
1287.643, 1.376389
1288.125, 1.477234
1288.607, 1.544815
1289.090, 1.263260
1289.572, 0.9862060
1290.054, 0.9749600
1290.536, 1.068085
1291.018, 1.039307
1291.500, 0.8773650
1291.982, 0.8428650
1292.464, 0.9366150
1292.947, 1.057526
1293.429, 1.127335
1293.911, 1.248428
1294.393, 1.709641
1294.875, 1.947708
1295.357, 1.274139
1295.839, 2.6397999E-02
1296.321, 0.1992190
1296.803, 0.5001370
1297.286, 1.143127
1297.768, 1.281006
1298.250, 1.481644
1298.732, 1.222855
1299.214, 1.328003
1299.696, 0.8287810
1300.178, 0.1895750
1300.660, 0.0000000E+00
##END=



