##NAMES=Linekite
##RRUFFID=R141026
##IDEAL CHEMISTRY=K_2_Ca_3_[(U^6+^O_2_)(CO_3_)_3_]_2_&#183;8H_2_O
##LOCALITY=Svornost Mine, Jáchymov, Krušné Hory Mts, Karlovy Vary, Bohemia, Czech Republic
##OWNER=RRUFF
##SOURCE=William W. Pinch
##DESCRIPTION=Light green tabular crystals
##STATUS=The identification of this mineral has been confirmed only by single crystal X-ray diffraction.
##URL=rruff.info/R141026
93.84985, 0.0000000E+00
94.33197, 46.83398
94.81409, 101.0605
95.29620, 80.67773
95.77832, 54.90625
96.26044, 36.55078
96.74255, 27.05273
97.22467, 26.46289
97.70679, 36.59570
98.18890, 51.59766
98.67102, 63.75781
99.15314, 73.59570
99.63525, 74.72852
100.1174, 62.08203
100.5995, 41.18945
101.0816, 24.40039
101.5637, 10.48633
102.0458, 16.53125
102.5280, 23.75977
103.0101, 37.91992
103.4922, 58.26172
103.9743, 54.65430
104.4564, 50.46289
104.9385, 62.65039
105.4207, 83.18555
105.9028, 106.5527
106.3849, 130.7227
106.8670, 152.0430
107.3491, 161.3359
107.8312, 145.5078
108.3134, 103.9121
108.7955, 65.99414
109.2776, 34.03125
109.7597, 9.830078
110.2418, 2.767578
110.7239, 0.4687500
111.2061, 7.250000
111.6882, 1.902344
112.1703, 12.62305
112.6524, 21.88672
113.1345, 12.46484
113.6166, 13.98828
114.0988, 29.08203
114.5809, 17.64453
115.0630, 2.019531
115.5451, 5.509766
116.0272, 4.183594
116.5093, 0.5761720
116.9915, 2.666016
117.4736, 6.8359002E-02
117.9557, 0.8671880
118.4378, 0.9511720
118.9199, 0.4902340
119.4020, 4.625000
119.8842, 11.56836
120.3663, 19.48828
120.8484, 24.48242
121.3305, 17.94531
121.8126, 17.85547
122.2947, 30.43359
122.7769, 48.27539
123.2590, 62.18945
123.7411, 67.26172
124.2232, 64.84180
124.7053, 61.12891
125.1874, 52.72461
125.6696, 46.90234
126.1517, 49.21680
126.6338, 57.58398
127.1159, 62.48438
127.5980, 55.67578
128.0801, 41.48242
128.5623, 35.00195
129.0444, 42.70898
129.5265, 54.26367
130.0086, 58.88867
130.4907, 55.30273
130.9728, 51.35547
131.4550, 52.22070
131.9371, 55.86914
132.4192, 59.90234
132.9013, 62.71289
133.3834, 65.34375
133.8655, 70.81641
134.3477, 79.23047
134.8298, 91.00000
135.3119, 109.8184
135.7940, 131.6660
136.2761, 148.8398
136.7582, 153.6016
137.2404, 145.4316
137.7225, 146.1641
138.2046, 166.5117
138.6867, 186.9883
139.1688, 201.1055
139.6509, 209.5371
140.1331, 216.8906
140.6152, 228.0723
141.0973, 244.6152
141.5794, 260.0645
142.0615, 276.8066
142.5436, 291.1875
143.0258, 298.7305
143.5079, 299.5078
143.9900, 299.9082
144.4721, 308.8789
144.9542, 331.6562
145.4363, 352.2695
145.9185, 370.1855
146.4006, 384.6035
146.8827, 392.3535
147.3648, 392.0039
147.8469, 389.5645
148.3290, 395.5684
148.8112, 409.7871
149.2933, 425.6270
149.7754, 441.9707
150.2575, 458.2168
150.7396, 472.9707
151.2217, 486.4766
151.7039, 507.3730
152.1860, 522.2676
152.6681, 530.6113
153.1502, 537.9902
153.6323, 550.2109
154.1144, 567.6914
154.5966, 580.9512
155.0787, 584.5352
155.5608, 584.7246
156.0429, 585.1699
156.5250, 586.6074
157.0071, 588.9844
157.4893, 592.2324
157.9714, 596.4629
158.4535, 601.2578
158.9356, 608.9824
159.4177, 615.6406
159.8998, 619.0215
160.3820, 618.2637
160.8641, 612.8086
161.3462, 600.7559
161.8283, 574.8516
162.3104, 552.1973
162.7925, 538.5566
163.2747, 527.6660
163.7568, 511.4688
164.2389, 485.9434
164.7210, 454.2344
165.2031, 429.8789
165.6852, 421.4746
166.1674, 410.5371
166.6495, 392.5547
167.1316, 370.1914
167.6137, 347.8887
168.0958, 327.8398
168.5779, 311.1270
169.0601, 298.8027
169.5422, 293.7031
170.0243, 287.4668
170.5064, 277.6934
170.9885, 265.7012
171.4706, 252.5918
171.9528, 236.3262
172.4349, 217.7988
172.9170, 202.2949
173.3991, 190.9004
173.8812, 181.8906
174.3633, 174.6738
174.8455, 169.0918
175.3276, 161.9609
175.8097, 149.0703
176.2918, 133.9473
176.7739, 122.8262
177.2560, 117.4238
177.7382, 116.4492
178.2203, 119.5391
178.7024, 128.3848
179.1845, 135.6953
179.6666, 138.2949
180.1487, 137.3027
180.6309, 133.3633
181.1130, 125.9551
181.5951, 116.0352
182.0772, 105.8418
182.5593, 94.92383
183.0414, 84.53516
183.5236, 71.91016
184.0057, 60.49023
184.4878, 55.96484
184.9699, 63.13477
185.4520, 79.41602
185.9341, 89.00195
186.4163, 90.47070
186.8984, 85.55664
187.3805, 68.97266
187.8626, 46.83594
188.3447, 29.16211
188.8268, 23.28125
189.3090, 28.89258
189.7911, 33.55078
190.2732, 40.03711
190.7553, 43.03711
191.2374, 38.48047
191.7195, 29.13672
192.2017, 21.15039
192.6838, 19.66797
193.1659, 25.12305
193.6480, 26.30469
194.1301, 23.40430
194.6122, 17.22266
195.0944, 4.781250
195.5765, 11.64258
196.0586, 25.05859
196.5407, 29.43164
197.0228, 24.33594
197.5049, 20.48828
197.9871, 20.23242
198.4692, 19.48047
198.9513, 14.81445
199.4334, 6.576172
199.9155, 1.179688
200.3976, 4.832031
200.8798, 4.523438
201.3619, 5.457031
201.8440, 6.943359
202.3261, 10.33008
202.8082, 19.28711
203.2903, 34.41016
203.7725, 46.38281
204.2546, 46.42383
204.7367, 37.41797
205.2188, 27.12500
205.7009, 14.04102
206.1830, 1.724609
206.6652, 4.453125
207.1473, 3.417969
207.6294, 0.1601560
208.1115, 3.343750
208.5936, 6.906250
209.0757, 12.37891
209.5579, 22.26367
210.0400, 33.55859
210.5221, 39.43164
211.0042, 37.25586
211.4863, 35.38867
211.9685, 38.01172
212.4506, 43.45117
212.9327, 49.55664
213.4148, 55.32227
213.8969, 60.97070
214.3790, 67.54688
214.8612, 76.81445
215.3433, 83.91406
215.8254, 85.08984
216.3075, 83.89258
216.7896, 85.67578
217.2717, 94.27734
217.7539, 107.5137
218.2360, 114.9707
218.7181, 109.9648
219.2002, 107.9844
219.6823, 114.3770
220.1644, 125.5996
220.6466, 136.9668
221.1287, 145.8418
221.6108, 152.3418
222.0929, 157.0293
222.5750, 158.4629
223.0571, 159.4043
223.5393, 159.6621
224.0214, 159.8730
224.5035, 160.5156
224.9856, 161.7402
225.4677, 163.9961
225.9498, 170.3184
226.4320, 188.3477
226.9141, 202.1973
227.3962, 206.0332
227.8783, 204.4980
228.3604, 205.0840
228.8425, 212.2109
229.3247, 224.5195
229.8068, 234.2480
230.2889, 242.5293
230.7710, 247.1816
231.2531, 243.9902
231.7352, 237.0957
232.2174, 234.0312
232.6995, 239.1934
233.1816, 250.3574
233.6637, 257.7520
234.1458, 258.4414
234.6279, 259.3223
235.1101, 262.6270
235.5922, 267.2637
236.0743, 271.4844
236.5564, 274.8086
237.0385, 276.5742
237.5206, 274.1934
238.0028, 264.5273
238.4849, 256.5918
238.9670, 254.4160
239.4491, 256.3555
239.9312, 258.6758
240.4133, 259.9941
240.8955, 260.7500
241.3776, 261.2852
241.8597, 260.0898
242.3418, 262.2305
242.8239, 273.0195
243.3060, 289.2090
243.7882, 301.4688
244.2703, 305.5859
244.7524, 305.5449
245.2345, 309.2129
245.7166, 318.2949
246.1987, 322.6699
246.6809, 313.4141
247.1630, 294.6895
247.6451, 280.5879
248.1272, 276.7324
248.6093, 276.6641
249.0914, 272.7051
249.5736, 264.9219
250.0557, 256.0078
250.5378, 245.6992
251.0199, 235.0469
251.5020, 229.1797
251.9841, 232.7773
252.4663, 236.0918
252.9484, 229.9199
253.4305, 214.9941
253.9126, 198.1738
254.3947, 181.4355
254.8768, 165.9316
255.3590, 156.8164
255.8411, 156.9766
256.3232, 160.6191
256.8053, 165.3594
257.2874, 170.3730
257.7695, 172.4219
258.2516, 168.4277
258.7338, 159.3340
259.2159, 150.4297
259.6980, 142.1289
260.1801, 133.6152
260.6622, 124.1992
261.1443, 114.2832
261.6265, 104.5488
262.1086, 94.36133
262.5907, 84.58398
263.0728, 80.45312
263.5549, 87.11523
264.0370, 91.28320
264.5192, 84.63086
265.0013, 72.59766
265.4834, 64.59766
265.9655, 67.51562
266.4476, 76.90039
266.9297, 75.90039
267.4119, 56.74414
267.8940, 39.65430
268.3761, 29.61133
268.8582, 25.32422
269.3403, 25.96484
269.8224, 32.00195
270.3046, 40.94336
270.7867, 45.40039
271.2688, 41.89844
271.7509, 40.25977
272.2330, 44.16602
272.7151, 49.95312
273.1973, 53.74219
273.6794, 53.91016
274.1615, 52.11523
274.6436, 51.82617
275.1257, 53.71289
275.6078, 55.53125
276.0900, 56.38672
276.5721, 57.24609
277.0542, 58.91016
277.5363, 61.53516
278.0184, 64.87891
278.5005, 69.24609
278.9827, 77.60547
279.4648, 79.90039
279.9469, 70.33984
280.4290, 59.43164
280.9111, 54.58789
281.3932, 56.93945
281.8754, 62.24414
282.3575, 65.26367
282.8396, 65.61523
283.3217, 64.72266
283.8038, 61.25586
284.2859, 57.95312
284.7681, 56.14062
285.2502, 56.20312
285.7323, 58.06836
286.2144, 62.15039
286.6965, 69.68359
287.1786, 74.17773
287.6608, 74.52344
288.1429, 73.11133
288.6250, 70.35938
289.1071, 67.01758
289.5892, 62.77148
290.0714, 57.11719
290.5535, 50.43555
291.0356, 47.63867
291.5177, 51.69141
291.9998, 56.65430
292.4819, 62.97266
292.9641, 69.27344
293.4462, 72.92188
293.9283, 71.73438
294.4104, 66.69922
294.8925, 65.00195
295.3746, 70.77344
295.8568, 75.98828
296.3389, 78.98047
296.8210, 80.73438
297.3031, 82.67578
297.7852, 85.45312
298.2673, 88.78711
298.7495, 91.08789
299.2316, 91.28125
299.7137, 91.80469
300.1958, 93.15234
300.6779, 94.62305
301.1600, 95.58008
301.6422, 95.55273
302.1243, 94.23828
302.6064, 91.74609
303.0885, 87.30664
303.5706, 83.90430
304.0527, 79.44141
304.5349, 77.04492
305.0170, 81.65625
305.4991, 92.87500
305.9812, 103.6895
306.4633, 105.2266
306.9454, 94.52344
307.4276, 84.90820
307.9097, 75.33984
308.3918, 67.83008
308.8739, 64.93750
309.3560, 65.70312
309.8381, 66.18555
310.3203, 62.41406
310.8024, 54.00195
311.2845, 49.90625
311.7666, 51.56250
312.2487, 55.44727
312.7308, 64.12500
313.2130, 74.75195
313.6951, 80.40234
314.1772, 75.75391
314.6593, 62.41602
315.1414, 55.62695
315.6235, 59.40820
316.1057, 65.43945
316.5878, 74.95898
317.0699, 85.43945
317.5520, 93.58203
318.0341, 97.85352
318.5162, 99.50195
318.9984, 101.9746
319.4805, 105.1621
319.9626, 108.6484
320.4447, 114.4453
320.9268, 119.6035
321.4089, 121.0684
321.8911, 118.2227
322.3732, 113.8828
322.8553, 111.6855
323.3374, 111.2969
323.8195, 112.3945
324.3016, 116.3965
324.7838, 121.1953
325.2659, 127.0469
325.7480, 132.6621
326.2301, 134.8105
326.7122, 130.3574
327.1943, 118.6250
327.6765, 107.0840
328.1586, 92.84375
328.6407, 81.49414
329.1228, 75.80273
329.6049, 74.45703
330.0870, 74.13281
330.5692, 72.04297
331.0513, 68.50781
331.5334, 67.75781
332.0155, 71.67773
332.4976, 76.54297
332.9797, 84.88086
333.4619, 93.05664
333.9440, 96.30664
334.4261, 92.51758
334.9082, 84.05078
335.3904, 76.34375
335.8725, 72.81445
336.3546, 64.95312
336.8367, 47.56250
337.3188, 29.39453
337.8009, 17.82617
338.2831, 14.36719
338.7652, 15.26758
339.2473, 16.00781
339.7294, 16.91602
340.2115, 16.58984
340.6936, 15.49414
341.1758, 12.71875
341.6579, 5.197266
342.1400, 5.175781
342.6221, 12.47461
343.1042, 11.24219
343.5863, 1.525391
344.0685, 7.246094
344.5506, 19.79102
345.0327, 25.81641
345.5148, 16.86523
345.9969, 0.8632810
346.4790, 9.412109
346.9612, 6.722656
347.4433, 4.736328
347.9254, 11.73438
348.4075, 13.52148
348.8896, 11.69531
349.3717, 2.933594
349.8539, 7.070313
350.3360, 13.90820
350.8181, 16.05469
351.3002, 14.30078
351.7823, 9.603516
352.2644, 1.603516
352.7466, 8.492188
353.2287, 29.97656
353.7108, 45.99023
354.1929, 43.61523
354.6750, 25.54492
355.1571, 6.464844
355.6393, 1.1719000E-02
356.1214, 6.070313
356.6035, 9.421875
357.0856, 9.013672
357.5677, 7.121094
358.0498, 2.599609
358.5320, 2.490234
359.0141, 4.101563
359.4962, 1.271484
359.9783, 9.839844
360.4604, 10.48438
360.9425, 1.691406
361.4247, 10.50391
361.9068, 10.42578
362.3889, 5.677734
362.8710, 0.8261720
363.3531, 8.339844
363.8352, 16.09180
364.3174, 23.12500
364.7995, 29.32031
365.2816, 35.62695
365.7637, 43.71094
366.2458, 50.40430
366.7279, 53.79883
367.2101, 53.94531
367.6922, 51.82812
368.1743, 48.80859
368.6564, 44.26758
369.1385, 34.48242
369.6206, 16.02344
370.1028, 1.470703
370.5849, 13.91992
371.0670, 21.38477
371.5491, 22.77734
372.0312, 15.51758
372.5133, 4.361328
372.9955, 5.302734
373.4776, 13.78320
373.9597, 17.31055
374.4418, 10.93359
374.9239, 0.3710940
375.4060, 7.638672
375.8882, 12.79297
376.3703, 14.57812
376.8524, 11.70312
377.3345, 4.978516
377.8166, 3.277344
378.2987, 14.58398
378.7809, 23.37500
379.2630, 20.52148
379.7451, 7.654297
380.2272, 0.7890630
380.7093, 4.841797
381.1914, 15.27344
381.6736, 17.03125
382.1557, 8.810547
382.6378, 0.6367190
383.1199, 0.4355470
383.6020, 6.412109
384.0841, 9.166016
384.5663, 6.533203
385.0484, 2.582031
385.5305, 1.289063
386.0126, 4.738281
386.4947, 7.320313
386.9768, 9.554688
387.4590, 9.462891
387.9411, 0.6640630
388.4232, 21.51172
388.9053, 36.93555
389.3874, 35.93555
389.8695, 28.80273
390.3517, 28.29102
390.8338, 36.50977
391.3159, 45.16211
391.7980, 44.97266
392.2801, 34.25195
392.7622, 30.14258
393.2444, 39.95117
393.7265, 48.87500
394.2086, 48.45508
394.6907, 40.87305
395.1728, 32.59570
395.6549, 27.42383
396.1371, 24.60742
396.6192, 21.56055
397.1013, 16.67578
397.5834, 13.60938
398.0655, 12.73242
398.5476, 13.77344
399.0298, 17.60742
399.5119, 24.02734
399.9940, 29.79492
400.4761, 30.36133
400.9582, 23.71680
401.4403, 20.96289
401.9225, 23.52148
402.4046, 27.43555
402.8867, 32.76562
403.3688, 38.05469
403.8509, 40.31055
404.3330, 36.78320
404.8152, 28.91211
405.2973, 21.72656
405.7794, 10.89258
406.2615, 6.646484
406.7436, 15.62500
407.2257, 28.89648
407.7079, 37.27344
408.1900, 38.11719
408.6721, 35.04883
409.1542, 31.91406
409.6363, 28.09375
410.1184, 28.44336
410.6006, 38.63086
411.0827, 47.96484
411.5648, 50.35547
412.0469, 47.08594
412.5290, 43.53711
413.0111, 44.69922
413.4933, 47.88867
413.9754, 43.92188
414.4575, 29.09180
414.9396, 16.75195
415.4217, 11.66016
415.9038, 13.24414
416.3860, 23.23828
416.8681, 44.33984
417.3502, 67.30469
417.8323, 83.77344
418.3144, 93.81836
418.7965, 99.39844
419.2787, 100.1582
419.7608, 97.74609
420.2429, 93.37305
420.7250, 87.25977
421.2071, 80.48242
421.6892, 69.73633
422.1714, 59.80078
422.6535, 59.34961
423.1356, 69.00781
423.6177, 77.52344
424.0998, 76.37500
424.5819, 68.08398
425.0641, 64.48438
425.5462, 66.69922
426.0283, 72.09375
426.5104, 83.25195
426.9925, 96.43164
427.4746, 103.2852
427.9568, 100.1016
428.4389, 92.77930
428.9210, 91.26758
429.4031, 100.9043
429.8852, 102.6289
430.3673, 87.72656
430.8495, 72.10547
431.3316, 66.46680
431.8137, 70.34570
432.2958, 77.89453
432.7779, 85.31055
433.2600, 92.05859
433.7422, 95.12695
434.2243, 89.11133
434.7064, 86.34570
435.1885, 90.78906
435.6706, 98.30859
436.1527, 104.3242
436.6349, 107.2480
437.1170, 108.4336
437.5991, 108.8262
438.0812, 106.5742
438.5633, 110.3457
439.0454, 127.2266
439.5276, 143.2793
440.0097, 156.2539
440.4918, 163.6855
440.9739, 161.1504
441.4560, 143.6250
441.9381, 117.3848
442.4203, 100.8867
442.9024, 96.84180
443.3845, 95.60547
443.8666, 99.63867
444.3487, 102.2363
444.8308, 94.92773
445.3130, 76.56641
445.7951, 61.27930
446.2772, 63.45508
446.7593, 79.05469
447.2414, 90.15820
447.7235, 94.28711
448.2057, 94.87109
448.6878, 91.93359
449.1699, 87.35547
449.6520, 86.23828
450.1341, 92.91211
450.6162, 100.5957
451.0984, 101.9121
451.5805, 97.93555
452.0626, 95.78125
452.5447, 98.73633
453.0268, 104.2539
453.5089, 107.0430
453.9911, 105.9844
454.4732, 107.3281
454.9553, 116.2539
455.4374, 125.9160
455.9195, 127.9707
456.4016, 122.1855
456.8838, 115.3184
457.3659, 112.2129
457.8480, 112.7969
458.3301, 116.7266
458.8122, 131.3574
459.2943, 140.0176
459.7765, 134.4922
460.2586, 122.2598
460.7407, 113.3848
461.2228, 111.2305
461.7049, 111.5391
462.1870, 107.3574
462.6692, 95.86133
463.1513, 89.44141
463.6334, 91.48438
464.1155, 95.00977
464.5976, 99.08984
465.0797, 102.5254
465.5619, 103.1094
466.0440, 99.07617
466.5261, 92.64844
467.0082, 90.42969
467.4903, 93.96875
467.9724, 97.33594
468.4546, 98.08984
468.9367, 98.70703
469.4188, 101.7656
469.9009, 107.1758
470.3830, 111.1875
470.8651, 109.5195
471.3473, 103.8652
471.8294, 101.0645
472.3115, 102.5137
472.7936, 103.1445
473.2757, 97.17578
473.7578, 88.60547
474.2400, 85.35352
474.7221, 90.53516
475.2042, 97.68164
475.6863, 102.3770
476.1684, 105.5664
476.6505, 110.9316
477.1327, 120.5684
477.6148, 128.8125
478.0969, 127.2383
478.5790, 114.0781
479.0611, 104.8223
479.5432, 106.7656
480.0254, 107.3828
480.5075, 94.33398
480.9896, 72.65430
481.4717, 58.56641
481.9538, 61.47070
482.4359, 75.47852
482.9181, 83.51758
483.4002, 79.72852
483.8823, 78.30273
484.3644, 82.10938
484.8465, 86.11523
485.3286, 85.99414
485.8108, 82.01953
486.2929, 77.61133
486.7750, 75.00977
487.2571, 74.53320
487.7392, 79.47266
488.2213, 94.61523
488.7035, 107.0840
489.1856, 113.1445
489.6677, 115.2363
490.1498, 115.3027
490.6319, 113.7930
491.1140, 111.5781
491.5962, 109.1621
492.0783, 106.6455
492.5604, 105.5244
493.0425, 106.8916
493.5246, 107.9219
494.0067, 106.9541
494.4889, 104.1494
494.9710, 99.09570
495.4531, 88.78809
495.9352, 79.69238
496.4173, 79.21289
496.8994, 84.80566
497.3816, 86.27637
497.8637, 79.69043
498.3458, 69.92285
498.8279, 63.63379
499.3100, 61.40137
499.7921, 61.64551
500.2743, 68.96777
500.7564, 74.44238
501.2385, 70.29590
501.7206, 58.97852
502.2027, 48.83594
502.6848, 44.39160
503.1670, 43.34570
503.6491, 39.63770
504.1312, 27.91406
504.6133, 22.84766
505.0954, 28.56738
505.5775, 36.83496
506.0597, 43.82617
506.5418, 49.04883
507.0239, 51.88184
507.5060, 51.46680
507.9881, 48.42383
508.4702, 45.39258
508.9524, 41.35254
509.4345, 39.73438
509.9166, 44.18848
510.3987, 50.16406
510.8808, 53.98047
511.3629, 55.07715
511.8451, 54.14746
512.3271, 51.39941
512.8093, 47.08301
513.2914, 41.74023
513.7735, 35.12891
514.2556, 28.85938
514.7377, 22.59375
515.2198, 17.86914
515.7020, 19.07520
516.1841, 30.31348
516.6662, 41.65332
517.1483, 49.22461
517.6304, 53.84668
518.1125, 57.25098
518.5947, 59.79590
519.0768, 59.50293
519.5589, 53.65137
520.0410, 41.25977
520.5231, 31.90039
521.0052, 26.19141
521.4874, 22.27734
521.9695, 19.32422
522.4516, 17.82227
522.9337, 19.53223
523.4158, 24.89355
523.8979, 30.87500
524.3801, 32.49902
524.8622, 28.75293
525.3443, 26.24902
525.8264, 25.86426
526.3085, 26.13281
526.7906, 27.83105
527.2728, 29.49121
527.7549, 27.92285
528.2370, 20.55566
528.7191, 12.14844
529.2012, 9.413086
529.6833, 11.89062
530.1655, 13.48047
530.6476, 12.54785
531.1297, 10.31738
531.6118, 7.821289
532.0939, 5.097656
532.5760, 2.557617
533.0582, 1.778320
533.5403, 4.085938
534.0224, 0.2187500
534.5045, 9.287109
534.9866, 17.39551
535.4688, 22.08789
535.9509, 24.63965
536.4330, 27.45312
536.9151, 32.07812
537.3972, 33.25684
537.8793, 27.84668
538.3615, 22.27637
538.8436, 20.07617
539.3257, 20.63672
539.8078, 21.71875
540.2899, 22.03027
540.7720, 22.12305
541.2542, 23.25488
541.7363, 25.55762
542.2184, 28.11328
542.7005, 28.31738
543.1826, 30.81348
543.6647, 41.26855
544.1469, 57.10449
544.6290, 68.30176
545.1111, 68.47754
545.5932, 62.12500
546.0753, 54.55273
546.5574, 45.90820
547.0396, 39.35547
547.5217, 36.35352
548.0038, 35.78320
548.4859, 36.75195
548.9680, 39.82129
549.4501, 40.20020
549.9323, 35.30859
550.4144, 28.88867
550.8965, 22.55664
551.3786, 17.20508
551.8607, 15.49414
552.3428, 19.30273
552.8250, 25.20312
553.3071, 24.18359
553.7892, 9.076172
554.2713, 0.1396480
554.7534, 1.973633
555.2355, 5.080078
555.7177, 4.394531
556.1998, 0.3681640
556.6819, 4.666992
557.1640, 9.712891
557.6461, 13.92090
558.1282, 14.27344
558.6104, 9.742188
559.0925, 8.416992
559.5746, 15.43848
560.0567, 23.14844
560.5388, 24.18164
561.0209, 19.37012
561.5031, 14.98926
561.9852, 16.12891
562.4673, 16.73926
562.9494, 8.501953
563.4315, 6.628906
563.9136, 18.89746
564.3958, 24.03613
564.8779, 24.94336
565.3600, 26.32031
565.8421, 28.36621
566.3242, 30.37988
566.8063, 32.98242
567.2885, 34.85254
567.7706, 34.54785
568.2527, 32.91309
568.7348, 31.75000
569.2169, 31.88477
569.6990, 33.28809
570.1812, 36.01953
570.6633, 40.40332
571.1454, 45.19922
571.6275, 52.95215
572.1096, 58.15625
572.5917, 56.68066
573.0739, 50.77051
573.5560, 45.53906
574.0381, 42.68750
574.5202, 41.72266
575.0023, 43.09668
575.4844, 46.26758
575.9666, 47.89648
576.4487, 46.65430
576.9308, 45.28906
577.4129, 47.14160
577.8950, 52.27246
578.3771, 55.20898
578.8593, 52.83691
579.3414, 51.37012
579.8235, 54.22070
580.3056, 59.58008
580.7877, 64.44824
581.2698, 67.90234
581.7520, 71.37402
582.2341, 77.57324
582.7162, 87.44141
583.1984, 90.05762
583.6805, 76.94238
584.1626, 67.18359
584.6447, 69.40332
585.1268, 76.09766
585.6089, 77.57715
586.0911, 71.22949
586.5732, 63.61816
587.0553, 60.50000
587.5374, 61.86719
588.0195, 65.38086
588.5016, 71.21777
588.9838, 74.26855
589.4659, 70.84277
589.9480, 62.40430
590.4301, 53.31348
590.9122, 40.06543
591.3943, 33.10254
591.8765, 40.80273
592.3586, 53.50977
592.8407, 60.01953
593.3228, 60.25098
593.8049, 61.67969
594.2870, 71.06152
594.7692, 84.54980
595.2513, 83.79590
595.7334, 55.70312
596.2155, 37.49121
596.6976, 37.13672
597.1797, 43.29395
597.6619, 49.77344
598.1440, 55.74121
598.6261, 62.03711
599.1082, 69.70410
599.5903, 77.45020
600.0724, 81.97363
600.5546, 83.15625
601.0367, 87.51172
601.5188, 100.0684
602.0009, 111.9844
602.4830, 109.5186
602.9651, 93.11230
603.4473, 79.80664
603.9294, 72.63379
604.4115, 68.57129
604.8936, 67.79492
605.3757, 68.63965
605.8578, 66.98730
606.3400, 61.72559
606.8221, 55.89746
607.3042, 53.68555
607.7863, 55.41113
608.2684, 59.90723
608.7505, 74.44922
609.2327, 83.37793
609.7148, 78.64746
610.1969, 67.59863
610.6790, 59.08105
611.1611, 55.53711
611.6432, 53.98340
612.1254, 51.80176
612.6075, 49.32422
613.0896, 48.19629
613.5717, 48.86426
614.0538, 48.68555
614.5359, 44.61328
615.0181, 38.32617
615.5002, 36.61133
615.9823, 41.42383
616.4644, 46.95801
616.9465, 53.60547
617.4286, 58.30957
617.9108, 58.02637
618.3929, 53.87500
618.8750, 49.29590
619.3571, 46.17285
619.8392, 44.30664
620.3214, 44.74414
620.8035, 50.05762
621.2856, 52.33398
621.7677, 45.96777
622.2498, 39.73926
622.7319, 40.18164
623.2141, 44.50684
623.6962, 44.79785
624.1783, 35.91406
624.6604, 26.03223
625.1425, 22.60742
625.6246, 24.70020
626.1068, 30.99219
626.5889, 41.93457
627.0710, 49.56543
627.5531, 44.68359
628.0352, 28.21875
628.5173, 20.26758
628.9995, 25.92871
629.4816, 32.34863
629.9637, 36.58008
630.4458, 40.41699
630.9279, 46.86621
631.4100, 55.38184
631.8922, 61.39355
632.3743, 60.41211
632.8564, 54.42773
633.3385, 50.60352
633.8206, 48.76953
634.3027, 49.64941
634.7849, 56.21582
635.2670, 62.90820
635.7491, 63.84668
636.2312, 59.54102
636.7133, 55.68945
637.1954, 53.15332
637.6776, 52.53516
638.1597, 57.11133
638.6418, 63.85352
639.1239, 65.26172
639.6060, 58.96387
640.0881, 47.73340
640.5703, 34.05762
641.0524, 17.22656
641.5345, 8.040039
642.0166, 12.80469
642.4987, 18.38477
642.9808, 26.88672
643.4630, 32.34277
643.9451, 25.52148
644.4272, 6.332031
644.9093, 10.82812
645.3914, 12.08496
645.8735, 3.601563
646.3557, 0.9560550
646.8378, 4.571289
647.3199, 6.617188
647.8020, 3.144531
648.2841, 2.267578
648.7662, 3.060547
649.2484, 2.263672
649.7305, 3.675781
650.2126, 5.202148
650.6947, 12.49805
651.1768, 7.391602
651.6589, 2.785156
652.1411, 3.125977
652.6232, 11.08789
653.1053, 28.77246
653.5874, 35.31348
654.0695, 30.59082
654.5516, 26.47754
655.0338, 23.00879
655.5159, 20.28711
655.9980, 19.41113
656.4801, 18.78027
656.9622, 15.39551
657.4443, 8.282227
657.9265, 5.495117
658.4086, 16.10645
658.8907, 29.10645
659.3728, 30.69238
659.8549, 22.90430
660.3370, 17.78223
660.8192, 21.11914
661.3013, 26.91211
661.7834, 23.78711
662.2655, 7.006836
662.7476, 1.077148
663.2297, 6.884766
663.7119, 15.58398
664.1940, 23.25781
664.6761, 27.78906
665.1582, 25.34570
665.6403, 14.90039
666.1224, 4.211914
666.6046, 0.2011720
667.0867, 0.6064450
667.5688, 4.6875000E-02
668.0509, 1.688477
668.5330, 3.210938
669.0151, 3.910156
669.4973, 3.727539
669.9794, 2.235352
670.4615, 1.991211
670.9436, 3.591797
671.4257, 1.262695
671.9078, 4.965820
672.3900, 2.046875
672.8721, 4.203125
673.3542, 7.596680
673.8363, 5.966797
674.3184, 2.933594
674.8005, 0.8281250
675.2827, 0.2001950
675.7648, 9.650391
676.2469, 33.55176
676.7290, 52.32422
677.2111, 56.19531
677.6932, 49.32812
678.1754, 37.40723
678.6575, 18.00684
679.1396, 6.879883
679.6217, 13.42578
680.1038, 24.35742
680.5859, 31.78320
681.0681, 35.29297
681.5502, 35.04980
682.0323, 31.31836
682.5144, 26.43359
682.9965, 23.57617
683.4786, 22.79199
683.9608, 24.47949
684.4429, 30.67090
684.9250, 35.52832
685.4071, 35.43945
685.8892, 33.37012
686.3713, 31.95312
686.8535, 31.41406
687.3356, 32.50391
687.8177, 37.34863
688.2998, 42.53711
688.7819, 44.43164
689.2640, 43.57227
689.7462, 41.89746
690.2283, 40.06641
690.7104, 39.11035
691.1925, 40.80957
691.6746, 45.64258
692.1567, 49.01172
692.6389, 51.11523
693.1210, 51.39453
693.6031, 47.38770
694.0852, 43.08691
694.5673, 43.61035
695.0494, 49.17773
695.5316, 53.37207
696.0137, 51.20898
696.4958, 46.41113
696.9779, 44.79883
697.4600, 45.33105
697.9421, 41.92871
698.4243, 32.18945
698.9064, 20.50391
699.3885, 12.06348
699.8706, 6.875977
700.3527, 5.556641
700.8348, 12.88574
701.3170, 18.24902
701.7991, 19.52930
702.2812, 18.11035
702.7633, 13.48730
703.2454, 7.138672
703.7275, 2.497070
704.2097, 0.5830080
704.6918, 0.4472660
705.1739, 9.062500
705.6560, 26.33496
706.1381, 38.69531
706.6202, 42.02246
707.1024, 40.64941
707.5845, 39.20410
708.0666, 38.02637
708.5487, 34.91797
709.0308, 26.79883
709.5129, 20.35938
709.9951, 14.85742
710.4772, 13.42773
710.9593, 20.67188
711.4414, 34.36230
711.9235, 46.19141
712.4056, 51.78418
712.8878, 52.20117
713.3699, 46.42773
713.8520, 36.10547
714.3341, 33.16016
714.8162, 40.95801
715.2983, 50.02441
715.7805, 52.75879
716.2626, 50.19922
716.7447, 48.71094
717.2268, 50.91309
717.7089, 51.23926
718.1910, 45.26172
718.6732, 40.93457
719.1553, 45.70801
719.6374, 56.67285
720.1195, 65.39746
720.6016, 67.51660
721.0837, 68.36914
721.5659, 75.21387
722.0480, 86.88184
722.5301, 96.81934
723.0122, 104.2402
723.4943, 110.0391
723.9764, 114.1543
724.4586, 116.9756
724.9407, 119.4551
725.4228, 119.0283
725.9049, 124.0322
726.3870, 139.7510
726.8691, 156.5264
727.3513, 169.8867
727.8334, 180.4805
728.3155, 189.8779
728.7976, 198.4248
729.2797, 206.2744
729.7618, 212.7402
730.2440, 219.1094
730.7261, 228.8809
731.2082, 242.1201
731.6903, 256.0859
732.1724, 269.6631
732.6545, 283.5312
733.1367, 299.5020
733.6188, 319.0488
734.1009, 332.1455
734.5830, 331.6289
735.0651, 333.1152
735.5472, 344.3887
736.0294, 359.0498
736.5115, 370.2441
736.9936, 376.6172
737.4757, 379.7812
737.9578, 379.8447
738.4399, 378.4150
738.9221, 377.8633
739.4042, 378.3252
739.8863, 383.4375
740.3684, 395.5010
740.8505, 406.7500
741.3326, 409.7793
741.8148, 405.2109
742.2969, 399.7637
742.7790, 391.3701
743.2611, 385.0205
743.7432, 383.4893
744.2253, 382.4551
744.7075, 378.9326
745.1896, 373.0996
745.6717, 366.2031
746.1538, 358.6436
746.6359, 351.0781
747.1180, 344.0088
747.6002, 337.5840
748.0823, 332.6924
748.5644, 329.5508
749.0465, 325.4219
749.5286, 319.1680
750.0107, 309.9600
750.4929, 295.1055
750.9750, 269.4189
751.4571, 250.8945
751.9392, 241.0781
752.4213, 236.1152
752.9034, 239.6787
753.3856, 244.7061
753.8677, 240.9893
754.3498, 226.5293
754.8319, 210.5117
755.3140, 200.1621
755.7961, 192.3672
756.2783, 180.6182
756.7604, 166.0967
757.2425, 155.9141
757.7246, 152.6445
758.2067, 153.2373
758.6888, 155.0732
759.1710, 158.0586
759.6531, 156.4551
760.1352, 147.0908
760.6173, 137.7598
761.0994, 129.4668
761.5815, 121.6201
762.0637, 113.7627
762.5458, 105.9678
763.0279, 98.75000
763.5100, 93.77441
763.9921, 86.67578
764.4742, 70.51660
764.9564, 50.82422
765.4385, 38.64062
765.9206, 34.54004
766.4027, 31.24023
766.8848, 23.88281
767.3669, 15.79688
767.8491, 16.25391
768.3312, 29.60059
768.8133, 35.31250
769.2954, 30.08594
769.7775, 21.28320
770.2596, 8.916016
770.7418, 3.596680
771.2239, 11.55859
771.7060, 14.35742
772.1881, 15.06738
772.6702, 14.49414
773.1523, 12.57031
773.6345, 7.429688
774.1166, 1.260742
774.5987, 1.272461
775.0808, 0.8808590
775.5629, 4.610352
776.0450, 7.068359
776.5272, 8.276367
777.0093, 8.138672
777.4914, 6.359375
777.9735, 4.558594
778.4556, 2.772461
778.9377, 1.572266
779.4199, 1.717773
779.9020, 2.967773
780.3841, 4.275391
780.8662, 6.523438
781.3483, 7.547852
781.8304, 6.532227
782.3126, 4.474609
782.7947, 2.044922
783.2768, 0.5986330
783.7589, 3.228516
784.2410, 5.714844
784.7231, 8.869141
785.2053, 14.51953
785.6874, 21.73926
786.1695, 26.69336
786.6516, 29.15527
787.1337, 30.72363
787.6158, 31.87012
788.0980, 33.25488
788.5801, 36.19434
789.0622, 41.41211
789.5443, 44.06641
790.0264, 40.15723
790.5085, 39.03418
790.9907, 44.05957
791.4728, 51.80273
791.9549, 60.46973
792.4370, 69.01660
792.9191, 74.78906
793.4012, 74.99805
793.8834, 74.11328
794.3655, 75.55469
794.8476, 79.35449
795.3297, 87.32324
795.8118, 98.83594
796.2939, 106.6670
796.7761, 105.3164
797.2582, 100.4033
797.7403, 107.0879
798.2224, 130.1846
798.7045, 143.9307
799.1866, 142.2041
799.6688, 140.0059
800.1509, 142.6348
800.6330, 149.4502
801.1151, 160.2812
801.5972, 175.2793
802.0793, 192.9648
802.5615, 213.8691
803.0436, 236.6104
803.5257, 260.4395
804.0078, 285.5703
804.4899, 313.2393
804.9720, 342.9199
805.4542, 370.7119
805.9363, 392.2812
806.4184, 411.9805
806.9005, 438.9990
807.3826, 473.1768
807.8647, 513.0547
808.3469, 558.9102
808.8290, 607.5098
809.3111, 656.2900
809.7932, 706.2910
810.2753, 760.2354
810.7574, 817.7373
811.2396, 881.0850
811.7217, 950.4609
812.2038, 1025.521
812.6859, 1108.941
813.1680, 1197.117
813.6501, 1284.359
814.1323, 1370.229
814.6144, 1459.585
815.0965, 1556.238
815.5786, 1657.468
816.0607, 1757.432
816.5428, 1859.155
817.0250, 1971.229
817.5071, 2095.311
817.9892, 2225.554
818.4713, 2357.493
818.9534, 2492.409
819.4355, 2635.368
819.9177, 2788.290
820.3998, 2941.373
820.8819, 3094.690
821.3640, 3246.451
821.8461, 3403.760
822.3282, 3555.551
822.8104, 3683.492
823.2925, 3788.587
823.7746, 3865.203
824.2567, 3916.080
824.7388, 3934.976
825.2209, 3921.467
825.7031, 3872.578
826.1852, 3779.863
826.6673, 3644.850
827.1494, 3484.392
827.6315, 3307.062
828.1136, 3118.010
828.5958, 2921.726
829.0779, 2718.687
829.5600, 2507.730
830.0421, 2288.312
830.5242, 2073.047
831.0063, 1869.853
831.4885, 1679.521
831.9706, 1506.258
832.4527, 1351.903
832.9348, 1206.942
833.4169, 1065.585
833.8990, 941.1748
834.3812, 841.3916
834.8633, 758.8330
835.3454, 683.2051
835.8275, 614.0166
836.3096, 557.4014
836.7917, 523.3613
837.2739, 493.5859
837.7560, 455.6455
838.2381, 415.6162
838.7202, 382.0234
839.2023, 356.0029
839.6844, 334.3223
840.1666, 315.6533
840.6487, 297.8457
841.1308, 275.9854
841.6129, 251.0146
842.0950, 231.3281
842.5771, 218.0420
843.0593, 206.3408
843.5414, 193.9941
844.0235, 180.8662
844.5056, 165.6680
844.9877, 146.7695
845.4698, 134.4482
845.9520, 135.0830
846.4341, 134.1582
846.9162, 126.5537
847.3983, 117.5195
847.8804, 111.3193
848.3625, 108.0381
848.8447, 105.9180
849.3268, 104.7285
849.8089, 104.0557
850.2910, 103.5693
850.7731, 103.3721
851.2552, 104.1758
851.7374, 105.3877
852.2195, 105.0449
852.7016, 102.2236
853.1837, 98.01465
853.6658, 92.70801
854.1479, 87.15723
854.6301, 87.43066
855.1122, 94.16797
855.5943, 94.11816
856.0764, 81.04297
856.5585, 64.68457
857.0406, 55.95703
857.5228, 54.39160
858.0049, 52.82617
858.4870, 50.31152
858.9691, 49.77441
859.4512, 53.95605
859.9333, 57.84766
860.4155, 59.60938
860.8976, 59.15332
861.3797, 55.78418
861.8618, 48.55859
862.3439, 44.43945
862.8260, 49.61328
863.3082, 55.18945
863.7903, 53.99414
864.2724, 48.77344
864.7545, 43.90430
865.2366, 40.38477
865.7188, 37.24023
866.2009, 33.01855
866.6830, 29.88184
867.1651, 33.64844
867.6472, 42.73730
868.1293, 47.83398
868.6115, 47.48828
869.0936, 42.75781
869.5757, 32.74121
870.0578, 22.44238
870.5399, 22.96387
871.0220, 37.43359
871.5042, 47.33887
871.9863, 52.93457
872.4684, 53.62305
872.9505, 44.32031
873.4326, 33.71289
873.9147, 31.05469
874.3969, 34.92969
874.8790, 34.62988
875.3611, 24.24902
875.8432, 15.08203
876.3253, 10.42383
876.8074, 9.254883
877.2896, 12.99609
877.7717, 19.02539
878.2538, 20.21191
878.7359, 14.04688
879.2180, 11.46484
879.7001, 28.87793
880.1823, 53.42969
880.6644, 59.52051
881.1465, 50.56152
881.6286, 42.22852
882.1107, 38.90527
882.5928, 38.91211
883.0750, 40.83398
883.5571, 43.33691
884.0392, 39.91113
884.5213, 28.56250
885.0034, 22.30762
885.4855, 24.05762
885.9677, 27.49023
886.4498, 30.54004
886.9319, 32.50391
887.4140, 31.72754
887.8961, 27.67871
888.3782, 24.74512
888.8604, 24.76660
889.3425, 24.05176
889.8246, 18.89941
890.3067, 14.82520
890.7888, 20.42285
891.2709, 31.54785
891.7531, 33.46582
892.2352, 18.61035
892.7173, 2.284180
893.1994, 6.022461
893.6815, 8.579102
894.1636, 5.979492
894.6458, 0.2636720
895.1279, 4.101563
895.6100, 5.739258
896.0921, 6.897461
896.5742, 9.886719
897.0563, 13.72363
897.5385, 15.88965
898.0206, 16.42090
898.5027, 15.84668
898.9848, 13.99902
899.4669, 13.32715
899.9490, 15.77734
900.4312, 19.62305
900.9133, 20.39062
901.3954, 16.37695
901.8775, 17.52051
902.3596, 28.80859
902.8417, 36.76172
903.3239, 34.27539
903.8060, 29.12500
904.2881, 29.24219
904.7702, 33.63574
905.2523, 35.79590
905.7344, 34.14062
906.2166, 31.51758
906.6987, 27.11035
907.1808, 23.36426
907.6629, 23.44629
908.1450, 25.31445
908.6271, 24.35840
909.1093, 19.51953
909.5914, 15.16504
910.0735, 16.17383
910.5556, 17.72168
911.0377, 13.87695
911.5198, 6.664063
912.0020, 0.9892580
912.4841, 7.758789
912.9662, 10.55957
913.4483, 7.270508
913.9304, 7.7147998E-02
914.4125, 8.220703
914.8947, 17.28223
915.3768, 25.82227
915.8589, 34.10547
916.3410, 34.26660
916.8231, 21.95703
917.3052, 6.467773
917.7874, 1.808594
918.2695, 3.653320
918.7516, 6.336914
919.2337, 11.51367
919.7158, 13.40625
920.1979, 8.712891
920.6801, 4.170898
921.1622, 4.533203
921.6443, 7.035156
922.1264, 7.274414
922.6085, 4.927734
923.0906, 2.047852
923.5728, 0.3886720
924.0549, 4.133789
924.5370, 12.20508
925.0191, 20.02539
925.5012, 21.74902
925.9833, 19.11719
926.4655, 18.95801
926.9476, 24.21875
927.4297, 30.54688
927.9118, 36.50000
928.3939, 40.64062
928.8760, 40.17188
929.3582, 36.72949
929.8403, 35.21094
930.3224, 36.28613
930.8045, 34.32324
931.2866, 23.40039
931.7687, 9.698242
932.2509, 5.250000
932.7330, 8.509766
933.2151, 13.58984
933.6972, 19.64941
934.1793, 22.97754
934.6614, 21.57227
935.1436, 18.30859
935.6257, 17.37695
936.1078, 18.64160
936.5899, 18.97168
937.0720, 18.19922
937.5541, 17.75488
938.0363, 18.83594
938.5184, 17.82812
939.0005, 10.18750
939.4826, 0.7333980
939.9647, 4.953125
940.4468, 1.453125
940.9290, 3.743164
941.4111, 3.699219
941.8932, 8.208984
942.3753, 3.418945
942.8574, 3.673828
943.3395, 6.813477
943.8217, 6.258789
944.3038, 4.939453
944.7859, 1.394531
945.2680, 1.425781
945.7501, 13.10254
946.2322, 23.42383
946.7144, 19.29590
947.1965, 8.218750
947.6786, 4.547852
948.1607, 10.52930
948.6428, 14.57031
949.1249, 5.818359
949.6071, 3.640625
950.0892, 0.4697270
950.5713, 11.37695
951.0534, 18.94336
951.5355, 21.83398
952.0176, 20.24707
952.4998, 14.36035
952.9819, 7.568359
953.4640, 3.662109
953.9461, 2.371094
954.4282, 3.948242
954.9103, 7.772461
955.3925, 7.766602
955.8746, 2.580078
956.3567, 1.826172
956.8388, 13.21777
957.3209, 29.53418
957.8030, 34.39648
958.2852, 26.65332
958.7673, 20.75684
959.2494, 17.00391
959.7315, 13.98633
960.2136, 11.53613
960.6957, 9.168945
961.1779, 6.150391
961.6600, 2.854492
962.1421, 1.507813
962.6242, 4.248047
963.1063, 4.816406
963.5884, 0.2685550
964.0706, 2.793945
964.5527, 1.269531
965.0348, 2.462891
965.5169, 5.539063
965.9990, 8.062500
966.4811, 12.60645
966.9633, 22.37695
967.4454, 30.06738
967.9275, 34.57227
968.4096, 35.94238
968.8917, 31.93457
969.3738, 25.71484
969.8560, 22.92480
970.3381, 24.17871
970.8202, 23.44434
971.3023, 15.48242
971.7844, 8.237305
972.2665, 7.545898
972.7487, 9.337891
973.2308, 8.934570
973.7129, 6.529297
974.1950, 3.861328
974.6771, 1.574219
975.1592, 1.459961
975.6414, 6.395508
976.1235, 13.37500
976.6056, 19.29688
977.0877, 23.18750
977.5698, 22.02344
978.0519, 16.87598
978.5341, 13.81641
979.0162, 16.18359
979.4983, 21.29980
979.9804, 27.31543
980.4625, 33.16309
980.9446, 33.73145
981.4268, 29.32715
981.9089, 22.39453
982.3910, 13.45020
982.8731, 7.673828
983.3552, 9.917969
983.8373, 16.70020
984.3195, 19.31543
984.8016, 17.63965
985.2837, 15.50586
985.7658, 12.66895
986.2479, 11.81152
986.7300, 14.74219
987.2122, 17.46289
987.6943, 16.14062
988.1764, 11.67676
988.6585, 8.518555
989.1406, 5.977539
989.6227, 6.590820
990.1049, 11.18750
990.5870, 17.85352
991.0691, 28.22754
991.5512, 38.04785
992.0333, 41.70020
992.5154, 39.33691
992.9976, 36.87109
993.4797, 35.70996
993.9618, 32.40625
994.4439, 24.12793
994.9260, 16.55664
995.4081, 11.51562
995.8903, 9.330078
996.3724, 11.70703
996.8545, 18.49023
997.3366, 21.88184
997.8187, 16.57617
998.3008, 13.46582
998.7830, 16.26855
999.2651, 20.29785
999.7472, 23.51953
1000.229, 25.93457
1000.711, 27.23242
1001.194, 27.02344
1001.676, 24.84961
1002.158, 18.70508
1002.640, 12.69727
1003.122, 8.343750
1003.604, 6.227539
1004.086, 8.814453
1004.568, 13.56836
1005.050, 14.20020
1005.533, 8.890625
1006.015, 3.847656
1006.497, 4.215820
1006.979, 5.944336
1007.461, 4.862305
1007.943, 2.807617
1008.425, 0.7548830
1008.907, 0.5917970
1009.390, 0.8486330
1009.872, 5.891602
1010.354, 11.40039
1010.836, 13.94043
1011.318, 15.22949
1011.800, 17.76855
1012.282, 21.41016
1012.764, 26.47949
1013.246, 32.44727
1013.729, 37.12207
1014.211, 39.40137
1014.693, 39.15625
1015.175, 35.02441
1015.657, 28.48535
1016.139, 23.72656
1016.621, 20.64453
1017.103, 18.90918
1017.586, 18.36230
1018.068, 17.83887
1018.550, 16.71484
1019.032, 14.77246
1019.514, 10.93945
1019.996, 5.838867
1020.478, 3.987305
1020.960, 5.330078
1021.442, 8.640625
1021.925, 13.66211
1022.407, 18.67383
1022.889, 22.53711
1023.371, 24.60254
1023.853, 23.29004
1024.335, 18.54297
1024.817, 14.82715
1025.299, 12.02930
1025.781, 10.56152
1026.264, 10.38672
1026.746, 11.90332
1027.228, 15.81934
1027.710, 20.88086
1028.192, 24.19043
1028.674, 25.62305
1029.156, 25.94336
1029.638, 25.07227
1030.120, 22.94434
1030.603, 17.94922
1031.085, 15.36328
1031.567, 19.92188
1032.049, 29.45410
1032.531, 38.80566
1033.013, 49.31641
1033.495, 53.73926
1033.977, 50.83203
1034.460, 44.34277
1034.942, 32.38379
1035.424, 21.22070
1035.906, 16.73145
1036.388, 16.53223
1036.870, 13.68848
1037.352, 7.322266
1037.834, 1.613281
1038.317, 4.875977
1038.799, 8.465820
1039.281, 8.382813
1039.763, 5.126953
1040.245, 2.875000
1040.727, 13.54102
1041.209, 21.37305
1041.691, 26.94531
1042.173, 27.79590
1042.656, 20.99121
1043.138, 13.22168
1043.620, 1.436523
1044.102, 6.537109
1044.584, 1.700195
1045.066, 10.95898
1045.548, 18.67188
1046.030, 19.77832
1046.512, 19.07520
1046.995, 13.71289
1047.477, 11.07422
1047.959, 17.33203
1048.441, 23.55176
1048.923, 21.16895
1049.405, 13.56152
1049.887, 9.530273
1050.369, 10.76367
1050.852, 12.21875
1051.334, 11.09473
1051.816, 12.48242
1052.298, 21.75098
1052.780, 30.95703
1053.262, 32.24414
1053.744, 28.80078
1054.226, 28.18359
1054.708, 31.59082
1055.191, 37.87598
1055.673, 51.62695
1056.155, 62.24316
1056.637, 61.85059
1057.119, 59.32520
1057.601, 63.31934
1058.083, 70.73535
1058.565, 74.12402
1059.047, 71.89160
1059.530, 69.99121
1060.012, 70.49414
1060.494, 70.68652
1060.976, 67.34473
1061.458, 65.87500
1061.940, 72.43164
1062.422, 83.69824
1062.904, 92.82617
1063.387, 98.47656
1063.869, 103.6826
1064.351, 110.0254
1064.833, 115.8027
1065.315, 117.6719
1065.797, 121.3232
1066.279, 132.2910
1066.761, 148.1816
1067.244, 164.1543
1067.726, 179.2158
1068.208, 193.8906
1068.690, 210.3525
1069.172, 223.7900
1069.654, 229.3730
1070.136, 233.5244
1070.618, 240.4033
1071.100, 249.9697
1071.583, 262.2891
1072.065, 276.7324
1072.547, 290.2656
1073.029, 303.1113
1073.511, 312.5693
1073.993, 317.1582
1074.475, 318.0166
1074.957, 316.3574
1075.439, 311.3711
1075.922, 299.9873
1076.404, 283.5381
1076.886, 270.1416
1077.368, 264.0791
1077.850, 258.5918
1078.332, 250.3887
1078.814, 241.6689
1079.297, 232.9980
1079.779, 225.4365
1080.261, 220.9336
1080.743, 218.9023
1081.225, 216.2090
1081.707, 211.0176
1082.189, 207.6631
1082.671, 207.3281
1083.153, 210.4199
1083.635, 219.6562
1084.118, 230.7617
1084.600, 239.1162
1085.082, 244.7822
1085.564, 249.6777
1086.046, 254.0781
1086.528, 259.5156
1087.010, 266.4746
1087.492, 274.8281
1087.975, 282.5625
1088.457, 293.3252
1088.939, 314.4883
1089.421, 341.0518
1089.903, 359.9580
1090.385, 367.5859
1090.867, 375.8135
1091.349, 390.7617
1091.832, 405.2109
1092.314, 414.8496
1092.796, 423.3955
1093.278, 435.2031
1093.760, 447.8281
1094.242, 456.1396
1094.724, 459.2725
1095.206, 460.9541
1095.688, 461.0059
1096.171, 461.5713
1096.653, 465.5078
1097.135, 468.1406
1097.617, 467.4443
1098.099, 462.7334
1098.581, 452.7656
1099.063, 437.6709
1099.545, 420.1553
1100.027, 399.4883
1100.510, 378.4600
1100.992, 359.0977
1101.474, 337.8369
1101.956, 311.3457
1102.438, 283.0205
1102.920, 254.8467
1103.402, 227.7705
1103.884, 204.8613
1104.367, 187.9941
1104.849, 171.7666
1105.331, 156.2920
1105.813, 140.1719
1106.295, 121.1973
1106.777, 102.7090
1107.259, 87.87012
1107.741, 76.08008
1108.224, 65.40039
1108.706, 55.74219
1109.188, 47.19238
1109.670, 40.80957
1110.152, 34.25781
1110.634, 26.39648
1111.116, 18.75684
1111.598, 12.39355
1112.080, 6.885742
1112.563, 0.7968750
1113.045, 6.418945
1113.527, 9.000977
1114.009, 3.007813
1114.491, 1.296875
1114.973, 4.301758
1115.455, 3.571289
1115.937, 6.187500
1116.419, 16.64941
1116.902, 16.04590
1117.384, 5.397461
1117.866, 2.876953
1118.348, 9.517578
1118.830, 11.79102
1119.312, 6.961914
1119.794, 3.005859
1120.276, 3.184570
1120.759, 4.559570
1121.241, 4.727539
1121.723, 3.561523
1122.205, 5.7617001E-02
1122.687, 7.692383
1123.169, 8.570313
1123.651, 9.7660003E-03
1124.133, 6.416016
1124.615, 7.449219
1125.098, 7.000000
1125.580, 7.614258
1126.062, 8.838867
1126.544, 9.958008
1127.026, 10.97559
1127.508, 10.32129
1127.990, 7.824219
1128.472, 4.662109
1128.954, 0.4384770
1129.437, 0.6025390
1129.919, 8.615234
1130.401, 17.99316
1130.883, 20.88184
1131.365, 18.15820
1131.847, 11.01172
1132.329, 7.7147998E-02
1132.811, 0.6748050
1133.294, 13.48828
1133.776, 22.15723
1134.258, 21.23926
1134.740, 18.45020
1135.222, 20.43457
1135.704, 23.84277
1136.186, 20.66016
1136.668, 13.29688
1137.151, 12.41309
1137.633, 16.71680
1138.115, 18.35059
1138.597, 15.92773
1139.079, 12.35742
1139.561, 9.246094
1140.043, 6.673828
1140.525, 4.795410
1141.007, 3.493652
1141.490, 2.282227
1141.972, 1.519531
1142.454, 2.338867
1142.936, 4.387695
1143.418, 5.750000
1143.900, 5.974609
1144.382, 7.818848
1144.864, 14.18750
1145.346, 21.40869
1145.829, 26.17920
1146.311, 28.94678
1146.793, 29.66699
1147.275, 29.09766
1147.757, 28.79004
1148.239, 28.73926
1148.721, 27.16943
1149.203, 22.80908
1149.686, 19.43848
1150.168, 20.32471
1150.650, 22.32568
1151.132, 23.83398
1151.614, 24.66797
1152.096, 25.02686
1152.578, 24.58154
1153.060, 21.79541
1153.542, 16.20020
1154.025, 13.15186
1154.507, 14.76807
1154.989, 18.82568
1155.471, 25.57666
1155.953, 33.21631
1156.435, 42.27393
1156.917, 50.43457
1157.399, 54.57129
1157.881, 54.66748
1158.364, 53.16309
1158.846, 49.50098
1159.328, 45.75488
1159.810, 41.11035
1160.292, 37.75879
1160.774, 36.33545
1161.256, 36.50635
1161.738, 38.73975
1162.221, 42.16602
1162.703, 45.03613
1163.185, 47.79639
1163.667, 45.62793
1164.149, 35.51855
1164.631, 29.60938
1165.113, 30.40479
1165.595, 33.67188
1166.078, 37.80518
1166.560, 42.28320
1167.042, 46.93115
1167.524, 50.99219
1168.006, 49.53955
1168.488, 42.09521
1168.970, 42.57568
1169.452, 51.94189
1169.934, 60.88330
1170.417, 66.72510
1170.899, 68.49219
1171.381, 65.84668
1171.863, 61.04443
1172.345, 55.36475
1172.827, 49.95605
1173.309, 51.65088
1173.791, 57.12061
1174.273, 54.93994
1174.756, 46.21436
1175.238, 43.24609
1175.720, 49.88379
1176.202, 54.97754
1176.684, 47.23438
1177.166, 37.11963
1177.648, 39.28125
1178.130, 46.47754
1178.613, 49.58447
1179.095, 48.41895
1179.577, 42.28467
1180.059, 32.97461
1180.541, 27.34424
1181.023, 29.52734
1181.505, 33.31982
1181.987, 35.42236
1182.469, 35.88721
1182.952, 32.85205
1183.434, 30.24023
1183.916, 33.02783
1184.398, 38.14600
1184.880, 39.02002
1185.362, 34.87549
1185.844, 32.54004
1186.326, 36.15625
1186.808, 37.59180
1187.291, 32.35107
1187.773, 28.91064
1188.255, 34.10938
1188.737, 39.75000
1189.219, 36.64502
1189.701, 27.93848
1190.183, 23.67090
1190.665, 25.34180
1191.148, 24.51465
1191.630, 17.72900
1192.112, 18.65186
1192.594, 33.05322
1193.076, 45.27393
1193.558, 46.77246
1194.040, 42.83350
1194.522, 40.53320
1195.005, 39.40332
1195.487, 36.51416
1195.969, 32.00049
1196.451, 28.81445
1196.933, 27.18506
1197.415, 29.48975
1197.897, 35.97217
1198.379, 39.63672
1198.861, 35.81396
1199.344, 29.42529
1199.826, 27.20361
1200.308, 27.13428
1200.790, 23.86475
1201.272, 19.82324
1201.754, 22.07373
1202.236, 28.55957
1202.718, 31.01318
1203.200, 27.39453
1203.683, 22.16553
1204.165, 17.30957
1204.647, 13.51514
1205.129, 10.25439
1205.611, 9.424805
1206.093, 16.00098
1206.575, 23.50684
1207.057, 22.85938
1207.540, 16.38330
1208.022, 12.11328
1208.504, 11.66504
1208.986, 13.40918
1209.468, 18.11377
1209.950, 23.16113
1210.432, 31.45947
1210.914, 35.80078
1211.396, 28.64941
1211.879, 18.97021
1212.361, 15.80615
1212.843, 17.96484
1213.325, 21.34229
1213.807, 27.54736
1214.289, 26.15576
1214.771, 13.85791
1215.253, 8.075684
1215.735, 13.79199
1216.218, 18.73242
1216.700, 16.03174
1217.182, 10.74463
1217.664, 8.760254
1218.146, 9.687500
1218.628, 14.08643
1219.110, 20.34619
1219.592, 17.61768
1220.075, 8.061523
1220.557, 6.665527
1221.039, 15.59326
1221.521, 23.68115
1222.003, 24.68652
1222.485, 23.55469
1222.967, 26.38086
1223.449, 28.70947
1223.932, 24.18262
1224.414, 16.79297
1224.896, 10.70703
1225.378, 6.724609
1225.860, 5.080078
1226.342, 5.326172
1226.824, 4.759277
1227.306, 1.649414
1227.788, 5.9082001E-02
1228.271, 2.193848
1228.753, 4.479492
1229.235, 5.690430
1229.717, 5.633301
1230.199, 1.484375
1230.681, 2.674316
1231.163, 2.023438
1231.645, 15.18018
1232.127, 20.70947
1232.610, 15.38623
1233.092, 12.20361
1233.574, 12.34717
1234.056, 12.79297
1234.538, 12.87061
1235.020, 12.01367
1235.502, 9.733887
1235.984, 6.624023
1236.467, 3.137207
1236.949, 6.7870997E-02
1237.431, 0.5180660
1237.913, 1.763672
1238.395, 7.619141
1238.877, 15.26416
1239.359, 15.41260
1239.841, 6.388672
1240.323, 2.370117
1240.806, 5.392090
1241.288, 3.456543
1241.770, 6.706543
1242.252, 17.18213
1242.734, 19.83350
1243.216, 18.56543
1243.698, 18.87402
1244.180, 19.50586
1244.662, 15.89990
1245.145, 7.608398
1245.627, 1.394531
1246.109, 0.1630860
1246.591, 0.3803710
1247.073, 0.9448240
1247.555, 2.283691
1248.037, 3.145508
1248.519, 4.532227
1249.002, 8.137207
1249.484, 11.37939
1249.966, 7.933105
1250.448, 1.539063
1250.930, 4.825684
1251.412, 1.571289
1251.894, 1.808105
1252.376, 5.032715
1252.859, 8.121582
1253.341, 11.10303
1253.823, 12.63330
1254.305, 11.68506
1254.787, 10.91455
1255.269, 14.49365
1255.751, 20.15234
1256.233, 24.20557
1256.715, 25.88623
1257.198, 24.10645
1257.680, 20.72656
1258.162, 20.74854
1258.644, 24.99268
1259.126, 30.31152
1259.608, 36.07422
1260.090, 39.59229
1260.572, 38.55029
1261.054, 37.64307
1261.537, 39.74463
1262.019, 39.73193
1262.501, 36.50049
1262.983, 30.77588
1263.465, 25.17529
1263.947, 20.18555
1264.429, 20.81641
1264.911, 31.37354
1265.394, 33.61133
1265.876, 24.78906
1266.358, 19.19531
1266.840, 18.23584
1267.322, 18.90869
1267.804, 17.35059
1268.286, 14.61230
1268.768, 11.87744
1269.250, 10.54150
1269.733, 14.33105
1270.215, 21.19092
1270.697, 28.40674
1271.179, 33.60254
1271.661, 29.52246
1272.143, 17.72168
1272.625, 7.930664
1273.107, 3.680176
1273.589, 3.593262
1274.072, 10.08398
1274.554, 16.12402
1275.036, 18.94580
1275.518, 19.55127
1276.000, 18.35449
1276.482, 15.31738
1276.964, 8.615723
1277.446, 1.392578
1277.929, 0.7377930
1278.411, 7.834961
1278.893, 11.10400
1279.375, 9.788574
1279.857, 7.056152
1280.339, 2.111816
1280.821, 0.1772460
1281.303, 1.601074
1281.786, 2.362305
1282.268, 0.0000000E+00
##END=



