##NAMES=Linekite
##RRUFFID=R141026
##IDEAL CHEMISTRY=K_2_Ca_3_[(U^6+^O_2_)(CO_3_)_3_]_2_&#183;8H_2_O
##LOCALITY=Svornost Mine, Jáchymov, Krušné Hory Mts, Karlovy Vary, Bohemia, Czech Republic
##OWNER=RRUFF
##SOURCE=William W. Pinch
##DESCRIPTION=Light green tabular crystals
##STATUS=The identification of this mineral has been confirmed only by single crystal X-ray diffraction.
##URL=rruff.info/R141026
145.0265, 0.0000000E+00
145.5086, 0.3049320
145.9907, 2.168701
146.4728, 6.050049
146.9550, 9.433350
147.4371, 11.81519
147.9192, 14.09668
148.4013, 15.64795
148.8834, 17.00659
149.3655, 19.49805
149.8477, 24.01758
150.3298, 28.76660
150.8119, 33.07690
151.2940, 37.02100
151.7761, 40.31030
152.2583, 42.47021
152.7404, 43.85083
153.2225, 45.50488
153.7046, 47.36353
154.1867, 49.51587
154.6688, 51.99878
155.1510, 55.08130
155.6331, 58.21118
156.1152, 62.10205
156.5973, 66.24048
157.0794, 68.47656
157.5615, 66.55249
158.0437, 63.73633
158.5258, 62.10645
159.0079, 63.90112
159.4900, 65.11084
159.9721, 64.20532
160.4542, 61.80933
160.9364, 60.01538
161.4185, 59.28174
161.9006, 58.99707
162.3827, 58.52710
162.8648, 57.40723
163.3469, 56.12012
163.8291, 55.36987
164.3112, 55.05444
164.7933, 53.36475
165.2754, 47.77856
165.7575, 41.04834
166.2396, 35.76904
166.7218, 33.82202
167.2039, 32.76636
167.6860, 30.93994
168.1681, 28.25464
168.6502, 25.34204
169.1323, 22.71167
169.6145, 20.27344
170.0966, 18.33203
170.5787, 18.49048
171.0608, 19.18604
171.5429, 18.64868
172.0250, 16.66870
172.5072, 15.10986
172.9893, 16.05713
173.4714, 19.66357
173.9535, 23.52930
174.4356, 26.14038
174.9177, 29.87500
175.3999, 32.09326
175.8820, 30.53394
176.3641, 28.59619
176.8462, 31.52295
177.3283, 37.58716
177.8104, 42.24243
178.2926, 41.89600
178.7747, 38.96240
179.2568, 38.15454
179.7389, 39.94946
180.2210, 42.40967
180.7031, 43.66846
181.1853, 43.79639
181.6674, 43.25439
182.1495, 42.24658
182.6316, 40.85156
183.1137, 39.32593
183.5958, 37.65845
184.0780, 36.01416
184.5601, 35.23584
185.0422, 35.11475
185.5243, 33.92822
186.0064, 29.14600
186.4885, 22.33667
186.9707, 19.85474
187.4528, 23.00195
187.9349, 27.93994
188.4170, 28.53247
188.8991, 25.00342
189.3812, 21.18921
189.8634, 18.89478
190.3455, 17.98901
190.8276, 18.10229
191.3097, 19.72876
191.7918, 21.13477
192.2739, 18.10986
192.7561, 10.35107
193.2382, 4.032715
193.7203, 3.793213
194.2024, 9.038330
194.6845, 11.81738
195.1666, 11.12085
195.6488, 8.393799
196.1309, 6.245850
196.6130, 4.693359
197.0951, 3.539063
197.5772, 2.722900
198.0593, 2.259277
198.5415, 2.049561
199.0236, 2.251221
199.5057, 2.536377
199.9878, 2.129150
200.4699, 0.9851070
200.9520, 0.6076660
201.4342, 3.058594
201.9163, 6.624023
202.3984, 7.668213
202.8805, 4.244629
203.3626, 0.8051760
203.8447, 1.302490
204.3269, 3.911133
204.8090, 9.671875
205.2911, 13.17114
205.7732, 14.27051
206.2553, 14.14160
206.7374, 12.55835
207.2196, 9.970947
207.7017, 7.515625
208.1838, 5.134766
208.6659, 3.000977
209.1480, 1.172363
209.6301, 0.4577640
210.1123, 1.414063
210.5944, 1.289307
211.0765, 0.6667480
211.5586, 1.239746
212.0407, 3.180420
212.5228, 5.954102
213.0050, 9.344238
213.4871, 13.46094
213.9692, 17.85986
214.4513, 23.27075
214.9334, 28.63745
215.4155, 30.31006
215.8977, 26.12695
216.3798, 22.38794
216.8619, 22.82324
217.3440, 28.96704
217.8261, 34.25562
218.3082, 38.09448
218.7904, 40.94092
219.2725, 44.38306
219.7546, 49.41089
220.2367, 53.12622
220.7188, 53.26465
221.2009, 46.99902
221.6831, 45.33081
222.1652, 50.78979
222.6473, 60.49316
223.1294, 65.39722
223.6115, 62.89062
224.0936, 60.15234
224.5758, 61.05298
225.0579, 68.08984
225.5400, 72.61475
226.0221, 73.44116
226.5042, 71.96753
226.9863, 72.02637
227.4685, 74.29224
227.9506, 77.12842
228.4327, 79.75879
228.9148, 81.99463
229.3969, 84.36768
229.8790, 86.60205
230.3612, 88.98413
230.8433, 92.42041
231.3254, 97.74561
231.8075, 102.8303
232.2896, 106.7288
232.7717, 108.9673
233.2539, 110.8960
233.7360, 112.0188
234.2181, 112.8757
234.7002, 114.7478
235.1823, 117.6055
235.6644, 121.4351
236.1466, 126.6980
236.6287, 135.0024
237.1108, 140.0920
237.5929, 140.4719
238.0750, 138.1750
238.5571, 137.4880
239.0393, 139.7986
239.5214, 141.5691
240.0035, 141.2610
240.4856, 137.7444
240.9677, 135.8630
241.4498, 136.6282
241.9320, 138.6248
242.4141, 139.3140
242.8962, 138.2505
243.3783, 136.7673
243.8604, 135.3494
244.3425, 134.1687
244.8247, 132.5037
245.3068, 129.8438
245.7889, 127.1094
246.2710, 125.7881
246.7531, 126.6077
247.2352, 127.4795
247.7174, 127.6021
248.1995, 126.5881
248.6816, 126.7524
249.1637, 129.3167
249.6458, 132.0745
250.1279, 131.6006
250.6101, 125.9260
251.0922, 120.4817
251.5743, 116.9778
252.0564, 115.7712
252.5385, 114.1177
253.0206, 111.8989
253.5028, 109.2544
253.9849, 106.3372
254.4670, 102.8501
254.9491, 99.75122
255.4312, 97.28735
255.9133, 95.49829
256.3955, 94.19336
256.8776, 94.04590
257.3597, 93.63232
257.8418, 91.26953
258.3239, 86.05762
258.8061, 80.76782
259.2882, 75.48047
259.7703, 70.13550
260.2524, 66.98682
260.7345, 67.48950
261.2166, 68.88599
261.6988, 68.18433
262.1809, 64.25098
262.6630, 60.20532
263.1451, 56.97925
263.6272, 54.52783
264.1093, 50.93311
264.5915, 45.60498
265.0736, 40.54297
265.5557, 37.73755
266.0378, 38.38892
266.5199, 36.99243
267.0020, 31.94312
267.4842, 24.22241
267.9663, 19.03711
268.4484, 16.90845
268.9305, 15.90771
269.4126, 14.73706
269.8947, 13.17456
270.3769, 12.57739
270.8590, 13.42310
271.3411, 15.12671
271.8232, 15.67700
272.3053, 14.72876
272.7874, 13.59253
273.2696, 12.86694
273.7517, 12.46313
274.2338, 13.18750
274.7159, 15.90845
275.1980, 19.06519
275.6801, 18.06152
276.1623, 11.84155
276.6444, 6.268066
277.1265, 4.996094
277.6086, 8.482666
278.0907, 10.20654
278.5728, 9.474121
279.0550, 7.846924
279.5371, 8.151123
280.0192, 10.59058
280.5013, 13.50513
280.9834, 16.64331
281.4655, 19.94800
281.9477, 21.19043
282.4298, 19.68164
282.9119, 17.73218
283.3940, 19.27148
283.8761, 24.38574
284.3582, 28.20190
284.8404, 27.58765
285.3225, 23.66504
285.8046, 24.27441
286.2867, 30.18091
286.7688, 36.81714
287.2509, 38.92285
287.7331, 36.75415
288.2152, 33.69287
288.6973, 30.50464
289.1794, 27.32617
289.6615, 24.66553
290.1436, 22.58154
290.6258, 20.70190
291.1079, 18.23486
291.5900, 15.53564
292.0721, 14.52393
292.5542, 16.51709
293.0363, 19.98218
293.5185, 21.03442
294.0006, 19.57544
294.4827, 17.73901
294.9648, 17.54248
295.4469, 18.64111
295.9290, 19.86646
296.4112, 20.98267
296.8933, 22.14648
297.3754, 23.85010
297.8575, 25.94043
298.3396, 27.46436
298.8217, 27.18530
299.3039, 25.99097
299.7860, 25.66797
300.2681, 26.67969
300.7502, 28.37061
301.2323, 30.80200
301.7144, 33.57495
302.1966, 35.27393
302.6787, 33.65283
303.1608, 30.90576
303.6429, 30.48193
304.1250, 33.12231
304.6071, 35.77856
305.0893, 34.93091
305.5714, 31.99780
306.0535, 29.92041
306.5356, 31.53296
307.0177, 33.70044
307.4998, 32.82129
307.9820, 28.81738
308.4641, 25.08057
308.9462, 24.33301
309.4283, 25.32910
309.9104, 26.20557
310.3925, 26.86133
310.8747, 26.90649
311.3568, 25.67896
311.8389, 23.37573
312.3210, 21.32275
312.8031, 19.92554
313.2852, 19.31470
313.7674, 19.59839
314.2495, 20.58350
314.7316, 22.72021
315.2137, 27.28003
315.6958, 33.40308
316.1779, 38.26318
316.6601, 40.17407
317.1422, 40.51099
317.6243, 40.00903
318.1064, 38.09692
318.5885, 36.89746
319.0706, 36.97559
319.5528, 38.21777
320.0349, 40.42920
320.5170, 46.34424
320.9991, 50.91016
321.4812, 51.23999
321.9633, 45.58057
322.4455, 41.36523
322.9276, 40.51978
323.4097, 41.81958
323.8918, 43.72217
324.3739, 47.27222
324.8560, 49.62939
325.3382, 49.54688
325.8203, 46.72339
326.3024, 45.81567
326.7845, 50.33643
327.2666, 55.22754
327.7487, 56.45776
328.2309, 50.21753
328.7130, 44.77222
329.1951, 40.68213
329.6772, 37.96582
330.1593, 36.75244
330.6414, 38.69238
331.1236, 40.42798
331.6057, 39.93335
332.0878, 34.29175
332.5699, 31.81006
333.0520, 34.82544
333.5341, 40.73096
334.0163, 41.70850
334.4984, 33.81104
334.9805, 27.31030
335.4626, 27.56812
335.9447, 37.64502
336.4268, 42.35693
336.9090, 40.25366
337.3911, 34.37500
337.8732, 29.35913
338.3553, 25.05225
338.8374, 22.40918
339.3195, 22.55371
339.8017, 25.30396
340.2838, 25.29272
340.7659, 21.84790
341.2480, 17.46777
341.7301, 14.98926
342.2122, 14.58643
342.6944, 13.17065
343.1765, 9.230469
343.6586, 4.137451
344.1407, 3.296143
344.6228, 6.999756
345.1049, 10.96069
345.5871, 11.37549
346.0692, 8.832275
346.5513, 7.216064
347.0334, 7.057861
347.5155, 7.934326
347.9977, 10.26489
348.4798, 13.70581
348.9619, 15.07642
349.4440, 10.46069
349.9261, 2.532959
350.4082, 2.627686
350.8904, 4.586426
351.3725, 3.935059
351.8546, 0.7771000
352.3367, 7.847656
352.8188, 12.86011
353.3009, 13.06006
353.7831, 10.62476
354.2652, 7.209229
354.7473, 2.920654
355.2294, 0.1948240
355.7115, 1.008789
356.1936, 3.781982
356.6758, 4.311523
357.1579, 0.4531250
357.6400, 5.248535
358.1221, 5.551758
358.6042, 2.487549
359.0863, 0.1137700
359.5685, 1.819580
360.0506, 4.111084
360.5327, 4.166992
361.0148, 0.6494140
361.4969, 2.859863
361.9790, 5.221924
362.4612, 6.548584
362.9433, 7.095459
363.4254, 5.465576
363.9075, 4.314209
364.3896, 5.412598
364.8717, 9.475098
365.3539, 11.55908
365.8360, 8.022461
366.3181, 2.980957
366.8002, 0.3488770
367.2823, 3.549316
367.7644, 5.967529
368.2466, 5.859863
368.7287, 3.545410
369.2108, 2.899170
369.6929, 5.718994
370.1750, 8.655762
370.6571, 9.988037
371.1393, 9.019775
371.6214, 7.765137
372.1035, 6.128174
372.5856, 4.310547
373.0677, 2.558838
373.5498, 0.2595210
374.0320, 0.7299800
374.5141, 0.8603520
374.9962, 5.555176
375.4783, 7.970947
375.9604, 7.419678
376.4425, 5.666748
376.9247, 4.947266
377.4068, 5.685059
377.8889, 5.924316
378.3710, 4.609131
378.8531, 2.111328
379.3352, 0.6030270
379.8174, 0.1979980
380.2995, 0.1137700
380.7816, 1.139404
381.2637, 3.283203
381.7458, 2.897949
382.2279, 1.129639
382.7101, 6.336914
383.1922, 8.259521
383.6743, 7.354248
384.1564, 6.524170
384.6385, 7.786133
385.1206, 9.834717
385.6028, 9.924072
386.0849, 7.852783
386.5670, 5.375977
387.0491, 3.697021
387.5312, 2.857422
388.0133, 2.885010
388.4955, 4.251221
388.9776, 6.072510
389.4597, 8.004395
389.9418, 9.856201
390.4239, 10.55884
390.9060, 6.843994
391.3882, 3.033203
391.8703, 3.914307
392.3524, 13.81299
392.8345, 21.41016
393.3166, 18.00830
393.7987, 8.599854
394.2809, 3.224365
394.7630, 10.27612
395.2451, 17.62939
395.7272, 18.89844
396.2093, 12.08740
396.6914, 8.699707
397.1736, 14.84302
397.6557, 23.53857
398.1378, 28.39111
398.6199, 24.58472
399.1020, 21.42065
399.5841, 20.61328
400.0663, 21.66992
400.5484, 21.17480
401.0305, 16.82495
401.5126, 13.39844
401.9947, 13.77954
402.4768, 21.23145
402.9590, 24.78784
403.4411, 23.36279
403.9232, 18.92310
404.4053, 14.69849
404.8874, 10.64355
405.3695, 7.154541
405.8517, 4.185059
406.3338, 1.842041
406.8159, 1.323486
407.2980, 2.915039
407.7801, 5.292725
408.2622, 7.406982
408.7444, 9.288818
409.2265, 9.887695
409.7086, 8.405762
410.1907, 6.467285
410.6728, 8.881348
411.1549, 15.14185
411.6371, 20.09375
412.1192, 18.94800
412.6013, 14.39746
413.0834, 12.28076
413.5655, 13.37012
414.0476, 15.31909
414.5298, 15.96802
415.0119, 15.68335
415.4940, 15.26074
415.9761, 16.45776
416.4582, 17.36060
416.9403, 14.91479
417.4225, 9.596436
417.9046, 5.781494
418.3867, 8.333740
418.8688, 12.69263
419.3509, 14.60742
419.8330, 12.39014
420.3152, 9.505615
420.7973, 7.057129
421.2794, 4.901855
421.7615, 2.771729
422.2436, 0.4067380
422.7257, 2.534424
423.2079, 2.530029
423.6900, 6.3721001E-02
424.1721, 2.057129
424.6542, 3.022217
425.1363, 4.070801
425.6184, 6.052002
426.1006, 10.86816
426.5827, 13.50830
427.0648, 12.47119
427.5469, 8.997070
428.0290, 7.413818
428.5111, 8.284668
428.9933, 9.743896
429.4754, 11.33447
429.9575, 13.31104
430.4396, 12.57593
430.9217, 7.994141
431.4038, 2.924805
431.8860, 2.752197
432.3681, 7.895508
432.8502, 10.93091
433.3323, 9.415039
433.8144, 4.827148
434.2965, 0.2126460
434.7787, 4.337646
435.2608, 6.857422
435.7429, 3.744629
436.2250, 2.425537
436.7071, 4.666992
437.1892, 1.587402
437.6714, 2.786377
438.1535, 4.996338
438.6356, 5.334717
439.1177, 4.372070
439.5998, 0.1835940
440.0819, 4.628906
440.5641, 4.523193
441.0462, 0.1601560
441.5283, 3.600830
442.0104, 3.850830
442.4925, 2.563477
442.9746, 1.435059
443.4568, 1.172363
443.9389, 0.5793460
444.4210, 0.7204590
444.9031, 2.549561
445.3852, 4.652100
445.8673, 8.300049
446.3495, 11.02295
446.8316, 11.82080
447.3137, 10.39600
447.7958, 9.255371
448.2779, 8.339600
448.7600, 7.821777
449.2422, 7.868896
449.7243, 8.992188
450.2064, 10.11255
450.6885, 11.59570
451.1706, 12.81104
451.6527, 11.47021
452.1349, 6.616211
452.6170, 2.463867
453.0991, 0.8747560
453.5812, 1.746826
454.0633, 2.906006
454.5454, 4.394775
455.0276, 5.884033
455.5097, 7.009521
455.9918, 7.784912
456.4739, 8.191406
456.9560, 8.186523
457.4381, 7.897705
457.9203, 7.358154
458.4024, 6.662109
458.8845, 6.280762
459.3666, 6.409424
459.8488, 7.065186
460.3309, 8.563965
460.8130, 11.03491
461.2951, 13.04712
461.7772, 14.02295
462.2593, 13.79541
462.7415, 12.07935
463.2236, 6.651367
463.7057, 1.933350
464.1878, 0.1088870
464.6699, 5.0781000E-02
465.1520, 0.6743160
465.6342, 1.944336
466.1163, 2.934326
466.5984, 3.139648
467.0805, 1.997070
467.5626, 1.640625
468.0447, 3.294189
468.5269, 5.034668
469.0090, 4.635986
469.4911, 0.3500980
469.9732, 2.691895
470.4553, 0.2739260
470.9374, 5.475098
471.4196, 8.253906
471.9017, 7.152344
472.3838, 5.613281
472.8659, 5.682617
473.3480, 7.335938
473.8301, 7.625488
474.3123, 6.097168
474.7944, 4.656250
475.2765, 6.206055
475.7586, 10.12256
476.2407, 13.36182
476.7228, 15.48877
477.2050, 15.96631
477.6871, 12.71484
478.1692, 6.555176
478.6513, 1.381348
479.1334, 0.2583010
479.6155, 1.147461
480.0977, 2.211914
480.5798, 3.437500
481.0619, 3.751953
481.5440, 0.6562500
482.0261, 2.958984
482.5082, 3.758301
482.9904, 3.517090
483.4725, 9.329590
483.9546, 9.669434
484.4367, 5.768066
484.9188, 3.135254
485.4009, 2.862305
485.8831, 3.677734
486.3652, 5.311523
486.8473, 8.179199
487.3294, 9.925781
487.8115, 10.10010
488.2936, 9.428223
488.7758, 8.541016
489.2579, 7.166504
489.7400, 6.343750
490.2221, 6.493652
490.7042, 7.105957
491.1863, 5.976563
491.6685, 2.808594
492.1506, 1.106934
492.6327, 4.865234
493.1148, 12.26172
493.5969, 13.07764
494.0790, 6.776367
494.5612, 0.3813480
495.0433, 1.610352
495.5254, 0.9531250
496.0075, 3.058105
496.4896, 3.582031
496.9717, 3.485840
497.4539, 2.968750
497.9360, 2.351563
498.4181, 2.871582
498.9002, 6.215820
499.3823, 9.839844
499.8644, 12.74512
500.3466, 14.95215
500.8287, 15.50781
501.3108, 10.51904
501.7929, 5.683594
502.2750, 5.323242
502.7571, 16.44775
503.2393, 23.56934
503.7214, 24.00439
504.2035, 20.47461
504.6856, 18.88086
505.1677, 20.72705
505.6498, 21.70508
506.1320, 20.09180
506.6141, 16.08008
507.0962, 14.24951
507.5783, 15.20557
508.0604, 16.56738
508.5425, 16.51221
509.0247, 15.16162
509.5068, 13.25928
509.9889, 10.75928
510.4710, 8.306152
510.9531, 5.949219
511.4352, 4.205566
511.9174, 4.973145
512.3995, 11.98779
512.8816, 19.94141
513.3637, 22.22119
513.8458, 19.54688
514.3279, 16.43994
514.8101, 15.16797
515.2922, 14.68701
515.7743, 13.94531
516.2564, 12.31738
516.7385, 11.86035
517.2206, 14.74902
517.7028, 18.54736
518.1849, 20.47510
518.6670, 17.95117
519.1491, 16.05762
519.6312, 16.23584
520.1133, 17.81787
520.5955, 17.82324
521.0776, 15.46094
521.5597, 13.02490
522.0418, 11.37207
522.5239, 10.56396
523.0060, 11.07910
523.4882, 13.32275
523.9703, 16.02539
524.4524, 17.90771
524.9345, 19.00537
525.4166, 19.99707
525.8987, 21.20703
526.3809, 21.95166
526.8630, 20.14355
527.3451, 16.56836
527.8272, 14.56152
528.3093, 17.62207
528.7914, 22.07275
529.2736, 23.69482
529.7557, 22.55420
530.2378, 21.21240
530.7199, 19.81641
531.2020, 19.56543
531.6841, 22.08691
532.1663, 30.45410
532.6484, 35.40918
533.1305, 31.46289
533.6126, 23.77783
534.0947, 19.76758
534.5768, 23.13281
535.0590, 26.63525
535.5411, 30.00635
536.0232, 32.94922
536.5053, 32.86621
536.9874, 28.75977
537.4695, 24.05762
537.9517, 19.98779
538.4338, 16.46826
538.9159, 16.00928
539.3980, 19.16504
539.8801, 23.06641
540.3622, 24.37793
540.8444, 23.64697
541.3265, 23.21680
541.8086, 23.80225
542.2907, 24.44434
542.7728, 23.26514
543.2549, 21.01025
543.7371, 19.85498
544.2192, 22.75342
544.7013, 25.76807
545.1834, 25.10303
545.6655, 21.00342
546.1476, 18.29297
546.6298, 20.03174
547.1119, 23.20947
547.5940, 25.90869
548.0761, 27.76514
548.5582, 29.52686
549.0403, 32.46973
549.5225, 34.84375
550.0046, 34.13574
550.4867, 27.92822
550.9688, 23.56445
551.4509, 22.55859
551.9330, 24.16016
552.4152, 25.83447
552.8973, 27.56738
553.3794, 29.16992
553.8615, 30.46289
554.3436, 31.44141
554.8257, 32.25391
555.3079, 32.85254
555.7900, 33.26807
556.2721, 34.20947
556.7542, 34.83838
557.2363, 32.88525
557.7184, 26.49561
558.2006, 21.57471
558.6827, 24.42676
559.1648, 31.66309
559.6469, 37.62549
560.1290, 41.95703
560.6111, 42.88574
561.0933, 36.77344
561.5754, 25.23096
562.0575, 18.73682
562.5396, 22.88867
563.0217, 28.58447
563.5038, 32.91260
563.9860, 36.17871
564.4681, 36.11182
564.9502, 30.93994
565.4323, 25.14941
565.9144, 23.40527
566.3965, 26.04297
566.8787, 28.90479
567.3608, 31.81152
567.8429, 33.92432
568.3250, 32.90332
568.8071, 29.34619
569.2892, 26.34912
569.7714, 25.37354
570.2535, 25.68213
570.7356, 26.14697
571.2177, 26.91650
571.6998, 28.69141
572.1819, 34.45215
572.6641, 39.68115
573.1462, 39.77051
573.6283, 32.78809
574.1104, 28.23193
574.5925, 31.79248
575.0746, 37.47266
575.5568, 39.86182
576.0389, 35.06543
576.5210, 31.60791
577.0031, 30.15576
577.4852, 30.10400
577.9673, 30.40137
578.4495, 31.43896
578.9316, 31.73340
579.4137, 30.41406
579.8958, 28.13818
580.3779, 28.19287
580.8600, 30.74463
581.3422, 32.81641
581.8243, 31.89453
582.3064, 29.11963
582.7885, 26.18066
583.2706, 22.94629
583.7527, 21.82275
584.2349, 27.33301
584.7170, 35.04736
585.1991, 39.37939
585.6812, 37.73096
586.1633, 34.72021
586.6454, 30.77197
587.1276, 26.82568
587.6097, 24.72363
588.0918, 27.90430
588.5739, 29.34082
589.0560, 26.54492
589.5381, 20.37988
590.0203, 16.97412
590.5024, 17.27148
590.9845, 18.43555
591.4666, 19.76025
591.9487, 21.34863
592.4308, 19.66553
592.9130, 14.11768
593.3951, 8.809570
593.8772, 8.232910
594.3593, 11.31299
594.8414, 14.58301
595.3235, 17.48193
595.8057, 20.16113
596.2878, 23.71973
596.7699, 27.03418
597.2520, 27.95166
597.7341, 22.66064
598.2162, 17.59131
598.6984, 15.99609
599.1805, 17.21533
599.6626, 18.75830
600.1447, 21.33936
600.6268, 22.81836
601.1089, 21.92188
601.5911, 18.35889
602.0732, 16.02588
602.5553, 15.23828
603.0374, 15.33447
603.5195, 15.69873
604.0016, 16.00732
604.4838, 18.01123
604.9659, 22.47217
605.4480, 26.82959
605.9301, 26.77588
606.4122, 23.26807
606.8943, 21.50146
607.3765, 24.11182
607.8586, 27.75049
608.3407, 27.72656
608.8228, 24.85107
609.3049, 22.16895
609.7870, 21.66113
610.2692, 21.84570
610.7513, 21.94287
611.2334, 21.87695
611.7155, 21.82715
612.1976, 22.55420
612.6797, 23.02588
613.1619, 22.17188
613.6440, 18.97461
614.1261, 17.72314
614.6082, 19.76953
615.0903, 21.78564
615.5724, 20.17285
616.0546, 14.76221
616.5367, 10.82617
617.0188, 9.077148
617.5009, 8.815430
617.9830, 9.729980
618.4651, 11.38574
618.9473, 12.14941
619.4294, 10.09473
619.9115, 8.454590
620.3936, 12.12305
620.8757, 18.89014
621.3578, 22.47559
621.8400, 16.51758
622.3221, 9.797852
622.8042, 6.829590
623.2863, 7.880371
623.7684, 9.144043
624.2505, 9.491699
624.7327, 10.72852
625.2148, 14.43066
625.6969, 22.31104
626.1790, 25.31396
626.6611, 22.09229
627.1432, 16.79736
627.6254, 13.51660
628.1075, 12.16553
628.5896, 11.50000
629.0717, 11.45264
629.5538, 11.52930
630.0359, 10.49316
630.5181, 9.000000
631.0002, 8.783203
631.4823, 11.84326
631.9644, 15.08008
632.4465, 16.69922
632.9286, 16.74170
633.4108, 15.33936
633.8929, 10.16064
634.3750, 5.778320
634.8571, 4.413086
635.3392, 6.290039
635.8214, 7.808105
636.3035, 9.657227
636.7856, 10.32666
637.2677, 8.553711
637.7498, 3.899902
638.2319, 0.7314450
638.7141, 0.6425780
639.1962, 1.541016
639.6783, 3.753418
640.1604, 6.719238
640.6425, 8.253906
641.1246, 7.770508
641.6068, 6.354004
642.0889, 4.400879
642.5710, 2.414063
643.0531, 1.330078
643.5352, 2.568359
644.0173, 3.701660
644.4995, 3.767090
644.9816, 3.009277
645.4637, 2.043945
645.9458, 0.7089840
646.4279, 0.3969730
646.9100, 0.7773440
647.3922, 0.5747070
647.8743, 1.922852
648.3564, 5.617188
648.8385, 8.486816
649.3206, 7.965820
649.8027, 4.568359
650.2849, 2.890137
650.7670, 2.986328
651.2491, 4.154785
651.7312, 6.765137
652.2133, 9.700195
652.6954, 11.07178
653.1776, 10.30029
653.6597, 8.972656
654.1418, 7.551270
654.6239, 6.357910
655.1060, 5.770508
655.5881, 5.515137
656.0703, 6.340332
656.5524, 9.893066
657.0345, 14.18213
657.5166, 15.44238
657.9987, 12.50732
658.4808, 9.514648
658.9630, 7.409668
659.4451, 5.915527
659.9272, 3.664551
660.4093, 0.6557620
660.8914, 1.019043
661.3735, 1.525391
661.8557, 5.550293
662.3378, 5.349121
662.8199, 1.404297
663.3020, 2.041504
663.7841, 0.8896480
664.2662, 0.9809570
664.7484, 0.3491210
665.2305, 6.184570
665.7126, 9.199707
666.1947, 4.741211
666.6768, 1.217285
667.1589, 4.312012
667.6411, 2.672363
668.1232, 2.242188
668.6053, 3.745117
669.0874, 5.324219
669.5695, 3.358887
670.0516, 2.137695
670.5338, 2.943359
671.0159, 3.956543
671.4980, 12.85107
671.9801, 14.90430
672.4622, 11.93164
672.9443, 8.821777
673.4265, 7.524414
673.9086, 6.963867
674.3907, 6.454590
674.8728, 6.149414
675.3549, 6.408203
675.8370, 9.092773
676.3192, 10.69141
676.8013, 8.428711
677.2834, 2.953613
677.7655, 3.007813
678.2476, 11.61865
678.7297, 19.51025
679.2119, 21.58398
679.6940, 18.13965
680.1761, 14.11670
680.6582, 9.310059
681.1403, 6.015625
681.6224, 7.303711
682.1046, 11.14453
682.5867, 13.67920
683.0688, 14.36377
683.5509, 14.38525
684.0330, 14.05957
684.5151, 13.74072
684.9973, 13.83838
685.4794, 14.80273
685.9615, 15.57617
686.4436, 15.68359
686.9257, 15.71240
687.4078, 16.63623
687.8900, 19.62109
688.3721, 20.18408
688.8542, 16.59082
689.3363, 11.66357
689.8184, 12.36230
690.3005, 18.11963
690.7827, 21.70166
691.2648, 19.05811
691.7469, 14.02588
692.2290, 12.05127
692.7111, 12.35938
693.1932, 12.52832
693.6754, 9.014648
694.1575, 7.000000
694.6396, 11.45605
695.1217, 21.58203
695.6038, 27.08398
696.0859, 21.86865
696.5681, 16.19482
697.0502, 13.98096
697.5323, 15.32031
698.0144, 15.94727
698.4965, 16.18213
698.9786, 15.19531
699.4608, 10.59766
699.9429, 3.962402
700.4250, 3.319336
700.9071, 9.404297
701.3892, 15.46973
701.8713, 15.03906
702.3535, 11.60205
702.8356, 9.430664
703.3177, 9.663086
703.7998, 10.34717
704.2819, 11.09473
704.7640, 11.65527
705.2462, 11.77100
705.7283, 11.42480
706.2104, 10.61719
706.6925, 8.864258
707.1746, 7.006836
707.6567, 6.388672
708.1389, 7.030273
708.6210, 8.282715
709.1031, 10.24512
709.5852, 12.40527
710.0673, 14.22217
710.5494, 15.67139
711.0316, 16.67578
711.5137, 17.06055
711.9958, 16.69580
712.4779, 14.67578
712.9600, 11.79688
713.4421, 10.39014
713.9243, 12.10449
714.4064, 14.34082
714.8885, 16.93164
715.3706, 19.64600
715.8527, 20.08008
716.3348, 17.37451
716.8170, 14.88428
717.2991, 13.99707
717.7812, 14.61328
718.2633, 16.63428
718.7454, 20.13916
719.2275, 23.84668
719.7097, 26.66602
720.1918, 29.08398
720.6739, 32.25244
721.1560, 36.12646
721.6381, 38.71289
722.1202, 37.26709
722.6024, 35.21826
723.0845, 34.85547
723.5666, 37.37109
724.0487, 39.69873
724.5308, 41.29248
725.0129, 43.45703
725.4951, 47.72656
725.9772, 54.32617
726.4593, 60.20996
726.9414, 65.09863
727.4235, 69.33154
727.9056, 72.68896
728.3878, 75.73438
728.8699, 79.63184
729.3520, 84.36914
729.8341, 89.37598
730.3162, 94.35205
730.7983, 99.35107
731.2805, 104.5361
731.7626, 111.9185
732.2447, 116.8071
732.7268, 117.1172
733.2089, 115.6958
733.6910, 117.4487
734.1732, 123.2148
734.6553, 128.5474
735.1374, 132.2739
735.6195, 135.3164
736.1016, 140.0278
736.5837, 145.6841
737.0659, 149.3438
737.5480, 148.5703
738.0301, 146.4941
738.5122, 145.5713
738.9943, 145.5098
739.4764, 145.6362
739.9586, 146.4673
740.4407, 146.5942
740.9228, 145.5879
741.4049, 143.4917
741.8870, 139.8462
742.3691, 133.2681
742.8513, 129.1807
743.3334, 131.3164
743.8155, 137.3140
744.2976, 136.1528
744.7797, 128.2354
745.2618, 120.2529
745.7440, 116.3472
746.2261, 114.6567
746.7082, 113.9731
747.1903, 113.9146
747.6724, 111.9653
748.1545, 104.1689
748.6367, 96.58496
749.1188, 93.04980
749.6009, 94.25586
750.0830, 93.35156
750.5651, 89.74219
751.0472, 85.03760
751.5294, 79.19482
752.0115, 72.30908
752.4936, 70.63721
752.9757, 74.56592
753.4578, 77.22900
753.9399, 69.97510
754.4221, 58.82812
754.9042, 53.80615
755.3863, 56.53516
755.8684, 57.93311
756.3505, 51.17432
756.8326, 42.71680
757.3148, 37.91895
757.7969, 39.78320
758.2790, 38.42236
758.7611, 31.01025
759.2432, 24.19043
759.7253, 25.31348
760.2075, 34.65381
760.6896, 38.53125
761.1717, 35.39355
761.6538, 29.43945
762.1359, 24.45654
762.6180, 20.03271
763.1002, 15.21582
763.5823, 9.218750
764.0644, 4.878418
764.5465, 5.737305
765.0286, 8.134277
765.5107, 8.103516
765.9929, 2.197754
766.4750, 1.470703
766.9571, 1.604980
767.4392, 0.7011720
767.9213, 2.477539
768.4034, 7.094238
768.8856, 9.619629
769.3677, 9.030762
769.8498, 6.988281
770.3319, 5.388672
770.8140, 4.003906
771.2961, 2.182129
771.7783, 0.8774410
772.2604, 3.142578
772.7425, 2.142578
773.2246, 3.4667999E-02
773.7067, 0.2656250
774.1888, 7.352539
774.6710, 10.37451
775.1531, 6.737793
775.6352, 7.7147998E-02
776.1173, 3.101074
776.5994, 2.686523
777.0815, 1.568848
777.5637, 0.3500980
778.0458, 1.096680
778.5279, 2.882813
779.0100, 5.025391
779.4921, 7.607422
779.9742, 11.64404
780.4564, 14.86230
780.9385, 16.21387
781.4206, 16.02637
781.9027, 14.80469
782.3848, 10.53076
782.8669, 9.038086
783.3491, 12.77051
783.8312, 18.77979
784.3133, 19.15186
784.7954, 14.06348
785.2775, 9.625977
785.7596, 7.916016
786.2418, 7.993164
786.7239, 9.301270
787.2060, 11.37012
787.6881, 13.11328
788.1702, 13.51221
788.6523, 13.97168
789.1345, 14.58740
789.6166, 15.67090
790.0987, 18.26562
790.5808, 23.56885
791.0629, 27.79980
791.5450, 29.85693
792.0272, 30.36133
792.5093, 30.38037
792.9914, 30.04980
793.4735, 30.98975
793.9556, 34.85449
794.4377, 39.31445
794.9199, 42.04053
795.4020, 43.18750
795.8841, 42.99512
796.3662, 38.60547
796.8483, 36.11426
797.3304, 38.51709
797.8126, 44.53516
798.2947, 50.32275
798.7768, 56.09424
799.2589, 61.02295
799.7410, 64.56006
800.2231, 67.43359
800.7053, 71.20068
801.1874, 75.90332
801.6695, 81.89648
802.1516, 88.98193
802.6337, 97.71729
803.1158, 110.3003
803.5980, 124.9136
804.0801, 137.1650
804.5622, 140.3999
805.0443, 147.1211
805.5264, 161.8682
806.0085, 182.0767
806.4907, 198.8638
806.9728, 211.0210
807.4549, 226.2588
807.9370, 247.7446
808.4191, 273.3447
808.9012, 298.1509
809.3834, 323.1079
809.8655, 351.6025
810.3476, 388.1616
810.8297, 426.2397
811.3118, 460.8740
811.7939, 493.6035
812.2761, 528.6030
812.7582, 567.1851
813.2403, 607.2793
813.7224, 648.5737
814.2045, 691.1328
814.6866, 735.0166
815.1688, 779.4746
815.6509, 827.3462
816.1330, 881.0522
816.6151, 936.7051
817.0972, 987.2632
817.5793, 1034.881
818.0615, 1086.912
818.5436, 1149.438
819.0257, 1212.337
819.5078, 1271.553
819.9899, 1327.734
820.4720, 1382.702
820.9542, 1436.915
821.4363, 1487.755
821.9184, 1535.739
822.4005, 1578.894
822.8826, 1614.298
823.3647, 1641.880
823.8469, 1659.702
824.3290, 1670.273
824.8111, 1666.661
825.2932, 1639.115
825.7753, 1593.122
826.2574, 1540.612
826.7396, 1486.815
827.2217, 1424.379
827.7038, 1349.735
828.1859, 1267.174
828.6681, 1182.901
829.1502, 1097.760
829.6323, 1011.300
830.1144, 922.4756
830.5966, 835.6377
831.0787, 753.7661
831.5608, 677.2432
832.0429, 605.2661
832.5250, 537.5430
833.0071, 475.8296
833.4893, 420.5361
833.9714, 371.8970
834.4535, 329.5801
834.9356, 294.2964
835.4177, 263.0303
835.8998, 235.9136
836.3820, 212.5591
836.8641, 191.8647
837.3462, 174.0737
837.8283, 161.1870
838.3104, 154.7036
838.7925, 149.5996
839.2747, 140.9150
839.7568, 130.4683
840.2389, 120.6406
840.7210, 111.5884
841.2031, 104.0034
841.6852, 99.30371
842.1674, 95.30908
842.6495, 90.14893
843.1316, 83.82959
843.6137, 76.27246
844.0958, 66.94238
844.5779, 58.48584
845.0601, 54.86377
845.5422, 54.20020
846.0243, 52.11475
846.5064, 47.42480
846.9885, 43.83545
847.4706, 44.32764
847.9528, 46.16455
848.4349, 47.02051
848.9170, 46.46973
849.3991, 45.34326
849.8812, 43.49707
850.3633, 41.11865
850.8455, 38.26221
851.3276, 34.93604
851.8097, 30.83301
852.2918, 25.87891
852.7739, 22.66748
853.2560, 25.99072
853.7382, 30.34521
854.2203, 30.04736
854.7024, 24.11133
855.1845, 18.95654
855.6666, 15.96680
856.1487, 14.10596
856.6309, 13.03369
857.1130, 12.75635
857.5951, 13.39600
858.0772, 15.04639
858.5593, 16.40820
859.0414, 15.93701
859.5236, 14.92090
860.0057, 15.36621
860.4878, 17.17773
860.9699, 19.46045
861.4520, 24.15625
861.9341, 27.07178
862.4163, 24.23340
862.8984, 16.84570
863.3805, 14.45312
863.8626, 18.62549
864.3447, 22.61328
864.8268, 23.81201
865.3090, 23.06055
865.7911, 21.31299
866.2732, 19.09766
866.7553, 18.68701
867.2374, 22.96729
867.7195, 27.63281
868.2017, 30.41992
868.6838, 31.47998
869.1659, 31.08643
869.6480, 28.77490
870.1301, 25.87402
870.6122, 22.10254
871.0944, 18.43262
871.5765, 17.95410
872.0586, 20.09521
872.5407, 19.93359
873.0228, 15.38721
873.5049, 9.754883
873.9871, 6.123047
874.4692, 3.619141
874.9513, 0.8364260
875.4334, 4.572266
875.9155, 7.210938
876.3976, 5.546387
876.8798, 2.108887
877.3619, 0.1376950
877.8440, 1.040039
878.3261, 2.771484
878.8082, 5.730469
879.2903, 8.354004
879.7725, 8.223145
880.2546, 6.929199
880.7367, 7.249023
881.2188, 10.30518
881.7009, 11.22998
882.1830, 4.910645
882.6652, 1.507324
883.1473, 2.397949
883.6294, 3.764160
884.1115, 4.751465
884.5936, 0.4858400
885.0757, 5.426758
885.5579, 3.869629
886.0400, 1.281250
886.5221, 5.025391
887.0042, 7.018555
887.4863, 6.255371
887.9684, 1.615723
888.4506, 8.880859
888.9327, 10.81787
889.4148, 7.629883
889.8969, 3.932617
890.3790, 0.5883790
890.8611, 4.473145
891.3433, 6.966797
891.8254, 8.425293
892.3075, 9.954590
892.7896, 11.39941
893.2717, 12.24609
893.7538, 10.59570
894.2360, 10.15234
894.7181, 13.76562
895.2002, 19.80029
895.6823, 23.64941
896.1644, 24.12402
896.6465, 24.30273
897.1287, 24.57959
897.6108, 24.92578
898.0929, 25.65234
898.5750, 26.65967
899.0571, 26.80615
899.5392, 25.75146
900.0214, 24.15723
900.5035, 22.36279
900.9856, 20.49658
901.4677, 18.61768
901.9498, 15.82666
902.4319, 15.02295
902.9141, 17.32520
903.3962, 20.00342
903.8783, 20.27246
904.3604, 18.41357
904.8425, 17.30420
905.3246, 17.11865
905.8068, 17.81738
906.2889, 20.10303
906.7710, 22.71924
907.2531, 24.65137
907.7352, 25.77637
908.2173, 26.18555
908.6995, 26.18652
909.1816, 25.09814
909.6637, 21.99756
910.1458, 17.47852
910.6279, 16.10254
911.1100, 17.67871
911.5922, 18.11523
912.0743, 13.44775
912.5564, 7.895020
913.0385, 5.851074
913.5206, 6.726563
914.0027, 7.857910
914.4849, 8.092285
914.9670, 9.287598
915.4491, 12.44629
915.9312, 16.25635
916.4133, 17.99316
916.8954, 17.67090
917.3776, 16.32129
917.8597, 14.06055
918.3418, 11.20850
918.8239, 5.943848
919.3060, 1.106445
919.7881, 1.141113
920.2703, 10.63477
920.7524, 17.72949
921.2345, 20.38721
921.7166, 20.40967
922.1987, 18.44678
922.6808, 14.35791
923.1630, 11.98682
923.6451, 11.53613
924.1272, 12.71631
924.6093, 15.75781
925.0914, 19.42969
925.5735, 22.70361
926.0557, 25.44580
926.5378, 27.46094
927.0199, 28.87842
927.5020, 29.21777
927.9841, 27.97803
928.4662, 25.50977
928.9484, 24.00244
929.4305, 23.51514
929.9126, 22.67139
930.3947, 20.86816
930.8768, 18.62451
931.3589, 15.91699
931.8411, 13.35596
932.3232, 12.25879
932.8053, 15.37451
933.2874, 16.63867
933.7695, 14.71533
934.2516, 11.63428
934.7338, 9.836914
935.2159, 9.261719
935.6980, 10.54053
936.1801, 14.28223
936.6622, 17.01660
937.1443, 12.75439
937.6265, 6.605469
938.1086, 5.173340
938.5907, 10.81689
939.0728, 15.83057
939.5549, 18.83105
940.0370, 20.79443
940.5192, 21.94141
941.0013, 22.33887
941.4834, 21.70264
941.9655, 19.84863
942.4476, 18.97754
942.9297, 23.30762
943.4119, 27.55225
943.8940, 24.97314
944.3761, 16.63623
944.8582, 10.04150
945.3403, 7.974121
945.8224, 6.907227
946.3046, 6.501465
946.7867, 6.498047
947.2688, 5.583008
947.7509, 4.042480
948.2330, 3.054199
948.7151, 2.748047
949.1973, 2.967773
949.6794, 5.006348
950.1615, 6.920410
950.6436, 6.029785
951.1257, 1.602539
951.6078, 4.609375
952.0900, 0.6396480
952.5721, 4.368652
953.0542, 5.110352
953.5363, 2.349121
954.0184, 0.1811520
954.5005, 1.234863
954.9827, 0.9565430
955.4648, 3.744629
955.9469, 8.588867
956.4290, 9.066895
956.9111, 5.581543
957.3932, 6.988770
957.8754, 16.50684
958.3575, 23.74219
958.8396, 24.59814
959.3217, 21.85645
959.8038, 22.15039
960.2859, 24.61084
960.7681, 26.21680
961.2502, 25.38477
961.7323, 24.21582
962.2144, 24.33545
962.6965, 24.66357
963.1786, 23.89258
963.6608, 22.29492
964.1429, 18.33154
964.6250, 10.85449
965.1071, 5.106934
965.5892, 9.964355
966.0714, 19.52100
966.5535, 20.29297
967.0356, 11.57764
967.5177, 4.145996
967.9998, 4.124023
968.4819, 6.390625
968.9641, 9.490234
969.4462, 12.79688
969.9283, 11.10596
970.4104, 3.384766
970.8925, 1.965820
971.3746, 1.073242
971.8568, 2.944824
972.3389, 6.153320
972.8210, 8.679688
973.3031, 10.92822
973.7852, 11.90283
974.2673, 14.01709
974.7495, 19.14941
975.2316, 24.39941
975.7137, 26.26758
976.1958, 24.62646
976.6779, 25.21289
977.1600, 28.80273
977.6422, 30.47021
978.1243, 22.99658
978.6064, 13.33643
979.0885, 10.18555
979.5706, 14.41846
980.0527, 15.01221
980.5349, 6.777344
981.0170, 0.2246090
981.4991, 2.804688
981.9812, 1.485840
982.4633, 3.553223
982.9454, 11.44287
983.4276, 17.01270
983.9097, 17.51514
984.3918, 15.85059
984.8739, 13.47510
985.3560, 10.52002
985.8381, 7.012695
986.3203, 1.448242
986.8024, 1.028809
987.2845, 0.2880860
987.7666, 3.600098
988.2487, 8.681152
988.7308, 14.05713
989.2130, 15.45264
989.6951, 12.60498
990.1772, 9.164551
990.6593, 5.917969
991.1414, 3.699219
991.6235, 3.257324
992.1057, 4.210449
992.5878, 5.014160
993.0699, 5.616699
993.5520, 5.888184
994.0341, 5.560059
994.5162, 5.120605
994.9984, 5.634277
995.4805, 6.478516
995.9626, 6.584473
996.4447, 5.551758
996.9268, 4.079590
997.4089, 1.780762
997.8911, 0.1098630
998.3732, 0.2285160
998.8553, 2.715332
999.3374, 2.444336
999.8195, 0.7675780
1000.302, 4.051758
1000.784, 6.484375
1001.266, 7.103516
1001.748, 4.129395
1002.230, 1.962402
1002.712, 6.322754
1003.194, 8.711426
1003.676, 8.686523
1004.159, 5.146973
1004.641, 0.3110350
1005.123, 1.607910
1005.605, 1.000000
1006.087, 1.196289
1006.569, 5.342773
1007.051, 9.571289
1007.533, 15.21045
1008.016, 19.08643
1008.498, 17.93701
1008.980, 10.11426
1009.462, 6.529785
1009.944, 8.218262
1010.426, 10.39258
1010.908, 7.980957
1011.390, 4.777344
1011.872, 7.110840
1012.355, 13.51270
1012.837, 17.50977
1013.319, 12.15967
1013.801, 10.73486
1014.283, 17.81348
1014.765, 28.16553
1015.247, 32.73096
1015.729, 31.88965
1016.211, 27.25342
1016.694, 18.20459
1017.176, 10.70654
1017.658, 11.36084
1018.140, 14.74414
1018.622, 15.93408
1019.104, 14.18262
1019.586, 13.16895
1020.068, 13.25684
1020.551, 13.27490
1021.033, 13.22070
1021.515, 12.31592
1021.997, 7.174805
1022.479, 0.4565430
1022.961, 5.390137
1023.443, 4.603027
1023.925, 1.724121
1024.407, 4.187500
1024.890, 10.20850
1025.372, 11.91113
1025.854, 9.062500
1026.336, 9.310059
1026.818, 13.65234
1027.300, 17.67383
1027.782, 16.56055
1028.264, 13.87256
1028.746, 13.12549
1029.229, 14.83838
1029.711, 15.50146
1030.193, 13.75537
1030.675, 13.16113
1031.157, 15.44629
1031.639, 18.97559
1032.121, 20.08154
1032.603, 19.39307
1033.086, 18.79541
1033.568, 19.29004
1034.050, 19.35205
1034.532, 17.96680
1035.014, 16.18652
1035.496, 15.21680
1035.978, 15.49854
1036.460, 13.13232
1036.943, 7.920410
1037.425, 3.563965
1037.907, 2.615234
1038.389, 4.000000
1038.871, 8.073730
1039.353, 13.59326
1039.835, 16.13086
1040.317, 11.06738
1040.799, 9.335449
1041.281, 13.55029
1041.764, 20.02051
1042.246, 22.56885
1042.728, 22.46240
1043.210, 24.23389
1043.692, 29.08838
1044.174, 32.38428
1044.656, 30.12207
1045.138, 26.74219
1045.621, 24.63525
1046.103, 23.81689
1046.585, 24.74805
1047.067, 27.60303
1047.549, 29.48926
1048.031, 28.99902
1048.513, 26.98291
1048.995, 22.72461
1049.478, 18.10059
1049.960, 16.29443
1050.442, 21.41064
1050.924, 24.37354
1051.406, 24.68799
1051.888, 23.66406
1052.370, 21.62598
1052.852, 19.37012
1053.334, 19.88965
1053.817, 23.13330
1054.299, 26.91797
1054.781, 31.85303
1055.263, 35.11719
1055.745, 34.24951
1056.227, 31.18115
1056.709, 30.41016
1057.191, 32.02588
1057.673, 33.24414
1058.156, 33.17285
1058.638, 33.13867
1059.120, 35.32959
1059.602, 38.17090
1060.084, 38.75488
1060.566, 35.21484
1061.048, 38.46777
1061.530, 52.89795
1062.013, 64.16162
1062.495, 63.74316
1062.977, 56.72607
1063.459, 55.08643
1063.941, 57.91455
1064.423, 62.63428
1064.905, 69.70117
1065.387, 76.34180
1065.870, 81.40918
1066.352, 85.64111
1066.834, 90.31738
1067.316, 95.56055
1067.798, 97.64502
1068.280, 96.41992
1068.762, 95.82031
1069.244, 99.64209
1069.726, 104.3633
1070.208, 106.1914
1070.691, 106.3599
1071.173, 110.7642
1071.655, 122.0039
1072.137, 129.6611
1072.619, 131.5493
1073.101, 130.7295
1073.583, 129.7275
1074.065, 129.1162
1074.548, 130.7222
1075.030, 135.1543
1075.512, 136.6304
1075.994, 132.6807
1076.476, 127.0718
1076.958, 120.2212
1077.440, 113.0229
1077.922, 109.8481
1078.405, 109.8237
1078.887, 108.4478
1079.369, 102.6934
1079.851, 97.54932
1080.333, 95.97168
1080.815, 96.17432
1081.297, 96.55322
1081.779, 96.98730
1082.261, 99.60889
1082.744, 104.5820
1083.226, 109.0879
1083.708, 109.3936
1084.190, 109.4985
1084.672, 113.6504
1085.154, 121.1797
1085.636, 129.8276
1086.118, 140.9526
1086.601, 149.3833
1087.083, 153.9233
1087.565, 156.9966
1088.047, 162.0303
1088.529, 167.7705
1089.011, 171.4521
1089.493, 172.7510
1089.975, 174.0620
1090.458, 173.9648
1090.940, 177.1167
1091.422, 186.5806
1091.904, 199.5684
1092.386, 207.0952
1092.868, 209.7393
1093.350, 211.4917
1093.832, 214.1646
1094.314, 214.0435
1094.797, 204.0952
1095.279, 193.3608
1095.761, 192.0000
1096.243, 201.2246
1096.725, 201.1753
1097.207, 191.0957
1097.689, 181.0186
1098.171, 177.9370
1098.653, 176.3223
1099.136, 169.6182
1099.618, 159.6646
1100.100, 149.9502
1100.582, 141.7715
1101.064, 132.3745
1101.546, 120.7720
1102.028, 110.0200
1102.510, 103.8745
1102.993, 100.1494
1103.475, 94.53369
1103.957, 86.87646
1104.439, 77.69629
1104.921, 64.73096
1105.403, 53.67773
1105.885, 46.45166
1106.367, 41.42285
1106.849, 35.67676
1107.332, 29.62939
1107.814, 25.15479
1108.296, 22.52979
1108.778, 21.78760
1109.260, 26.68896
1109.742, 29.94434
1110.224, 25.18701
1110.706, 14.50781
1111.188, 8.803711
1111.671, 8.062012
1112.153, 8.762695
1112.635, 9.881348
1113.117, 11.60205
1113.599, 15.60059
1114.081, 19.46045
1114.563, 19.68066
1115.045, 14.86133
1115.528, 12.28711
1116.010, 12.43311
1116.492, 12.82861
1116.974, 11.92432
1117.456, 10.65674
1117.938, 11.05273
1118.420, 12.24463
1118.902, 12.31982
1119.385, 8.770508
1119.867, 7.674316
1120.349, 11.11377
1120.831, 13.63086
1121.313, 8.297852
1121.795, 1.586914
1122.277, 6.546875
1122.759, 6.793457
1123.241, 5.425781
1123.724, 2.022949
1124.206, 0.2778320
1124.688, 0.1020510
1125.170, 1.210938
1125.652, 2.018066
1126.134, 2.240723
1126.616, 0.3710940
1127.098, 3.843750
1127.580, 6.648926
1128.063, 4.397461
1128.545, 1.044434
1129.027, 0.7617190
1129.509, 1.556641
1129.991, 3.824219
1130.473, 7.564453
1130.955, 10.11328
1131.437, 10.80273
1131.920, 9.890625
1132.402, 5.996582
1132.884, 1.675293
1133.366, 0.1762700
1133.848, 0.8872070
1134.330, 0.2573240
1134.812, 2.384277
1135.294, 4.804688
1135.776, 6.001953
1136.259, 6.328125
1136.741, 5.263672
1137.223, 3.966309
1137.705, 4.374512
1138.187, 7.696289
1138.669, 10.89502
1139.151, 14.08594
1139.633, 16.63672
1140.115, 17.29639
1140.598, 17.43604
1141.080, 21.77344
1141.562, 28.10205
1142.044, 30.41260
1142.526, 22.43555
1143.008, 16.07666
1143.490, 12.52051
1143.972, 11.38672
1144.455, 12.98340
1144.937, 16.66406
1145.419, 21.38770
1145.901, 26.55029
1146.383, 28.77393
1146.865, 23.69287
1147.347, 18.64941
1147.829, 16.34912
1148.312, 14.87891
1148.794, 9.761230
1149.276, 2.163086
1149.758, 1.632813
1150.240, 9.369141
1150.722, 15.46875
1151.204, 10.74463
1151.686, 5.401855
1152.168, 4.962402
1152.651, 8.237305
1153.133, 12.56885
1153.615, 17.82178
1154.097, 22.12451
1154.579, 25.17236
1155.061, 25.91504
1155.543, 20.47949
1156.025, 14.67090
1156.507, 14.00488
1156.990, 17.94922
1157.472, 21.94336
1157.954, 26.19092
1158.436, 27.51367
1158.918, 23.60645
1159.400, 19.56104
1159.882, 21.30762
1160.364, 25.38623
1160.847, 27.55322
1161.329, 26.94238
1161.811, 27.91650
1162.293, 30.57812
1162.775, 34.00635
1163.257, 38.74561
1163.739, 42.66309
1164.221, 42.33398
1164.703, 39.57422
1165.186, 37.43799
1165.668, 36.72803
1166.150, 36.04150
1166.632, 35.54785
1167.114, 34.26465
1167.596, 30.48096
1168.078, 26.07959
1168.560, 23.58154
1169.042, 23.07520
1169.525, 24.85254
1170.007, 33.16699
1170.489, 36.65088
1170.971, 33.69482
1171.453, 28.76514
1171.935, 25.19971
1172.417, 23.14795
1172.899, 23.90967
1173.382, 26.75684
1173.864, 27.89307
1174.346, 24.42773
1174.828, 21.45996
1175.310, 19.65332
1175.792, 18.60547
1176.274, 18.27393
1176.756, 18.13428
1177.239, 15.86279
1177.721, 11.65381
1178.203, 11.07373
1178.685, 19.80811
1179.167, 27.99561
1179.649, 33.80225
1180.131, 36.68115
1180.613, 35.32129
1181.095, 30.92627
1181.578, 25.98438
1182.060, 20.61084
1182.542, 18.54736
1183.024, 26.44775
1183.506, 31.90186
1183.988, 29.62061
1184.470, 23.10693
1184.952, 19.73438
1185.434, 19.38379
1185.917, 22.97070
1186.399, 31.90723
1186.881, 37.97314
1187.363, 34.33447
1187.845, 29.79395
1188.327, 27.83398
1188.809, 28.56641
1189.291, 34.88184
1189.774, 44.90674
1190.256, 49.34912
1190.738, 43.04590
1191.220, 36.75293
1191.702, 35.77783
1192.184, 36.29199
1192.666, 35.35010
1193.148, 33.59766
1193.630, 37.42236
1194.113, 45.51025
1194.595, 49.93262
1195.077, 45.12500
1195.559, 40.25537
1196.041, 40.42920
1196.523, 42.05225
1197.005, 42.38428
1197.487, 41.53076
1197.969, 41.49805
1198.452, 42.01709
1198.934, 41.02344
1199.416, 35.10596
1199.898, 30.40430
1200.380, 30.92676
1200.862, 33.38037
1201.344, 34.75146
1201.826, 35.06396
1202.309, 34.88916
1202.791, 34.18018
1203.273, 32.27051
1203.755, 26.82910
1204.237, 22.29443
1204.719, 21.47363
1205.201, 22.47363
1205.683, 22.86621
1206.166, 22.62451
1206.648, 25.29248
1207.130, 30.69824
1207.612, 35.19336
1208.094, 36.15430
1208.576, 35.76514
1209.058, 34.24121
1209.540, 32.52979
1210.022, 32.36475
1210.505, 33.69385
1210.987, 33.14062
1211.469, 30.53320
1211.951, 27.84180
1212.433, 25.68604
1212.915, 24.68994
1213.397, 26.40430
1213.879, 28.98926
1214.361, 28.60840
1214.844, 25.61719
1215.326, 26.25439
1215.808, 31.24854
1216.290, 34.68408
1216.772, 29.48291
1217.254, 24.83350
1217.736, 26.64600
1218.218, 32.03760
1218.701, 35.06982
1219.183, 36.01562
1219.665, 36.81543
1220.147, 37.75000
1220.629, 37.40283
1221.111, 29.52100
1221.593, 25.18750
1222.075, 34.00244
1222.557, 49.00049
1223.040, 51.48584
1223.522, 43.08740
1224.004, 36.04395
1224.486, 32.60010
1224.968, 30.71143
1225.450, 30.49414
1225.932, 30.11426
1226.414, 28.30615
1226.896, 25.93066
1227.379, 25.89648
1227.861, 27.73389
1228.343, 29.08838
1228.825, 29.64355
1229.307, 28.30371
1229.789, 21.47754
1230.271, 15.76416
1230.753, 14.34082
1231.236, 16.35498
1231.718, 20.51758
1232.200, 25.76562
1232.682, 27.33105
1233.164, 23.34766
1233.646, 18.90820
1234.128, 15.02588
1234.610, 13.24365
1235.093, 15.74414
1235.575, 19.98535
1236.057, 15.80322
1236.539, 6.161621
1237.021, 1.176758
1237.503, 4.950684
1237.985, 8.823242
1238.467, 10.23633
1238.949, 10.00391
1239.432, 7.202148
1239.914, 3.783691
1240.396, 8.036621
1240.878, 16.79248
1241.360, 20.67139
1241.842, 15.12158
1242.324, 10.66602
1242.806, 9.569824
1243.288, 10.22998
1243.771, 12.55664
1244.253, 15.66064
1244.735, 17.74072
1245.217, 18.76514
1245.699, 18.31104
1246.181, 14.77881
1246.663, 14.54639
1247.145, 20.22607
1247.628, 24.59131
1248.110, 22.02783
1248.592, 17.29297
1249.074, 23.20361
1249.556, 33.78711
1250.038, 36.99414
1250.520, 24.74561
1251.002, 17.84619
1251.484, 18.14404
1251.967, 20.64648
1252.449, 23.64697
1252.931, 25.82031
1253.413, 23.64746
1253.895, 19.61035
1254.377, 18.18164
1254.859, 21.10449
1255.341, 24.57227
1255.823, 28.95801
1256.306, 31.83643
1256.788, 30.38525
1257.270, 28.24463
1257.752, 31.11328
1258.234, 35.86182
1258.716, 37.20068
1259.198, 33.96680
1259.680, 31.68115
1260.163, 30.64307
1260.645, 28.50195
1261.127, 22.47021
1261.609, 16.68018
1262.091, 16.64307
1262.573, 18.22754
1263.055, 14.82324
1263.537, 4.801270
1264.020, 2.336914
1264.502, 7.265137
1264.984, 11.84277
1265.466, 7.533203
1265.948, 6.239746
1266.430, 22.96875
1266.912, 41.69141
1267.394, 42.53857
1267.876, 25.06641
1268.359, 19.02100
1268.841, 23.20215
1269.323, 26.86133
1269.805, 24.73975
1270.287, 20.20508
1270.769, 11.33252
1271.251, 3.797852
1271.733, 3.214355
1272.215, 8.533203
1272.698, 11.02197
1273.180, 10.98486
1273.662, 9.420898
1274.144, 5.570801
1274.626, 1.961914
1275.108, 2.371582
1275.590, 4.154297
1276.072, 2.108887
1276.555, 12.43115
1277.037, 11.31543
1277.519, 2.307617
1278.001, 4.071777
1278.483, 4.305176
1278.965, 6.6405997E-02
1279.447, 10.51074
1279.929, 19.81201
1280.411, 20.39160
1280.894, 16.57227
1281.376, 16.59863
1281.858, 18.62061
1282.340, 18.32617
1282.822, 11.95947
1283.304, 10.08203
1283.786, 13.81641
1284.268, 16.77197
1284.750, 11.96338
1285.233, 6.437988
1285.715, 10.00928
1286.197, 18.07861
1286.679, 22.33740
1287.161, 20.78955
1287.643, 22.32422
1288.125, 26.64502
1288.607, 29.87061
1289.090, 31.57031
1289.572, 29.98145
1290.054, 22.87158
1290.536, 16.89307
1291.018, 18.05908
1291.500, 26.77539
1291.982, 29.37988
1292.464, 26.34277
1292.947, 22.30127
1293.429, 19.84961
1293.911, 16.79980
1294.393, 11.41992
1294.875, 6.267090
1295.357, 3.304199
1295.839, 2.199707
1296.321, 0.7158200
1296.803, 0.4067380
1297.286, 1.010254
1297.768, 9.726074
1298.250, 14.41992
1298.732, 12.11475
1299.214, 6.301758
1299.696, 2.668457
1300.178, 3.2715000E-02
1300.660, 0.0000000E+00
##END=



