##NAMES=Magnesioalterite
##RRUFFID=R180015
##IDEAL CHEMISTRY=Mg_2_Fe^3+^_4_(S^6+^O_4_)_4_((C_2_)^6+^O_4_)_2_(OH)_4_&#183;17H_2_O
##LOCALITY=Near Marble Canyon, Coconino County, Arizona, USA
##OWNER=RRUFF
##SOURCE=Malcom Alter
##DESCRIPTION=Isolated or aggregates of yellow brown prismatic crystals on petrified wood, associated with greenish prismatic alterite, gypsum, alunogen, and sulfur. Type sample.
##STATUS=The identification of this mineral is confirmed by single-crystal X-ray diffraction and chemical analysis.
##URL=rruff.info/R180015
##MEASURED CHEMISTRY=(Mg_0.74_Zn_0.60_Fe^2+^_0.58_Mn_0.09_)Fe^3+^_4_(SO_4_)_4.0_(C_2_O_4_)_2.0_(OH)_4.0_Â·17H_2_O
88.13672, 0.0000000E+00
88.61884, 0.1963200
89.10095, 0.5672760
89.58307, 1.258942
90.06519, 1.931496
90.54730, 2.177681
91.02942, 1.959480
91.51154, 1.712372
91.99365, 1.968102
92.47577, 2.908943
92.95789, 3.415184
93.44000, 3.346527
93.92212, 2.990929
94.40424, 2.356400
94.88635, 1.587479
95.36847, 0.8421100
95.85059, 0.2794040
96.33270, 0.1107030
96.81482, 0.3091890
97.29694, 0.1965180
97.77905, 0.1962200
98.26117, 0.3746800
98.74329, 0.2331700
99.22540, 7.7408001E-02
99.70752, 0.1693650
100.1896, 5.0430000E-03
100.6718, 0.1939240
101.1539, 0.2528080
101.6360, 0.1200640
102.1181, 0.1075900
102.6002, 0.2922210
103.0823, 0.6392590
103.5645, 0.8366780
104.0466, 0.6625290
104.5287, 0.6387100
105.0108, 1.271736
105.4929, 3.030373
105.9750, 4.590637
106.4572, 5.650711
106.9393, 6.141792
107.4214, 6.888771
107.9035, 8.198044
108.3856, 9.623550
108.8677, 10.65141
109.3499, 10.79394
109.8320, 11.04668
110.3141, 11.70838
110.7962, 13.06209
111.2783, 14.00591
111.7604, 14.07960
112.2426, 13.78561
112.7247, 13.88419
113.2068, 14.88490
113.6889, 15.99395
114.1710, 16.86378
114.6531, 17.28400
115.1353, 17.78004
115.6174, 18.65890
116.0995, 19.74048
116.5816, 20.58319
117.0637, 20.79556
117.5458, 20.83347
118.0280, 21.01352
118.5101, 21.49196
118.9922, 22.01940
119.4743, 22.49552
119.9564, 22.91710
120.4385, 23.25906
120.9207, 23.44147
121.4028, 23.55542
121.8849, 23.69656
122.3670, 23.82817
122.8491, 24.05529
123.3312, 24.57890
123.8134, 25.37900
124.2955, 26.07440
124.7776, 26.32044
125.2597, 26.23332
125.7418, 26.05299
126.2239, 25.69642
126.7061, 25.35246
127.1882, 25.33910
127.6703, 25.66856
128.1524, 26.21825
128.6345, 27.06049
129.1166, 28.09135
129.5988, 28.85447
130.0809, 28.85474
130.5630, 28.37137
131.0451, 28.40896
131.5272, 29.08941
132.0093, 30.03815
132.4915, 30.74234
132.9736, 31.20020
133.4557, 31.59654
133.9378, 32.05626
134.4199, 32.56564
134.9020, 32.88861
135.3842, 32.96556
135.8663, 32.88397
136.3484, 32.83727
136.8305, 32.82593
137.3126, 32.82057
137.7947, 32.70486
138.2769, 32.40089
138.7590, 32.57285
139.2411, 33.49628
139.7232, 34.89452
140.2053, 35.59134
140.6874, 35.40218
141.1696, 34.91676
141.6517, 34.52827
142.1338, 34.26355
142.6159, 34.04897
143.0980, 33.92230
143.5801, 33.87070
144.0623, 33.71082
144.5444, 33.51247
145.0265, 33.14224
145.5086, 32.43809
145.9907, 30.82113
146.4728, 29.71968
146.9550, 29.50833
147.4371, 30.26344
147.9192, 30.67754
148.4013, 30.46371
148.8834, 30.07052
149.3655, 29.91550
149.8477, 30.45445
150.3298, 30.74144
150.8119, 30.49961
151.2940, 29.59380
151.7761, 28.92673
152.2583, 28.80231
152.7404, 28.83200
153.2225, 28.61872
153.7046, 27.86398
154.1867, 27.11127
154.6688, 26.45238
155.1510, 25.86210
155.6331, 25.51073
156.1152, 25.73450
156.5973, 26.15261
157.0794, 26.24813
157.5615, 25.45042
158.0437, 24.70404
158.5258, 24.47334
159.0079, 25.05933
159.4900, 25.39305
159.9721, 24.77065
160.4542, 23.72070
160.9364, 23.17031
161.4185, 24.12407
161.9006, 25.18935
162.3827, 25.48305
162.8648, 24.48154
163.3469, 23.60484
163.8291, 23.73820
164.3112, 24.48798
164.7933, 24.94149
165.2754, 24.30478
165.7575, 23.42802
166.2396, 23.02810
166.7218, 23.56660
167.2039, 23.99414
167.6860, 23.40321
168.1681, 22.10658
168.6502, 21.06795
169.1323, 20.94974
169.6145, 21.31171
170.0966, 21.74577
170.5787, 22.23292
171.0608, 22.65173
171.5429, 22.92553
172.0250, 23.05276
172.5072, 23.02026
172.9893, 22.65920
173.4714, 22.17599
173.9535, 21.88361
174.4356, 22.02586
174.9177, 22.19182
175.3999, 21.95953
175.8820, 21.34335
176.3641, 20.50691
176.8462, 19.29980
177.3283, 17.97060
177.8104, 17.01835
178.2926, 16.80302
178.7747, 16.85063
179.2568, 16.54047
179.7389, 15.88280
180.2210, 15.00238
180.7031, 13.89257
181.1853, 12.64088
181.6674, 11.48170
182.1495, 10.42006
182.6316, 9.540817
183.1137, 9.144211
183.5958, 9.234489
184.0780, 9.391273
184.5601, 9.183220
185.0422, 8.666718
185.5243, 8.107803
186.0064, 7.511665
186.4885, 6.993614
186.9707, 7.012314
187.4528, 7.627182
187.9349, 8.156479
188.4170, 7.789833
188.8991, 6.628174
189.3812, 5.434601
189.8634, 4.342392
190.3455, 3.407677
190.8276, 2.872421
191.3097, 2.771233
191.7918, 2.864944
192.2739, 2.987610
192.7561, 3.134453
193.2382, 3.037148
193.7203, 2.435425
194.2024, 1.472969
194.6845, 1.038376
195.1666, 1.224419
195.6488, 1.618225
196.1309, 1.745979
196.6130, 1.595879
197.0951, 1.363335
197.5772, 1.082024
198.0593, 0.7603760
198.5415, 0.4842680
199.0236, 0.2520900
199.5057, 7.7468999E-02
199.9878, 2.9015001E-02
200.4699, 6.9274999E-02
200.9520, 7.0039998E-03
201.4342, 0.2875980
201.9163, 0.7663350
202.3984, 1.032104
202.8805, 1.064011
203.3626, 0.9345470
203.8447, 0.6903610
204.3269, 0.2915420
204.8090, 2.5108000E-02
205.2911, 0.1659160
205.7732, 0.1290970
206.2553, 7.8156002E-02
206.7374, 7.7820001E-03
207.2196, 6.0920998E-02
207.7017, 9.2468001E-02
208.1838, 7.0556998E-02
208.6659, 6.0387000E-02
209.1480, 0.1299590
209.6301, 0.3016660
210.1123, 0.1572950
210.5944, 0.4748540
211.0765, 1.200272
211.5586, 1.473206
212.0407, 1.238358
212.5228, 0.6888580
213.0050, 0.2666400
213.4871, 1.722321
213.9692, 2.584206
214.4513, 2.688187
214.9334, 2.376862
215.4155, 2.087753
215.8977, 1.767830
216.3798, 1.610374
216.8619, 1.769699
217.3440, 2.331696
217.8261, 2.471657
218.3082, 1.991859
218.7904, 1.291016
219.2725, 0.9294820
219.7546, 1.014465
220.2367, 1.218163
220.7188, 1.482582
221.2009, 1.837532
221.6831, 2.059723
222.1652, 2.065628
222.6473, 2.018776
223.1294, 2.181450
223.6115, 2.750549
224.0936, 3.134216
224.5758, 3.127754
225.0579, 2.663452
225.5400, 2.271385
226.0221, 1.890778
226.5042, 1.634476
226.9863, 1.694000
227.4685, 2.278534
227.9506, 2.784660
228.4327, 3.045166
228.9148, 3.032295
229.3969, 2.983315
229.8790, 2.887115
230.3612, 2.760010
230.8433, 2.611877
231.3254, 2.391724
231.8075, 2.237160
232.2896, 2.199249
232.7717, 2.293716
233.2539, 2.354057
233.7360, 2.394554
234.2181, 2.388809
234.7002, 2.301628
235.1823, 2.105392
235.6644, 1.883522
236.1466, 1.657188
236.6287, 1.431786
237.1108, 1.170044
237.5929, 0.8335340
238.0750, 0.5071560
238.5571, 0.2845990
239.0393, 0.2063670
239.5214, 0.1695790
240.0035, 0.2196960
240.4856, 0.3768310
240.9677, 0.1906810
241.4498, 0.6712490
241.9320, 1.559265
242.4141, 1.814827
242.8962, 1.043732
243.3783, 0.3928380
243.8604, 0.1081310
244.3425, 0.1915050
244.8247, 0.1862950
245.3068, 0.1054150
245.7889, 7.2029002E-02
246.2710, 0.3718720
246.7531, 0.8331910
247.2352, 1.350021
247.7174, 2.011612
248.1995, 2.786964
248.6816, 3.113953
249.1637, 2.766495
249.6458, 2.242935
250.1279, 1.934044
250.6101, 1.897720
251.0922, 1.956413
251.5743, 2.095726
252.0564, 2.316566
252.5385, 2.605423
253.0206, 2.935089
253.5028, 3.375679
253.9849, 4.002197
254.4670, 4.961784
254.9491, 5.738647
255.4312, 6.130753
255.9133, 6.268280
256.3955, 6.970215
256.8776, 8.693810
257.3597, 10.27939
257.8418, 10.86382
258.3239, 9.847504
258.8061, 9.487076
259.2882, 10.18005
259.7703, 11.60963
260.2524, 12.54463
260.7345, 12.78864
261.2166, 12.91599
261.6988, 13.31121
262.1809, 14.18204
262.6630, 14.60085
263.1451, 14.36338
263.6272, 13.72896
264.1093, 13.34892
264.5915, 13.17049
265.0736, 13.35968
265.5557, 14.20590
266.0378, 16.06290
266.5199, 16.99981
267.0020, 16.64451
267.4842, 15.62447
267.9663, 15.34579
268.4484, 16.09161
268.9305, 16.69928
269.4126, 16.59613
269.8947, 15.62824
270.3769, 14.98570
270.8590, 14.73112
271.3411, 14.68781
271.8232, 14.67301
272.3053, 14.75843
272.7874, 14.57416
273.2696, 13.82829
273.7517, 12.46402
274.2338, 11.66073
274.7159, 11.60303
275.1980, 11.73991
275.6801, 11.24000
276.1623, 10.00114
276.6444, 8.968262
277.1265, 8.471336
277.6086, 8.481010
278.0907, 8.226578
278.5728, 7.683121
279.0550, 7.074783
279.5371, 6.625252
280.0192, 6.383537
280.5013, 6.225418
280.9834, 6.093582
281.4655, 6.021889
281.9477, 6.227272
282.4298, 6.763573
282.9119, 7.273102
283.3940, 7.355537
283.8761, 7.017456
284.3582, 6.748833
284.8404, 6.652985
285.3225, 6.701149
285.8046, 6.897049
286.2867, 7.267654
286.7688, 7.489647
287.2509, 7.219139
287.7331, 6.510818
288.2152, 5.818489
288.6973, 5.132217
289.1794, 4.605026
289.6615, 4.748001
290.1436, 5.554031
290.6258, 6.260117
291.1079, 6.244438
291.5900, 5.669907
292.0721, 5.212090
292.5542, 4.930717
293.0363, 4.848763
293.5185, 5.138412
294.0006, 5.754982
294.4827, 6.264557
294.9648, 6.384018
295.4469, 6.217781
295.9290, 6.007904
296.4112, 5.748924
296.8933, 5.544304
297.3754, 5.527565
297.8575, 5.677368
298.3396, 5.915749
298.8217, 6.323677
299.3039, 6.743492
299.7860, 6.850052
300.2681, 6.638603
300.7502, 6.462364
301.2323, 6.746208
301.7144, 7.292038
302.1966, 7.633102
302.6787, 7.369576
303.1608, 6.940178
303.6429, 6.985298
304.1250, 7.477837
304.6071, 7.882446
305.0893, 7.585754
305.5714, 6.970840
306.0535, 6.665077
306.5356, 7.068779
307.0177, 7.612968
307.4998, 7.712227
307.9820, 7.446075
308.4641, 7.252182
308.9462, 7.580452
309.4283, 8.068352
309.9104, 8.291580
310.3925, 8.008698
310.8747, 7.693451
311.3568, 7.696655
311.8389, 7.933502
312.3210, 8.168930
312.8031, 8.227989
313.2852, 8.253479
313.7674, 8.390472
314.2495, 8.780762
314.7316, 9.032036
315.2137, 8.744911
315.6958, 8.193329
316.1779, 7.846916
316.6601, 8.305351
317.1422, 8.721329
317.6243, 8.554779
318.1064, 7.647331
318.5885, 6.883141
319.0706, 6.571365
319.5528, 6.537308
320.0349, 6.582497
320.5170, 6.928368
320.9991, 7.092720
321.4812, 6.779320
321.9633, 5.982491
322.4455, 5.452362
322.9276, 5.640320
323.4097, 5.976631
323.8918, 6.036797
324.3739, 5.479019
324.8560, 4.967461
325.3382, 4.680672
325.8203, 4.564819
326.3024, 4.272591
326.7845, 3.356544
327.2666, 2.567184
327.7487, 2.289009
328.2309, 3.260376
328.7130, 3.709862
329.1951, 3.292274
329.6772, 2.370987
330.1593, 1.858269
330.6414, 2.130234
331.1236, 2.388405
331.6057, 2.373734
332.0878, 2.045868
332.5699, 1.531197
333.0520, 0.5779040
333.5341, 0.3940280
334.0163, 0.6944270
334.4984, 0.1329040
334.9805, 0.7346950
335.4626, 0.6022870
335.9447, 0.3205340
336.4268, 0.4412000
336.9090, 0.6324160
337.3911, 1.904160
337.8732, 2.306206
338.3553, 1.588753
338.8374, 1.024582
339.3195, 0.8596340
339.8017, 1.015091
340.2838, 1.120758
340.7659, 1.150475
341.2480, 1.216812
341.7301, 1.467934
342.2122, 1.916519
342.6944, 2.092827
343.1765, 1.834625
343.6586, 1.447815
344.1407, 1.694626
344.6228, 2.591087
345.1049, 3.374451
345.5871, 3.509201
346.0692, 3.126953
346.5513, 2.972115
347.0334, 3.099907
347.5155, 3.327522
347.9977, 3.410919
348.4798, 3.381920
348.9619, 3.405243
349.4440, 3.650452
349.9261, 3.958511
350.4082, 3.937805
350.8904, 3.588196
351.3725, 3.253944
351.8546, 3.237106
352.3367, 3.449013
352.8188, 3.738655
353.3009, 4.233002
353.7831, 4.570381
354.2652, 4.170532
354.7473, 3.182892
355.2294, 2.294609
355.7115, 1.987144
356.1936, 1.984726
356.6758, 2.023605
357.1579, 2.100296
357.6400, 2.094398
358.1221, 1.817192
358.6042, 1.403641
359.0863, 1.113487
359.5685, 1.124092
360.0506, 1.250427
360.5327, 1.458794
361.0148, 1.775795
361.4969, 1.869057
361.9790, 1.400337
362.4612, 0.7112730
362.9433, 0.1607060
363.4254, 0.1228030
363.9075, 0.2888720
364.3896, 0.3696750
364.8717, 0.3695140
365.3539, 0.3066330
365.8360, 9.7061001E-02
366.3181, 0.1123500
366.8002, 0.2353440
367.2823, 0.2035450
367.7644, 0.1583330
368.2466, 0.1124500
368.7287, 5.8318999E-02
369.2108, 2.4901999E-02
369.6929, 0.2335660
370.1750, 0.3696060
370.6571, 0.3185580
371.1393, 5.8173999E-02
371.6214, 0.1449050
372.1035, 0.2391510
372.5856, 0.7787090
373.0677, 1.039200
373.5498, 0.8502730
374.0320, 0.7576140
374.5141, 0.9208980
374.9962, 1.315941
375.4783, 1.624306
375.9604, 1.866364
376.4425, 1.968765
376.9247, 1.831131
377.4068, 1.421364
377.8889, 1.014381
378.3710, 0.6324920
378.8531, 0.2891160
379.3352, 5.5236999E-02
379.8174, 5.1895000E-02
380.2995, 0.2308730
380.7816, 0.6411440
381.2637, 1.244286
381.7458, 1.783432
382.2279, 2.263962
382.7101, 2.629105
383.1922, 2.873131
383.6743, 2.969040
384.1564, 2.765755
384.6385, 1.869377
385.1206, 0.7981800
385.6028, 0.5450970
386.0849, 1.081268
386.5670, 1.850632
387.0491, 2.669708
387.5312, 3.383743
388.0133, 3.715942
388.4955, 3.480209
388.9776, 3.062653
389.4597, 2.667038
389.9418, 2.345909
390.4239, 2.248009
390.9060, 2.704811
391.3882, 3.194580
391.8703, 3.306290
392.3524, 2.974136
392.8345, 2.766830
393.3166, 3.016151
393.7987, 3.464180
394.2809, 3.872719
394.7630, 4.264610
395.2451, 4.586342
395.7272, 4.823967
396.2093, 4.974571
396.6914, 5.020584
397.1736, 4.803841
397.6557, 4.593369
398.1378, 4.548508
398.6199, 5.031754
399.1020, 5.234802
399.5841, 4.849510
400.0663, 4.181580
400.5484, 3.991852
401.0305, 4.716972
401.5126, 5.371109
401.9947, 5.602074
402.4768, 5.308899
402.9590, 5.105499
403.4411, 4.971062
403.9232, 4.950691
404.4053, 5.140457
404.8874, 5.635780
405.3695, 6.014320
405.8517, 6.183662
406.3338, 6.178261
406.8159, 6.135422
407.2980, 6.047104
407.7801, 5.963486
408.2622, 5.858521
408.7444, 5.747780
409.2265, 5.878143
409.7086, 6.289513
410.1907, 6.906487
410.6728, 7.802521
411.1549, 8.898575
411.6371, 9.656845
412.1192, 9.673515
412.6013, 9.216133
413.0834, 8.607056
413.5655, 7.850304
414.0476, 7.511215
414.5298, 8.489693
415.0119, 10.10785
415.4940, 11.26002
415.9761, 11.51173
416.4582, 11.37939
416.9403, 11.05188
417.4225, 10.65516
417.9046, 10.54361
418.3867, 11.08572
418.8688, 11.85769
419.3509, 12.57977
419.8330, 13.21978
420.3152, 13.80338
420.7973, 14.41226
421.2794, 14.95024
421.7615, 15.31120
422.2436, 15.20057
422.7257, 15.20614
423.2079, 15.67294
423.6900, 16.54147
424.1721, 16.93745
424.6542, 16.15458
425.1363, 15.36221
425.6184, 15.17789
426.1006, 16.33017
426.5827, 16.73634
427.0648, 16.10705
427.5469, 14.86269
428.0290, 13.73486
428.5111, 12.68299
428.9933, 11.90846
429.4754, 11.52757
429.9575, 11.49706
430.4396, 11.26239
430.9217, 10.79914
431.4038, 10.30157
431.8860, 9.955452
432.3681, 9.747940
432.8502, 9.355965
433.3323, 8.699333
433.8144, 7.907516
434.2965, 7.130554
434.7787, 6.402443
435.2608, 5.982124
435.7429, 6.253502
436.2250, 6.888329
436.7071, 7.117409
437.1892, 6.887878
437.6714, 6.513000
438.1535, 6.183914
438.6356, 5.939522
439.1177, 5.850807
439.5998, 5.989944
440.0819, 6.219940
440.5641, 6.496086
441.0462, 6.787361
441.5283, 6.982086
442.0104, 6.921455
442.4925, 6.811485
442.9746, 6.723816
443.4568, 6.599930
443.9389, 6.808823
444.4210, 7.914589
444.9031, 9.247894
445.3852, 10.01569
445.8673, 9.498718
446.3495, 8.994080
446.8316, 8.683510
447.3137, 8.578255
447.7958, 8.769974
448.2779, 9.555199
448.7600, 10.33018
449.2422, 10.77632
449.7243, 10.70985
450.2064, 10.76007
450.6885, 10.97056
451.1706, 11.26239
451.6527, 11.46949
452.1349, 11.53696
452.6170, 11.79233
453.0991, 12.46131
453.5812, 13.41926
454.0633, 13.80083
454.5454, 13.55836
455.0276, 13.20120
455.5097, 13.19443
455.9918, 13.44849
456.4739, 13.51437
456.9560, 13.30314
457.4381, 12.95988
457.9203, 12.52002
458.4024, 12.07784
458.8845, 11.93393
459.3666, 12.65481
459.8488, 13.51288
460.3309, 13.55606
460.8130, 12.82305
461.2951, 12.11588
461.7772, 12.02577
462.2593, 12.18658
462.7415, 12.22706
463.2236, 11.88600
463.7057, 11.73086
464.1878, 12.39794
464.6699, 13.37277
465.1520, 13.66821
465.6342, 12.11163
466.1163, 10.71458
466.5984, 10.25288
467.0805, 10.90771
467.5626, 11.21941
468.0447, 10.82701
468.5269, 10.34854
469.0090, 10.23161
469.4911, 10.79015
469.9732, 11.05072
470.4553, 10.85511
470.9374, 10.39018
471.4196, 10.02804
471.9017, 9.737930
472.3838, 9.682518
472.8659, 10.02784
473.3480, 10.72007
473.8301, 11.21037
474.3123, 11.51903
474.7944, 11.52454
475.2765, 10.86288
475.7586, 9.733788
476.2407, 9.005165
476.7228, 8.884758
477.2050, 9.136086
477.6871, 9.511620
478.1692, 10.00474
478.6513, 10.59223
479.1334, 11.64258
479.6155, 12.54572
480.0977, 12.53875
480.5798, 11.61397
481.0619, 10.69722
481.5440, 10.24813
482.0261, 10.10007
482.5082, 10.12537
482.9904, 10.52866
483.4725, 10.74945
483.9546, 10.46900
484.4367, 9.905724
484.9188, 9.528648
485.4009, 9.615364
485.8831, 9.683121
486.3652, 9.605003
486.8473, 9.376518
487.3294, 9.074310
487.8115, 8.513176
488.2936, 8.096809
488.7758, 8.233414
489.2579, 9.244370
489.7400, 9.619995
490.2221, 9.092827
490.7042, 8.070213
491.1863, 7.301239
491.6685, 6.786072
492.1506, 6.449585
492.6327, 6.426369
493.1148, 6.534897
493.5969, 5.952423
494.0790, 4.675079
494.5612, 3.667725
495.0433, 4.047478
495.5254, 5.181007
496.0075, 5.892410
496.4896, 5.949051
496.9717, 5.591393
497.4539, 4.669731
497.9360, 3.519157
498.4181, 2.782333
498.9002, 3.246605
499.3823, 3.731438
499.8644, 3.534111
500.3466, 2.703293
500.8287, 1.908562
501.3108, 1.251198
501.7929, 0.7639010
502.2750, 0.4836430
502.7571, 0.5313720
503.2393, 0.5517350
503.7214, 0.5035100
504.2035, 0.4397660
504.6856, 0.4188160
505.1677, 0.4042660
505.6498, 0.5340120
506.1320, 0.9583970
506.6141, 1.556030
507.0962, 1.529320
507.5783, 0.7064290
508.0604, 1.9814000E-02
508.5425, 8.7050004E-03
509.0247, 0.7012020
509.5068, 1.184792
509.9889, 1.424210
510.4710, 1.471184
510.9531, 1.269272
511.4352, 0.9108120
511.9174, 0.6830060
512.3995, 0.7379070
512.8816, 0.9203570
513.3637, 0.9651260
513.8458, 0.9181210
514.3279, 1.023575
514.8101, 1.583534
515.2922, 2.275558
515.7743, 2.908424
516.2564, 3.466614
516.7385, 3.863037
517.2206, 3.879204
517.7028, 3.804596
518.1849, 3.883720
518.6670, 4.417633
519.1491, 4.855957
519.6312, 4.967651
520.1133, 4.956474
520.5955, 5.290802
521.0776, 6.009132
521.5597, 7.058510
522.0418, 8.557022
522.5239, 10.44264
523.0060, 11.61567
523.4882, 11.93125
523.9703, 12.12978
524.4524, 12.85967
524.9345, 14.06389
525.4166, 15.08658
525.8987, 15.82800
526.3809, 16.52290
526.8630, 17.55276
527.3451, 18.81319
527.8272, 19.95186
528.3093, 20.74190
528.7914, 21.43802
529.2736, 22.22466
529.7557, 23.14053
530.2378, 24.26694
530.7199, 25.92292
531.2020, 27.62254
531.6841, 28.99332
532.1663, 29.96084
532.6484, 30.82480
533.1305, 31.41349
533.6126, 32.07461
534.0947, 33.15356
534.5768, 35.18954
535.0590, 36.95245
535.5411, 38.25897
536.0232, 39.24889
536.5053, 40.25565
536.9874, 41.24360
537.4695, 42.31326
537.9517, 43.58994
538.4338, 45.03591
538.9159, 45.92125
539.3980, 46.16451
539.8801, 46.31973
540.3622, 47.04592
540.8444, 48.11941
541.3265, 48.59447
541.8086, 48.26489
542.2907, 47.64499
542.7728, 47.32024
543.2549, 47.15035
543.7371, 46.84032
544.2192, 46.27222
544.7013, 45.51888
545.1834, 44.55618
545.6655, 43.42181
546.1476, 42.30250
546.6298, 41.49537
547.1119, 40.54420
547.5940, 39.17263
548.0761, 37.25327
548.5582, 35.29913
549.0403, 33.27538
549.5225, 31.26594
550.0046, 29.35399
550.4867, 27.52382
550.9688, 25.80590
551.4509, 24.14244
551.9330, 22.63062
552.4152, 21.66054
552.8973, 21.33646
553.3794, 20.67719
553.8615, 19.12773
554.3436, 17.00929
554.8257, 15.45737
555.3079, 14.47521
555.7900, 13.61256
556.2721, 12.57010
556.7542, 11.42799
557.2363, 10.29855
557.7184, 9.184525
558.2006, 8.166687
558.6827, 7.339058
559.1648, 6.635666
559.6469, 5.955681
560.1290, 5.240211
560.6111, 4.583023
561.0933, 3.984001
561.5754, 3.466812
562.0575, 3.106720
562.5396, 3.147034
563.0217, 3.102394
563.5038, 2.778130
563.9860, 2.154083
564.4681, 1.788727
564.9502, 1.821877
565.4323, 1.855133
565.9144, 1.548714
566.3965, 0.8671650
566.8787, 0.3940350
567.3608, 0.1948700
567.8429, 0.1309280
568.3250, 9.3001999E-02
568.8071, 5.2147001E-02
569.2892, 0.1493840
569.7714, 0.7158580
570.2535, 1.259109
570.7356, 1.152351
571.2177, 0.5724560
571.6998, 0.1090320
572.1819, 0.1681820
572.6641, 0.3678210
573.1462, 0.4760970
573.6283, 0.4783100
574.1104, 0.4045030
574.5925, 1.8874999E-02
575.0746, 0.2724460
575.5568, 0.1718900
576.0389, 0.7135010
576.5210, 1.299446
577.0031, 1.441174
577.4852, 1.393742
577.9673, 1.550053
578.4495, 2.057354
578.9316, 2.224327
579.4137, 1.816780
579.8958, 1.054974
580.3779, 0.4907230
580.8600, 0.1253130
581.3422, 0.1466260
581.8243, 0.3749730
582.3064, 0.5469970
582.7885, 0.6477320
583.2706, 0.6812100
583.7527, 0.7191160
584.2349, 0.8369640
584.7170, 0.9735070
585.1991, 1.075424
585.6812, 1.148705
586.1633, 1.131210
586.6454, 0.7810060
587.1276, 0.4015500
587.6097, 0.3665770
588.0918, 0.8934780
588.5739, 1.596214
589.0560, 2.605537
589.5381, 3.740700
590.0203, 4.479919
590.5024, 4.806149
590.9845, 4.756214
591.4666, 4.174934
591.9487, 3.165386
592.4308, 2.704926
592.9130, 2.823856
593.3951, 3.249786
593.8772, 3.937443
594.3593, 4.762657
594.8414, 5.326385
595.3235, 5.562813
595.8057, 5.710106
596.2878, 5.880585
596.7699, 6.131119
597.2520, 6.567375
597.7341, 7.438911
598.2162, 8.182064
598.6984, 8.424908
599.1805, 8.351276
599.6626, 8.361862
600.1447, 8.468124
600.6268, 8.753471
601.1089, 9.349277
601.5911, 10.20790
602.0732, 10.79525
602.5553, 11.05323
603.0374, 11.13792
603.5195, 10.99016
604.0016, 10.58122
604.4838, 10.85448
604.9659, 11.93282
605.4480, 13.10297
605.9301, 13.54691
606.4122, 13.46122
606.8943, 13.56590
607.3765, 14.05177
607.8586, 14.57264
608.3407, 14.74699
608.8228, 14.70396
609.3049, 14.67727
609.7870, 14.76620
610.2692, 14.88608
610.7513, 15.09440
611.2334, 15.32064
611.7155, 15.31518
612.1976, 14.47216
612.6797, 13.95533
613.1619, 14.29256
613.6440, 15.54944
614.1261, 16.34023
614.6082, 16.61789
615.0903, 16.49440
615.5724, 15.86219
616.0546, 14.70619
616.5367, 14.18830
617.0188, 14.49170
617.5009, 14.89093
617.9830, 14.25542
618.4651, 13.00830
618.9473, 12.48886
619.4294, 13.32365
619.9115, 14.42196
620.3936, 14.81581
620.8757, 14.62138
621.3578, 14.25119
621.8400, 13.61356
622.3221, 13.06854
622.8042, 12.87204
623.2863, 12.95448
623.7684, 12.85141
624.2505, 12.48489
624.7327, 11.95844
625.2148, 11.24284
625.6969, 10.29952
626.1790, 9.641438
626.6611, 9.375763
627.1432, 9.122562
627.6254, 8.509197
628.1075, 7.574047
628.5896, 6.807491
629.0717, 6.304081
629.5538, 5.883522
630.0359, 5.248764
630.5181, 4.525787
631.0002, 3.995201
631.4823, 3.813114
631.9644, 3.744522
632.4465, 3.702702
632.9286, 3.658207
633.4108, 3.552307
633.8929, 3.299446
634.3750, 2.977520
634.8571, 2.567127
635.3392, 2.109879
635.8214, 1.830101
636.3035, 1.844994
636.7856, 1.804909
637.2677, 1.582516
637.7498, 1.199039
638.2319, 0.7824630
638.7141, 0.2734340
639.1962, 5.6938000E-02
639.6783, 7.4394003E-02
640.1604, 0.5646900
640.6425, 1.184460
641.1246, 1.971500
641.6068, 2.460976
642.0889, 1.827068
642.5710, 0.7598230
643.0531, 0.2576520
643.5352, 0.9243970
644.0173, 1.648258
644.4995, 2.004066
644.9816, 2.104656
645.4637, 2.180653
645.9458, 2.211239
646.4279, 2.299961
646.9100, 2.458923
647.3922, 2.687824
647.8743, 3.013672
648.3564, 3.487633
648.8385, 3.878277
649.3206, 4.060112
649.8027, 4.074203
650.2849, 4.052124
650.7670, 3.997360
651.2491, 4.111698
651.7312, 4.898975
652.2133, 5.807571
652.6954, 5.915573
653.1776, 5.070110
653.6597, 4.238689
654.1418, 3.959648
654.6239, 3.965309
655.1060, 4.030079
655.5881, 4.212040
656.0703, 4.266598
656.5524, 4.007172
657.0345, 3.678898
657.5166, 3.580727
657.9987, 3.795841
658.4808, 4.031624
658.9630, 4.326294
659.4451, 4.533085
659.9272, 4.225128
660.4093, 3.423256
660.8914, 2.694733
661.3735, 2.230759
661.8557, 2.002388
662.3378, 2.031406
662.8199, 2.272785
663.3020, 2.525208
663.7841, 2.805401
664.2662, 2.956146
664.7484, 2.756554
665.2305, 2.202759
665.7126, 1.858810
666.1947, 2.178734
666.6768, 2.481125
667.1589, 2.365513
667.6411, 1.671741
668.1232, 1.201267
668.6053, 1.016533
669.0874, 0.9392130
669.5695, 0.8235820
670.0516, 0.6672170
670.5338, 0.4339520
671.0159, 8.3672002E-02
671.4980, 0.2095570
671.9801, 0.1776350
672.4622, 7.8010999E-02
672.9443, 0.3475420
673.4265, 0.6509590
673.9086, 0.8121950
674.3907, 0.5448270
674.8728, 7.8410998E-02
675.3549, 0.1502340
675.8370, 0.4461400
676.3192, 0.7742390
676.8013, 0.2249370
677.2834, 0.8478130
677.7655, 1.080635
678.2476, 0.1038480
678.7297, 0.8634110
679.2119, 1.408237
679.6940, 1.560501
680.1761, 1.290901
680.6582, 0.5793990
681.1403, 0.1463810
681.6224, 0.8230210
682.1046, 1.991104
682.5867, 2.557949
683.0688, 2.466904
683.5509, 2.194389
684.0330, 1.950325
684.5151, 1.716187
684.9973, 1.408276
685.4794, 0.8385090
685.9615, 0.7187460
686.4436, 1.674351
686.9257, 2.791817
687.4078, 3.320274
687.8900, 3.034470
688.3721, 2.805119
688.8542, 2.669239
689.3363, 2.654236
689.8184, 2.909691
690.3005, 3.386684
690.7827, 3.631821
691.2648, 3.420704
691.7469, 3.126007
692.2290, 3.297153
692.7111, 3.755180
693.1932, 4.097115
693.6754, 3.998417
694.1575, 3.886299
694.6396, 3.982155
695.1217, 4.238007
695.6038, 4.471050
696.0859, 4.703114
696.5681, 4.840599
697.0502, 4.783714
697.5323, 4.586246
698.0144, 4.648281
698.4965, 5.008904
698.9786, 5.447189
699.4608, 5.927361
699.9429, 6.392971
700.4250, 6.514095
700.9071, 6.306110
701.3892, 6.171665
701.8713, 6.543453
702.3535, 7.082657
702.8356, 7.403072
703.3177, 7.435364
703.7998, 7.486233
704.2819, 7.706516
704.7640, 7.941963
705.2462, 8.050484
705.7283, 7.705013
706.2104, 8.020462
706.6925, 9.462505
707.1746, 10.98294
707.6567, 11.18058
708.1389, 9.986565
708.6210, 9.476002
709.1031, 10.09606
709.5852, 11.03624
710.0673, 11.09561
710.5494, 10.60386
711.0316, 10.38550
711.5137, 10.85596
711.9958, 11.49150
712.4779, 12.16150
712.9600, 12.70990
713.4421, 12.92248
713.9243, 12.28404
714.4064, 11.88802
714.8885, 12.12788
715.3706, 12.77642
715.8527, 13.09785
716.3348, 12.98054
716.8170, 12.91701
717.2991, 13.15668
717.7812, 13.56315
718.2633, 13.55621
718.7454, 13.15430
719.2275, 12.88452
719.7097, 13.16872
720.1918, 13.66855
720.6739, 14.07354
721.1560, 14.36413
721.6381, 14.51289
722.1202, 14.40036
722.6024, 14.22985
723.0845, 14.10549
723.5666, 14.03791
724.0487, 14.00511
724.5308, 14.09548
725.0129, 14.08540
725.4951, 13.78021
725.9772, 13.15952
726.4593, 12.69823
726.9414, 12.40410
727.4235, 12.24131
727.9056, 12.34016
728.3878, 12.50563
728.8699, 12.28887
729.3520, 11.55070
729.8341, 10.89724
730.3162, 10.89678
730.7983, 11.07527
731.2805, 10.96035
731.7626, 10.14280
732.2447, 9.619968
732.7268, 9.573086
733.2089, 9.745403
733.6910, 9.934406
734.1732, 10.19907
734.6553, 10.12019
735.1374, 9.552265
735.6195, 8.749165
736.1016, 8.013458
736.5837, 7.335754
737.0659, 6.837978
737.5480, 6.548466
738.0301, 6.460617
738.5122, 6.778587
738.9943, 7.259346
739.4764, 7.483250
739.9586, 7.102398
740.4407, 6.698944
740.9228, 6.461464
741.4049, 6.289047
741.8870, 5.922737
742.3691, 5.267155
742.8513, 4.739136
743.3334, 4.456963
743.8155, 4.365818
744.2976, 4.378498
744.7797, 4.477165
745.2618, 4.510994
745.7440, 4.343945
746.2261, 4.118004
746.7082, 3.982800
747.1903, 3.922478
747.6724, 3.866703
748.1545, 3.847061
748.6367, 3.764343
749.1188, 3.508236
749.6009, 3.098206
750.0830, 2.876751
750.5651, 2.939384
751.0472, 2.987331
751.5294, 2.892246
752.0115, 2.668438
752.4936, 2.397003
752.9757, 2.077286
753.4578, 1.813007
753.9399, 1.699253
754.4221, 1.676254
754.9042, 1.760735
755.3863, 1.933670
755.8684, 1.884941
756.3505, 1.140705
756.8326, 0.3995630
757.3148, 8.1482001E-02
757.7969, 0.3000220
758.2790, 0.4703520
758.7611, 0.6359180
759.2432, 0.6933440
759.7253, 0.5233420
760.2075, 0.1223560
760.6896, 0.1521260
761.1717, 0.3052410
761.6538, 0.3129810
762.1359, 8.6562999E-02
762.6180, 0.2740520
763.1002, 0.6792410
763.5823, 1.149258
764.0644, 1.361248
764.5465, 0.8349230
765.0286, 0.1635550
765.5107, 0.1430590
765.9929, 0.1510700
766.4750, 0.3622170
766.9571, 0.4427070
767.4392, 0.4951970
767.9213, 0.7309610
768.4034, 1.161896
768.8856, 0.8967780
769.3677, 0.2537840
769.8498, 1.386147
770.3319, 1.456196
770.8140, 0.8652420
771.2961, 0.2688370
771.7783, 0.2618060
772.2604, 0.5446170
772.7425, 0.2662390
773.2246, 0.1984860
773.7067, 0.4629590
774.1888, 0.3214840
774.6710, 0.2573090
775.1531, 0.3774530
775.6352, 0.4491460
776.1173, 6.9618002E-02
776.5994, 0.7596740
777.0815, 1.222157
777.5637, 1.141602
778.0458, 0.8958210
778.5279, 0.8995970
779.0100, 1.071461
779.4921, 1.277290
779.9742, 1.526886
780.4564, 1.703045
780.9385, 1.750126
781.4206, 1.695103
781.9027, 1.555908
782.3848, 1.156563
782.8669, 1.030685
783.3491, 1.345406
783.8312, 1.805077
784.3133, 1.882988
784.7954, 1.601933
785.2775, 1.415565
785.7596, 1.439384
786.2418, 1.566738
786.7239, 1.712395
787.2060, 1.860638
787.6881, 1.988190
788.1702, 2.136223
788.6523, 2.194992
789.1345, 2.044044
789.6166, 1.802410
790.0987, 1.671978
790.5808, 1.710892
791.0629, 1.732552
791.5450, 1.673233
792.0272, 1.639225
792.5093, 1.969124
792.9914, 2.586460
793.4735, 2.809769
793.9556, 2.272442
794.4377, 1.609356
794.9199, 1.606476
795.4020, 1.960461
795.8841, 2.125336
796.3662, 1.702202
796.8483, 1.313770
797.3304, 1.087822
797.8126, 1.005314
798.2947, 1.077711
798.7768, 1.403408
799.2589, 1.563448
799.7410, 1.445778
800.2231, 1.186733
800.7053, 1.004425
801.1874, 0.8960610
801.6695, 0.8493540
802.1516, 0.8792930
802.6337, 0.9447060
803.1158, 1.085186
803.5980, 1.222847
804.0801, 1.223206
804.5622, 0.8817790
805.0443, 0.6055450
805.5264, 0.4272140
806.0085, 0.3616850
806.4907, 0.4941940
806.9728, 0.8837600
807.4549, 1.098257
807.9370, 1.008648
808.4191, 0.7747190
808.9012, 0.6192470
809.3834, 0.5297240
809.8655, 0.4724060
810.3476, 0.4078310
810.8297, 0.4083020
811.3118, 0.6405350
811.7939, 0.9392930
812.2761, 1.018648
812.7582, 0.6769680
813.2403, 0.3348100
813.7224, 5.9331998E-02
814.2045, 0.3491190
814.6866, 0.1347620
815.1688, 0.5652520
815.6509, 1.046865
816.1330, 1.098635
816.6151, 0.9668220
817.0972, 0.8240340
817.5793, 0.7477380
818.0615, 0.8956870
818.5436, 1.656334
819.0257, 2.160366
819.5078, 2.009024
819.9899, 1.484079
820.4720, 0.9490760
820.9542, 0.2332230
821.4363, 2.5467001E-02
821.9184, 0.5894390
822.4005, 1.373760
822.8826, 1.404430
823.3647, 0.8465900
823.8469, 0.4968430
824.3290, 0.5753230
824.8111, 0.8155060
825.2932, 1.074787
825.7753, 1.323544
826.2574, 1.513958
826.7396, 1.559868
827.2217, 1.636156
827.7038, 1.736515
828.1859, 1.869310
828.6681, 2.023359
829.1502, 2.197964
829.6323, 2.254929
830.1144, 2.119764
830.5966, 2.010778
831.0787, 2.224092
831.5608, 2.629215
832.0429, 3.046795
832.5250, 3.491161
833.0071, 3.740450
833.4893, 3.459057
833.9714, 3.044039
834.4535, 2.896128
834.9356, 3.234098
835.4177, 3.381897
835.8998, 3.264122
836.3820, 3.114285
836.8641, 3.230049
837.3462, 3.542017
837.8283, 3.591751
838.3104, 3.303148
838.7925, 3.020191
839.2747, 3.258366
839.7568, 3.560055
840.2389, 3.320805
840.7210, 2.191969
841.2031, 1.416189
841.6852, 1.461464
842.1674, 1.749207
842.6495, 1.931286
843.1316, 1.972672
843.6137, 2.164829
844.0958, 2.547371
844.5779, 2.845741
845.0601, 2.741421
845.5422, 2.410801
846.0243, 2.131979
846.5064, 1.927732
846.9885, 1.863241
847.4706, 2.105040
847.9528, 2.390631
848.4349, 2.565596
848.9170, 2.621878
849.3991, 2.556374
849.8812, 2.307165
850.3633, 2.084854
850.8455, 2.000887
851.3276, 2.047373
851.8097, 2.234394
852.2918, 2.547440
852.7739, 2.798317
853.2560, 2.813345
853.7382, 2.751623
854.2203, 2.743778
854.7024, 2.789509
855.1845, 2.808666
855.6666, 2.797327
856.1487, 2.743418
856.6309, 2.646320
857.1130, 2.504265
857.5951, 2.226723
858.0772, 1.803885
858.5593, 1.592043
859.0414, 1.959332
859.5236, 2.494621
860.0057, 2.602123
860.4878, 2.372158
860.9699, 2.089365
861.4520, 1.784296
861.9341, 1.536774
862.4163, 1.329704
862.8984, 1.201344
863.3805, 1.334230
863.8626, 1.864712
864.3447, 2.109259
864.8268, 1.818563
865.3090, 1.274176
865.7911, 0.9630320
866.2732, 0.8397290
866.7553, 0.7847960
867.2374, 0.7570650
867.7195, 0.7829970
868.2017, 0.9903300
868.6838, 1.225965
869.1659, 1.229656
869.6480, 0.8057790
870.1301, 0.5952590
870.6122, 0.7044890
871.0944, 0.8991180
871.5765, 0.8147680
872.0586, 0.5203670
872.5407, 0.4598350
873.0228, 0.7433680
873.5049, 1.031240
873.9871, 1.066648
874.4692, 0.9660990
874.9513, 0.8174360
875.4334, 0.5222090
875.9155, 0.4036690
876.3976, 0.5735130
876.8798, 0.8186930
877.3619, 0.9681910
877.8440, 1.023430
878.3261, 1.054062
878.8082, 1.041153
879.2903, 0.9945930
879.7725, 0.8432940
880.2546, 0.7080170
880.7367, 0.8099160
881.2188, 1.170166
881.7009, 1.359489
882.1830, 1.091265
882.6652, 0.7530690
883.1473, 0.5222400
883.6294, 0.3937400
884.1115, 0.2772390
884.5936, 0.1696110
885.0757, 8.9417003E-02
885.5579, 2.0437000E-02
886.0400, 1.6520000E-03
886.5221, 0.1430870
887.0042, 0.4078480
887.4863, 0.6045930
887.9684, 0.5932180
888.4506, 0.5443990
888.9327, 0.5948050
889.4148, 0.6699240
889.8969, 0.4662460
890.3790, 0.1520730
890.8611, 0.5541730
891.3433, 0.5279060
891.8254, 0.2701360
892.3075, 9.3033001E-02
892.7896, 8.5530002E-03
893.2717, 3.7188999E-02
893.7538, 7.8749001E-02
894.2360, 0.1476020
894.7181, 5.6674998E-02
895.2002, 0.1431240
895.6823, 0.3936440
896.1644, 0.7768480
896.6465, 0.9881570
897.1287, 0.9480110
897.6108, 0.8531210
898.0929, 1.022654
898.5750, 1.352358
899.0571, 1.413969
899.5392, 1.118095
900.0214, 0.8173200
900.5035, 0.7284530
900.9856, 0.7776760
901.4677, 0.9390090
901.9498, 1.280653
902.4319, 1.418158
902.9141, 1.210257
903.3962, 1.043310
903.8783, 1.266407
904.3604, 1.791973
904.8425, 1.822523
905.3246, 1.405975
905.8068, 1.190498
906.2889, 1.868179
906.7710, 2.671684
907.2531, 2.953548
907.7352, 2.746758
908.2173, 2.574318
908.6995, 2.489639
909.1816, 2.478035
909.6637, 2.539848
910.1458, 2.671078
910.6279, 2.901756
911.1100, 3.212307
911.5922, 3.433895
912.0743, 3.515419
912.5564, 3.465137
913.0385, 3.138718
913.5206, 2.724094
914.0027, 2.539146
914.4849, 2.989799
914.9670, 3.207935
915.4491, 3.022602
915.9312, 2.701553
916.4133, 2.634441
916.8954, 2.801186
917.3776, 2.767673
917.8597, 2.461662
918.3418, 2.072132
918.8239, 1.637085
919.3060, 1.293854
919.7881, 1.269993
920.2703, 1.715431
920.7524, 1.875877
921.2345, 1.392323
921.7166, 0.9404530
922.1987, 0.9416960
922.6808, 1.359333
923.1630, 1.554760
923.6451, 1.528717
924.1272, 1.332577
924.6093, 0.8330990
925.0914, 0.3094670
925.5735, 0.1008680
926.0557, 0.1429250
926.5378, 9.3883999E-02
927.0199, 0.3257520
927.5020, 0.6085280
927.9841, 0.5833130
928.4662, 0.3842540
928.9484, 0.3934560
929.4305, 0.5985760
929.9126, 0.7187540
930.3947, 0.6162030
930.8768, 0.5027310
931.3589, 0.7160380
931.8411, 1.037685
932.3232, 1.144341
932.8053, 0.8550680
933.2874, 0.4913670
933.7695, 5.6828000E-02
934.2516, 0.5137330
934.7338, 0.4841120
935.2159, 5.8329999E-03
935.6980, 0.1072270
936.1801, 0.2397730
936.6622, 0.7671360
937.1443, 1.445435
937.6265, 2.058929
938.1086, 2.285946
938.5907, 2.100555
939.0728, 2.169502
939.5549, 2.703316
940.0370, 3.335770
940.5192, 3.984352
941.0013, 4.609886
941.4834, 5.023170
941.9655, 5.236214
942.4476, 5.321465
942.9297, 5.026363
943.4119, 4.931309
943.8940, 5.913170
944.3761, 7.425373
944.8582, 8.320618
945.3403, 7.767239
945.8224, 7.463757
946.3046, 7.619251
946.7867, 7.988945
947.2688, 8.230366
947.7509, 8.361496
948.2330, 8.533894
948.7151, 8.802650
949.1973, 8.923050
949.6794, 8.573570
950.1615, 8.056686
950.6436, 7.693939
951.1257, 7.619415
951.6078, 7.090595
952.0900, 5.786720
952.5721, 4.698570
953.0542, 4.578682
953.5363, 5.112373
954.0184, 4.899811
954.5005, 4.050697
954.9827, 3.260872
955.4648, 3.058891
955.9469, 2.910366
956.4290, 2.426193
956.9111, 1.734669
957.3932, 1.253929
957.8754, 1.038532
958.3575, 0.9176860
958.8396, 0.8817750
959.3217, 0.8947530
959.8038, 0.8756330
960.2859, 0.8559000
960.7681, 0.9915960
961.2502, 1.422779
961.7323, 1.579239
962.2144, 0.7228930
962.6965, 0.2422600
963.1786, 0.5061650
963.6608, 7.9521000E-02
964.1429, 0.5211870
964.6250, 0.7860490
965.1071, 1.038582
965.5892, 1.570450
966.0714, 2.092949
966.5535, 1.838997
967.0356, 0.9928590
967.5177, 0.5147550
967.9998, 1.152378
968.4819, 1.899529
968.9641, 2.388992
969.4462, 2.719448
969.9283, 3.179321
970.4104, 3.798248
970.8925, 4.160290
971.3746, 4.075775
971.8568, 3.993301
972.3389, 4.564907
972.8210, 5.477600
973.3031, 6.267460
973.7852, 6.812706
974.2673, 7.267323
974.7495, 7.539146
975.2316, 7.872494
975.7137, 8.469940
976.1958, 9.335991
976.6779, 10.07661
977.1600, 10.69405
977.6422, 11.20399
978.1243, 11.33914
978.6064, 11.61327
979.0885, 12.69192
979.5706, 14.37571
980.0527, 15.69773
980.5349, 16.19088
981.0170, 16.87882
981.4991, 18.06422
981.9812, 19.42828
982.4633, 20.25074
982.9454, 20.67674
983.4276, 21.32240
983.9097, 22.41116
984.3918, 23.57188
984.8739, 24.44682
985.3560, 25.32339
985.8381, 26.53070
986.3203, 28.17625
986.8024, 29.77619
987.2845, 31.33981
987.7666, 32.78136
988.2487, 33.96370
988.7308, 35.01585
989.2130, 36.27853
989.6951, 37.69288
990.1772, 39.04909
990.6593, 40.09269
991.1414, 41.27696
991.6235, 42.92644
992.1057, 44.78481
992.5878, 46.33855
993.0699, 47.53407
993.5520, 48.69923
994.0341, 49.88787
994.5162, 51.25960
994.9984, 53.24308
995.4805, 55.41072
995.9626, 57.16793
996.4447, 58.31800
996.9268, 59.43433
997.4089, 60.16251
997.8911, 61.49451
998.3732, 64.40649
998.8553, 68.52087
999.3374, 70.80604
999.8195, 71.45219
1000.302, 72.42821
1000.784, 75.26023
1001.266, 78.48971
1001.748, 81.15167
1002.230, 83.47813
1002.712, 86.02535
1003.194, 88.82077
1003.676, 91.79836
1004.159, 95.07578
1004.641, 98.29406
1005.123, 101.0076
1005.605, 103.3300
1006.087, 105.5404
1006.569, 107.7107
1007.051, 109.7412
1007.533, 111.7655
1008.016, 113.5051
1008.498, 114.8973
1008.980, 115.9255
1009.462, 116.3999
1009.944, 116.3167
1010.426, 115.7788
1010.908, 114.6429
1011.390, 113.3180
1011.872, 112.2642
1012.355, 111.3877
1012.837, 110.4922
1013.319, 109.5484
1013.801, 108.5056
1014.283, 107.2089
1014.765, 106.0324
1015.247, 105.5368
1015.729, 105.5580
1016.211, 105.1063
1016.694, 104.1078
1017.176, 103.1924
1017.658, 103.1222
1018.140, 103.0053
1018.622, 102.0683
1019.104, 100.4163
1019.586, 99.31886
1020.068, 99.05886
1020.551, 98.09486
1021.033, 95.72327
1021.515, 92.81200
1021.997, 90.50335
1022.479, 88.72253
1022.961, 87.46945
1023.443, 87.41036
1023.925, 86.39008
1024.407, 83.27844
1024.890, 79.62322
1025.372, 76.52074
1025.854, 73.99226
1026.336, 71.00542
1026.818, 67.55782
1027.300, 64.17873
1027.782, 61.39608
1028.264, 58.63286
1028.746, 55.33769
1029.229, 51.65675
1029.711, 48.14485
1030.193, 44.74614
1030.675, 41.71796
1031.157, 39.17934
1031.639, 36.84349
1032.121, 34.08383
1032.603, 31.18861
1033.086, 29.04202
1033.568, 27.89203
1034.050, 26.49071
1034.532, 23.98106
1035.014, 21.38099
1035.496, 19.19938
1035.978, 17.43583
1036.460, 15.96529
1036.943, 14.80513
1037.425, 13.63930
1037.907, 12.24785
1038.389, 10.89669
1038.871, 9.844738
1039.353, 9.024651
1039.835, 8.353214
1040.317, 8.012562
1040.799, 7.403545
1041.281, 6.370716
1041.764, 5.381805
1042.246, 5.077274
1042.728, 5.137772
1043.210, 4.643589
1043.692, 3.586102
1044.174, 2.637943
1044.656, 2.139812
1045.138, 1.814732
1045.621, 1.545349
1046.103, 1.356838
1046.585, 1.427311
1047.067, 1.766098
1047.549, 1.780350
1048.031, 1.274990
1048.513, 0.5820240
1048.995, 0.1606410
1049.478, 0.7867620
1049.960, 1.058571
1050.442, 0.7955780
1050.924, 0.7501260
1051.406, 1.040359
1051.888, 1.287304
1052.370, 1.271442
1052.852, 1.067280
1053.334, 0.8124850
1053.817, 0.5332680
1054.299, 0.3151550
1054.781, 0.2270200
1055.263, 0.1711540
1055.745, 0.1238330
1056.227, 9.1530003E-02
1056.709, 0.1345560
1057.191, 0.2574770
1057.673, 1.4340000E-03
1058.156, 0.7065540
1058.638, 1.164585
1059.120, 0.4205930
1059.602, 0.4888190
1060.084, 0.6668890
1060.566, 0.1195530
1061.048, 0.4489170
1061.530, 1.098827
1062.013, 1.492943
1062.495, 1.462631
1062.977, 1.304558
1063.459, 1.617920
1063.941, 2.133099
1064.423, 2.257225
1064.905, 1.681744
1065.387, 1.384430
1065.870, 1.990524
1066.352, 2.609871
1066.834, 2.669174
1067.316, 2.310303
1067.798, 2.814392
1068.280, 4.073120
1068.762, 5.109875
1069.244, 5.137932
1069.726, 5.092522
1070.208, 5.706951
1070.691, 6.583874
1071.173, 7.064037
1071.655, 7.034817
1072.137, 6.974396
1072.619, 6.890099
1073.101, 6.860413
1073.583, 7.082794
1074.065, 7.326603
1074.548, 7.115299
1075.030, 6.540401
1075.512, 6.446106
1075.994, 7.552555
1076.476, 8.353226
1076.958, 8.401787
1077.440, 8.166477
1077.922, 8.596203
1078.405, 9.477543
1078.887, 10.11785
1079.369, 10.36433
1079.851, 10.48898
1080.333, 10.62549
1080.815, 10.69130
1081.297, 10.61150
1081.779, 10.40676
1082.261, 10.30827
1082.744, 10.31378
1083.226, 10.30676
1083.708, 10.13594
1084.190, 10.08307
1084.672, 10.57501
1085.154, 11.28979
1085.636, 11.73808
1086.118, 11.74397
1086.601, 11.76820
1087.083, 11.78762
1087.565, 11.90905
1088.047, 12.37078
1088.529, 12.91534
1089.011, 13.03628
1089.493, 12.81742
1089.975, 12.64252
1090.458, 12.61622
1090.940, 12.72717
1091.422, 13.09960
1091.904, 13.44053
1092.386, 13.07578
1092.868, 12.26200
1093.350, 12.29258
1093.832, 13.35493
1094.314, 14.25641
1094.797, 14.11654
1095.279, 13.72628
1095.761, 13.46243
1096.243, 13.35600
1096.725, 13.53471
1097.207, 13.96012
1097.689, 14.15193
1098.171, 13.94787
1098.653, 13.52245
1099.136, 12.83673
1099.618, 12.14537
1100.100, 11.75911
1100.582, 11.80119
1101.064, 11.79442
1101.546, 11.71475
1102.028, 11.59460
1102.510, 11.48531
1102.993, 11.32096
1103.475, 10.91726
1103.957, 10.37135
1104.439, 9.897007
1104.921, 9.580952
1105.403, 9.345432
1105.885, 9.180260
1106.367, 9.121437
1106.849, 9.207611
1107.332, 9.374096
1107.814, 9.508789
1108.296, 9.632786
1108.778, 9.723793
1109.260, 10.02822
1109.742, 10.00206
1110.224, 9.108143
1110.706, 7.916370
1111.188, 7.446465
1111.671, 7.673759
1112.153, 7.697903
1112.635, 7.360752
1113.117, 7.102413
1113.599, 7.461407
1114.081, 7.916195
1114.563, 7.986237
1115.045, 7.720245
1115.528, 7.650883
1116.010, 7.789520
1116.492, 7.998806
1116.974, 8.285530
1117.456, 8.483829
1117.938, 8.268250
1118.420, 7.951641
1118.902, 7.917351
1119.385, 8.318542
1119.867, 8.636425
1120.349, 8.847168
1120.831, 8.976120
1121.313, 8.984337
1121.795, 8.961342
1122.277, 9.128456
1122.759, 9.417835
1123.241, 9.670288
1123.724, 9.871925
1124.206, 9.960018
1124.688, 9.887447
1125.170, 9.774464
1125.652, 9.749973
1126.134, 9.777245
1126.616, 9.682541
1127.098, 9.462627
1127.580, 9.104740
1128.063, 8.221443
1128.545, 7.648224
1129.027, 8.017345
1129.509, 8.701324
1129.991, 8.872826
1130.473, 8.545948
1130.955, 8.325111
1131.437, 8.264404
1131.920, 8.093002
1132.402, 7.502121
1132.884, 6.821831
1133.366, 6.082523
1133.848, 5.451359
1134.330, 5.612797
1134.812, 6.737812
1135.294, 7.150181
1135.776, 6.389786
1136.259, 5.414482
1136.741, 5.211239
1137.223, 5.303585
1137.705, 5.095364
1138.187, 4.509716
1138.669, 4.652035
1139.151, 5.889980
1139.633, 6.525681
1140.115, 5.785110
1140.598, 4.546871
1141.080, 3.970634
1141.562, 3.835373
1142.044, 3.830364
1142.526, 3.991203
1143.008, 3.886555
1143.490, 3.327641
1143.972, 2.879063
1144.455, 2.922657
1144.937, 3.228493
1145.419, 3.328377
1145.901, 3.232330
1146.383, 2.954437
1146.865, 2.239120
1147.347, 1.794094
1147.829, 1.834919
1148.312, 1.975277
1148.794, 1.883148
1149.276, 1.622749
1149.758, 1.569962
1150.240, 1.673161
1150.722, 1.645832
1151.204, 1.058636
1151.686, 0.6877020
1152.168, 1.075207
1152.651, 1.545589
1153.133, 1.113358
1153.615, 7.9613000E-02
1154.097, 0.4626160
1154.579, 4.2121999E-02
1155.061, 0.6043360
1155.543, 0.6980480
1156.025, 0.6909940
1156.507, 0.8599850
1156.990, 1.037987
1157.472, 0.8128320
1157.954, 0.1792530
1158.436, 0.2200200
1158.918, 0.2895280
1159.400, 0.2393570
1159.882, 0.2378540
1160.364, 0.1847230
1160.847, 0.1003150
1161.329, 0.5253980
1161.811, 0.6109890
1162.293, 0.3335300
1162.775, 5.7117000E-02
1163.257, 0.5623250
1163.739, 0.9177130
1164.221, 0.7457890
1164.703, 0.3713760
1165.186, 6.2606998E-02
1165.668, 0.1519620
1166.150, 4.3613002E-02
1166.632, 0.4709430
1167.114, 0.7941250
1167.596, 0.6422840
1168.078, 0.3384970
1168.560, 0.2878110
1169.042, 0.3478780
1169.525, 0.3364830
1170.007, 0.2224500
1170.489, 1.8433001E-02
1170.971, 0.4642720
1171.453, 0.7346840
1171.935, 0.5010830
1172.417, 0.1314700
1172.899, 0.2158970
1173.382, 0.5838470
1173.864, 0.9281500
1174.346, 1.157997
1174.828, 1.406071
1175.310, 1.707676
1175.792, 1.936687
1176.274, 1.932850
1176.756, 1.835152
1177.239, 1.942982
1177.721, 2.180111
1178.203, 2.348171
1178.685, 2.180771
1179.167, 2.290417
1179.649, 2.829163
1180.131, 3.398365
1180.613, 3.566380
1181.095, 3.521210
1181.578, 3.674500
1182.060, 4.010521
1182.542, 4.398956
1183.024, 5.014809
1183.506, 5.316193
1183.988, 5.094154
1184.470, 4.789780
1184.952, 4.850937
1185.434, 5.249752
1185.917, 6.138279
1186.399, 7.419506
1186.881, 8.267078
1187.363, 7.860977
1187.845, 7.600662
1188.327, 7.791107
1188.809, 8.271702
1189.291, 8.945637
1189.774, 9.684872
1190.256, 10.04303
1190.738, 9.984779
1191.220, 10.13536
1191.702, 11.12200
1192.184, 11.83644
1192.666, 11.78669
1193.148, 11.46416
1193.630, 12.04271
1194.113, 13.19028
1194.595, 13.70109
1195.077, 13.30744
1195.559, 12.91401
1196.041, 12.79699
1196.523, 12.97082
1197.005, 13.50332
1197.487, 14.27219
1197.969, 15.05001
1198.452, 15.76882
1198.934, 16.22865
1199.416, 16.38163
1199.898, 16.33173
1200.380, 15.69761
1200.862, 15.25842
1201.344, 15.48137
1201.826, 16.16710
1202.309, 16.66239
1202.791, 16.94975
1203.273, 16.91741
1203.755, 16.38296
1204.237, 16.01574
1204.719, 16.32151
1205.201, 16.68539
1205.683, 16.75003
1206.166, 16.59867
1206.648, 16.66941
1207.130, 16.88215
1207.612, 16.87617
1208.094, 16.39219
1208.576, 15.95964
1209.058, 15.73703
1209.540, 15.73296
1210.022, 16.07214
1210.505, 16.64249
1210.987, 16.66626
1211.469, 16.23930
1211.951, 15.86520
1212.433, 15.93982
1212.915, 15.91483
1213.397, 15.42957
1213.879, 14.91711
1214.361, 14.74412
1214.844, 14.84413
1215.326, 14.73224
1215.808, 14.42595
1216.290, 14.01833
1216.772, 13.56139
1217.254, 13.04799
1217.736, 12.38561
1218.218, 11.75811
1218.701, 11.29440
1219.183, 10.99825
1219.665, 11.01572
1220.147, 11.27793
1220.629, 11.41161
1221.111, 11.09266
1221.593, 10.79079
1222.075, 10.69387
1222.557, 10.67605
1223.040, 10.60149
1223.522, 10.47421
1224.004, 10.31735
1224.486, 10.11694
1224.968, 9.936752
1225.450, 9.976337
1225.932, 9.864704
1226.414, 9.425407
1226.896, 8.896271
1227.379, 8.582485
1227.861, 8.425533
1228.343, 8.223095
1228.825, 7.954247
1229.307, 7.565140
1229.789, 6.815720
1230.271, 6.228642
1230.753, 5.931194
1231.236, 5.834637
1231.718, 5.889946
1232.200, 6.032642
1232.682, 6.116913
1233.164, 6.126163
1233.646, 6.020473
1234.128, 5.774319
1234.610, 5.392702
1235.093, 4.811085
1235.575, 4.230938
1236.057, 3.958652
1236.539, 3.888041
1237.021, 3.829309
1237.503, 3.757118
1237.985, 3.578827
1238.467, 3.037561
1238.949, 2.784004
1239.432, 3.028530
1239.914, 3.378687
1240.396, 3.267059
1240.878, 2.903955
1241.360, 2.646307
1241.842, 2.522354
1242.324, 2.492611
1242.806, 2.631376
1243.288, 2.679472
1243.771, 2.607634
1244.253, 2.437464
1244.735, 2.235090
1245.217, 1.963171
1245.699, 1.447716
1246.181, 0.7122400
1246.663, 0.4352020
1247.145, 0.9052050
1247.628, 1.063969
1248.110, 0.5951080
1248.592, 8.1479996E-02
1249.074, 0.4359860
1249.556, 1.054657
1250.038, 1.194191
1250.520, 0.8038440
1251.002, 0.4530870
1251.484, 0.1334670
1251.967, 2.0624001E-02
1252.449, 0.1969030
1252.931, 0.4221500
1253.413, 0.4689450
1253.895, 0.4045540
1254.377, 0.2596170
1254.859, 5.1371001E-02
1255.341, 6.7083001E-02
1255.823, 7.5921997E-02
1256.306, 0.2246170
1256.788, 0.6300240
1257.270, 0.8630330
1257.752, 0.2371410
1258.234, 0.5069980
1258.716, 0.6170920
1259.198, 0.2438770
1259.680, 0.2175030
1260.163, 0.5410800
1260.645, 0.7789750
1261.127, 0.8266070
1261.609, 0.8312420
1262.091, 0.9172520
1262.573, 0.9832060
1263.055, 0.9230160
1263.537, 0.7987440
1264.020, 0.8536910
1264.502, 1.064360
1264.984, 1.288589
1265.466, 1.518856
1265.948, 1.573248
1266.430, 1.078537
1266.912, 0.6808760
1267.394, 0.7549550
1267.876, 1.106791
1268.359, 1.181170
1268.841, 1.059845
1269.323, 1.060305
1269.805, 1.268322
1270.287, 1.439894
1270.769, 1.418142
1271.251, 1.402836
1271.733, 1.434130
1272.215, 1.544876
1272.698, 1.932856
1273.180, 2.424421
1273.662, 2.550734
1274.144, 2.168772
1274.626, 1.999607
1275.108, 2.246721
1275.590, 2.473444
1276.072, 2.369019
1276.555, 2.193979
1277.037, 2.643419
1277.519, 3.362761
1278.001, 3.768187
1278.483, 3.725292
1278.965, 3.657595
1279.447, 3.668943
1279.929, 4.001959
1280.411, 4.368006
1280.894, 4.776142
1281.376, 5.218973
1281.858, 5.560802
1282.340, 5.645786
1282.822, 5.467749
1283.304, 5.091818
1283.786, 4.477673
1284.268, 3.810560
1284.750, 3.179846
1285.233, 2.632864
1285.715, 2.304859
1286.197, 2.074623
1286.679, 1.858656
1287.161, 1.663500
1287.643, 1.547359
1288.125, 1.499737
1288.607, 1.343637
1289.090, 1.017708
1289.572, 0.7456820
1290.054, 0.6824950
1290.536, 0.7366240
1291.018, 0.9012510
1291.500, 1.070108
1291.982, 0.8520620
1292.464, 0.3817980
1292.947, 0.1979980
1293.429, 0.4397180
1293.911, 0.5791590
1294.393, 0.1905480
1294.875, 3.5351001E-02
1295.357, 0.1877310
1295.839, 0.5577320
1296.321, 0.3722400
1296.803, 3.7985001E-02
1297.286, 7.0603997E-02
1297.768, 0.8770560
1298.250, 1.145437
1298.732, 0.7868600
1299.214, 0.2227480
1299.696, 0.1771970
1300.178, 0.1551510
1300.660, 0.0000000E+00
##END=



