##NAMES=Malhmoodite
##RRUFFID=R060462
##IDEAL CHEMISTRY=Fe^2+^Zr^4+^(PO_4_)_2_&#183;4H_2_O
##LOCALITY=Union Carbide Vanadium mine, Wilson Springs, Garland County, Arkansas, USA
##OWNER=RRUFF
##SOURCE=Michael Scott
##DESCRIPTION=White to cream spherical aggregates of acicular crystals associated with colorless albite, dark green aegirine, octahedral pyrochlore, and yellowish titanite.
##STATUS=The identification of this mineral has been determined only by Raman spectroscopy
##URL=rruff.info/R060462
94.33167, 0.0000000E+00
94.81378, 9.307129
95.29590, 13.76611
95.77802, 16.79395
96.26013, 19.51318
96.74225, 13.71533
97.22437, 3.312500
97.70648, 0.5341800
98.18860, 5.694824
98.67072, 12.21631
99.15283, 17.40088
99.63495, 20.12744
100.1171, 19.83447
100.5992, 16.18799
101.0813, 6.985352
101.5634, 6.065918
102.0455, 7.658691
102.5277, 10.93994
103.0098, 16.05908
103.4919, 22.45068
103.9740, 28.91113
104.4561, 40.02100
104.9382, 58.95020
105.4204, 73.13672
105.9025, 83.77979
106.3846, 93.07861
106.8667, 95.92529
107.3488, 84.53223
107.8309, 62.40332
108.3131, 47.15723
108.7952, 44.76660
109.2773, 46.59326
109.7594, 47.37793
110.2415, 47.59717
110.7236, 46.46582
111.2058, 41.56494
111.6879, 34.89600
112.1700, 30.47656
112.6521, 31.31445
113.1342, 34.01562
113.6163, 32.42920
114.0985, 23.50195
114.5806, 14.74072
115.0627, 11.91260
115.5448, 13.17334
116.0269, 14.85400
116.5090, 15.71777
116.9912, 16.08496
117.4733, 14.57227
117.9554, 7.887207
118.4375, 2.402832
118.9196, 0.6235350
119.4017, 2.599609
119.8839, 6.661621
120.3660, 10.53174
120.8481, 13.22119
121.3302, 21.37646
121.8123, 40.16504
122.2944, 59.72021
122.7766, 71.40869
123.2587, 76.00830
123.7408, 77.78223
124.2229, 84.63574
124.7050, 101.4312
125.1871, 110.6479
125.6693, 107.4360
126.1514, 100.3237
126.6335, 97.40479
127.1156, 102.5337
127.5977, 112.1245
128.0798, 114.8936
128.5620, 109.3062
129.0441, 102.1343
129.5262, 95.16162
130.0083, 88.48633
130.4904, 82.59473
130.9725, 77.74072
131.4547, 74.18506
131.9368, 71.82568
132.4189, 70.03857
132.9010, 70.13867
133.3831, 75.09619
133.8652, 85.90625
134.3474, 94.21680
134.8295, 91.73535
135.3116, 85.49609
135.7937, 83.05225
136.2758, 88.08057
136.7579, 98.53125
137.2401, 109.1641
137.7222, 121.8291
138.2043, 131.8213
138.6864, 137.8564
139.1685, 140.7925
139.6507, 141.4287
140.1328, 140.3657
140.6149, 137.6733
141.0970, 133.1641
141.5791, 123.9419
142.0612, 115.4751
142.5434, 110.4526
143.0255, 107.8027
143.5076, 104.0869
143.9897, 95.86670
144.4718, 82.04834
144.9539, 69.59082
145.4361, 59.25146
145.9182, 49.30420
146.4003, 38.83789
146.8824, 27.66406
147.3645, 16.11670
147.8466, 4.219727
148.3288, 8.788086
148.8109, 18.80811
149.2930, 25.44531
149.7751, 29.30713
150.2572, 29.60791
150.7393, 25.64258
151.2215, 21.80518
151.7036, 25.21924
152.1857, 24.12354
152.6678, 24.93115
153.1499, 27.12720
153.6320, 29.80908
154.1142, 30.85474
154.5963, 29.66650
155.0784, 26.21313
155.5605, 20.07642
156.0426, 11.09546
156.5247, 2.929932
157.0069, 1.126709
157.4890, 1.199463
157.9711, 2.288086
158.4532, 5.775635
158.9353, 10.49243
159.4174, 16.26953
159.8996, 23.08228
160.3817, 30.03101
160.8638, 36.64673
161.3459, 43.82178
161.8280, 47.41040
162.3102, 45.12793
162.7923, 40.53931
163.2744, 35.29639
163.7565, 29.96289
164.2386, 24.92920
164.7207, 20.55469
165.2029, 15.47388
165.6850, 13.75415
166.1671, 17.46289
166.6492, 23.49194
167.1313, 29.47388
167.6134, 34.33887
168.0956, 37.90015
168.5777, 39.58325
169.0598, 36.53662
169.5419, 34.73315
170.0240, 36.00659
170.5061, 38.60205
170.9883, 39.23267
171.4704, 35.76392
171.9525, 30.08008
172.4346, 31.08911
172.9167, 47.36743
173.3988, 59.68848
173.8810, 59.62646
174.3631, 50.75732
174.8452, 41.99585
175.3273, 37.47534
175.8094, 37.12109
176.2915, 39.87427
176.7737, 49.19141
177.2558, 58.09302
177.7379, 61.12549
178.2200, 58.80029
178.7021, 57.55835
179.1842, 62.37451
179.6664, 70.25977
180.1485, 75.13916
180.6306, 74.81274
181.1127, 72.75562
181.5948, 73.43042
182.0769, 77.66943
182.5591, 80.10303
183.0412, 74.13892
183.5233, 65.70947
184.0054, 61.47559
184.4875, 64.93677
184.9696, 72.35181
185.4518, 76.91504
185.9339, 77.88477
186.4160, 77.19995
186.8981, 75.17969
187.3802, 72.27100
187.8623, 68.42920
188.3445, 62.93213
188.8266, 57.39502
189.3087, 57.89160
189.7908, 70.75342
190.2729, 80.99609
190.7550, 84.70630
191.2372, 84.04468
191.7193, 81.63599
192.2014, 78.75659
192.6835, 75.54932
193.1656, 73.27319
193.6477, 72.95996
194.1299, 72.77710
194.6120, 72.60913
195.0941, 72.38403
195.5762, 72.10791
196.0583, 71.79785
196.5404, 71.40576
197.0226, 70.31763
197.5047, 66.15332
197.9868, 63.73804
198.4689, 64.56299
198.9510, 68.22192
199.4331, 73.93408
199.9153, 81.58569
200.3974, 91.02466
200.8795, 97.12695
201.3616, 99.32373
201.8437, 99.52515
202.3258, 97.28760
202.8080, 93.36914
203.2901, 90.36328
203.7722, 90.63135
204.2543, 93.64258
204.7364, 93.03687
205.2185, 84.09546
205.7007, 75.55566
206.1828, 73.90576
206.6649, 78.72925
207.1470, 82.96216
207.6291, 81.22119
208.1112, 74.92480
208.5934, 71.08594
209.0755, 72.24756
209.5576, 74.05103
210.0397, 72.85327
210.5218, 68.39941
211.0039, 63.96313
211.4861, 61.21533
211.9682, 60.29224
212.4503, 61.58936
212.9324, 67.66431
213.4145, 74.64331
213.8967, 77.35181
214.3788, 74.95142
214.8609, 71.49512
215.3430, 66.62378
215.8251, 62.58325
216.3072, 63.17261
216.7894, 72.10986
217.2715, 83.94019
217.7536, 88.53052
218.2357, 83.16455
218.7178, 77.86841
219.1999, 76.97485
219.6821, 78.53516
220.1642, 80.74512
220.6463, 83.22144
221.1284, 85.46240
221.6105, 86.42944
222.0926, 86.24194
222.5748, 84.44629
223.0569, 79.42896
223.5390, 73.61523
224.0211, 69.88037
224.5032, 69.79053
224.9853, 72.02881
225.4675, 72.68408
225.9496, 69.86597
226.4317, 68.59082
226.9138, 71.00342
227.3959, 74.87305
227.8780, 77.78369
228.3602, 78.53784
228.8423, 77.68237
229.3244, 76.88037
229.8065, 74.25146
230.2886, 74.45361
230.7707, 80.53857
231.2529, 88.67749
231.7350, 93.96606
232.2171, 93.95801
232.6992, 90.92773
233.1813, 92.33936
233.6634, 104.6719
234.1456, 113.9170
234.6277, 118.4790
235.1098, 119.7073
235.5919, 119.2732
236.0740, 117.9419
236.5561, 115.1941
237.0383, 109.4382
237.5204, 90.84497
238.0025, 81.13745
238.4846, 88.43066
238.9667, 103.0769
239.4488, 113.3877
239.9310, 114.4846
240.4131, 109.6311
240.8952, 106.9341
241.3773, 107.0635
241.8594, 108.4797
242.3415, 111.5249
242.8237, 115.7124
243.3058, 120.8005
243.7879, 126.8005
244.2700, 132.7490
244.7521, 136.6382
245.2342, 138.7664
245.7164, 138.3694
246.1985, 132.9963
246.6806, 125.6350
247.1627, 120.1362
247.6448, 117.6951
248.1269, 117.8193
248.6091, 120.5405
249.0912, 127.2278
249.5733, 131.3259
250.0554, 128.9695
250.5375, 123.9666
251.0196, 122.3901
251.5018, 126.2307
251.9839, 132.1028
252.4660, 134.7612
252.9481, 134.0212
253.4302, 134.6060
253.9123, 138.4907
254.3945, 144.2373
254.8766, 149.8647
255.3587, 155.0928
255.8408, 159.7737
256.3229, 162.9048
256.8051, 164.7461
257.2872, 168.1929
257.7693, 175.9958
258.2514, 185.3462
258.7335, 191.1235
259.2156, 191.7903
259.6978, 191.7766
260.1799, 196.0117
260.6620, 203.2356
261.1441, 209.5613
261.6262, 213.2783
262.1083, 215.4817
262.5905, 218.1079
263.0726, 221.5049
263.5547, 224.3594
264.0368, 223.5286
264.5189, 221.2944
265.0010, 222.8289
265.4832, 234.4263
265.9653, 248.9983
266.4474, 254.0051
266.9295, 246.9473
267.4116, 239.6580
267.8937, 239.7378
268.3759, 244.2319
268.8580, 249.7188
269.3401, 255.8162
269.8222, 261.8745
270.3043, 266.8806
270.7864, 270.7126
271.2686, 274.0659
271.7507, 277.0381
272.2328, 279.7759
272.7149, 282.4136
273.1970, 285.0220
273.6791, 287.4460
274.1613, 289.6155
274.6434, 291.6255
275.1255, 292.8115
275.6076, 292.1606
276.0897, 290.8970
276.5718, 289.4832
277.0540, 287.8052
277.5361, 287.3696
278.0182, 291.4944
278.5003, 301.4241
278.9824, 307.2192
279.4645, 301.7820
279.9467, 294.1157
280.4288, 290.3064
280.9109, 291.2542
281.3930, 293.4236
281.8751, 292.3269
282.3572, 287.4282
282.8394, 286.1228
283.3215, 292.0991
283.8036, 300.1567
284.2857, 308.5535
284.7678, 316.7051
285.2499, 323.2053
285.7321, 326.6580
286.2142, 327.0061
286.6963, 325.6340
287.1784, 320.1951
287.6605, 315.3867
288.1426, 313.9871
288.6248, 315.2651
289.1069, 316.5725
289.5890, 316.2620
290.0711, 314.3369
290.5532, 310.4146
291.0353, 300.9695
291.5175, 294.3442
291.9996, 295.3762
292.4817, 301.0400
292.9638, 305.8054
293.4459, 306.6375
293.9280, 303.9497
294.4102, 299.2639
294.8923, 291.7837
295.3744, 283.6311
295.8565, 273.5166
296.3386, 263.9700
296.8207, 258.9812
297.3029, 261.1135
297.7850, 267.4080
298.2671, 270.7241
298.7492, 270.1584
299.2313, 267.8481
299.7134, 263.3787
300.1956, 258.5149
300.6777, 255.0002
301.1598, 253.2676
301.6419, 252.1604
302.1240, 249.5630
302.6061, 244.0852
303.0883, 242.2056
303.5704, 248.0178
304.0525, 254.5337
304.5346, 257.1433
305.0167, 255.1533
305.4988, 250.8806
305.9810, 246.6819
306.4631, 242.4397
306.9452, 236.9534
307.4273, 227.4055
307.9094, 219.5100
308.3915, 217.4285
308.8737, 220.1956
309.3558, 222.8379
309.8379, 220.4761
310.3200, 212.8169
310.8021, 206.6638
311.2842, 202.2488
311.7664, 199.1750
312.2485, 199.2080
312.7306, 200.6038
313.2127, 199.6846
313.6948, 193.4031
314.1769, 182.6301
314.6591, 172.5303
315.1412, 160.4890
315.6233, 152.8635
316.1054, 155.9065
316.5875, 162.9465
317.0696, 164.7527
317.5518, 156.2942
318.0339, 141.1062
318.5160, 128.6753
318.9981, 119.4153
319.4802, 112.8960
319.9623, 109.1785
320.4445, 107.3474
320.9266, 107.8137
321.4087, 110.6733
321.8908, 113.5291
322.3729, 112.1934
322.8550, 105.0994
323.3372, 99.38110
323.8193, 96.80322
324.3014, 95.17041
324.7835, 93.87036
325.2656, 92.53564
325.7477, 90.17993
326.2299, 84.96899
326.7120, 76.39648
327.1941, 70.10132
327.6762, 67.83179
328.1583, 66.36987
328.6404, 65.38477
329.1226, 64.13599
329.6047, 60.82764
330.0868, 52.66479
330.5689, 41.00000
331.0510, 35.46265
331.5331, 40.41797
332.0153, 45.30127
332.4974, 46.49146
332.9795, 45.15649
333.4616, 42.98560
333.9437, 40.78125
334.4258, 38.27832
334.9080, 34.75415
335.3901, 29.83301
335.8722, 25.00537
336.3543, 20.14819
336.8365, 15.91919
337.3186, 13.34082
337.8007, 12.80591
338.2828, 12.55371
338.7649, 9.693359
339.2470, 3.608643
339.7292, 0.3552250
340.2113, 0.7592770
340.6934, 1.122070
341.1755, 6.212402
341.6576, 13.83618
342.1397, 19.43896
342.6219, 17.57812
343.1040, 9.123535
343.5861, 4.046631
344.0682, 5.064453
344.5503, 6.634521
345.0324, 4.925293
345.5146, 1.089600
345.9967, 1.913818
346.4788, 1.867188
346.9609, 0.1457520
347.4430, 5.5907998E-02
347.9251, 1.334473
348.4073, 4.065918
348.8894, 10.46924
349.3715, 17.30664
349.8536, 20.30322
350.3357, 17.45288
350.8178, 12.04028
351.3000, 7.537354
351.7821, 3.921875
352.2642, 0.8430180
352.7463, 2.651367
353.2284, 4.949951
353.7105, 4.034912
354.1927, 0.4704590
354.6748, 5.285889
355.1569, 8.554443
355.6390, 10.34741
356.1211, 10.67065
356.6032, 8.430420
357.0854, 6.626221
357.5675, 8.925049
358.0496, 14.46191
358.5317, 18.83374
359.0138, 18.99292
359.4959, 17.46094
359.9781, 19.36230
360.4602, 25.75757
360.9423, 30.18115
361.4244, 26.36060
361.9065, 17.21387
362.3886, 10.14575
362.8708, 8.062012
363.3529, 6.360596
363.8350, 0.1535640
364.3171, 10.46094
364.7992, 17.33569
365.2813, 16.38330
365.7635, 11.24341
366.2456, 9.433105
366.7277, 12.00269
367.2098, 14.33838
367.6919, 14.06323
368.1740, 12.35571
368.6562, 11.76953
369.1383, 13.17188
369.6204, 14.49756
370.1025, 12.66992
370.5846, 7.434570
371.0667, 3.589600
371.5489, 1.642822
372.0310, 1.375244
372.5131, 3.543945
372.9952, 7.847412
373.4773, 11.36377
373.9594, 11.38550
374.4416, 8.535156
374.9237, 9.279785
375.4058, 18.41187
375.8879, 25.66235
376.3700, 24.26294
376.8521, 18.13452
377.3343, 15.98779
377.8164, 22.02344
378.2985, 32.70898
378.7806, 39.82983
379.2627, 41.52393
379.7448, 42.66577
380.2270, 41.34424
380.7091, 40.81323
381.1912, 45.26562
381.6733, 55.02441
382.1554, 65.70801
382.6375, 72.56787
383.1197, 75.03174
383.6018, 75.97900
384.0839, 73.92773
384.5660, 72.06836
385.0481, 72.08179
385.5302, 73.49951
386.0124, 74.82422
386.4945, 75.00073
386.9766, 74.42773
387.4587, 75.21143
387.9408, 78.36182
388.4229, 81.81323
388.9051, 84.94556
389.3872, 88.47144
389.8693, 93.74414
390.3514, 101.0303
390.8335, 108.4580
391.3156, 112.9768
391.7978, 113.8411
392.2799, 113.7776
392.7620, 111.8113
393.2441, 109.8582
393.7262, 108.2605
394.2083, 107.4414
394.6905, 108.3535
395.1726, 112.2935
395.6547, 118.8333
396.1368, 123.4976
396.6189, 125.4543
397.1010, 126.5242
397.5832, 125.9724
398.0653, 125.4265
398.5474, 127.3716
399.0295, 133.1086
399.5116, 140.1770
399.9937, 143.8560
400.4759, 143.0029
400.9580, 144.7581
401.4401, 154.8486
401.9222, 165.2112
402.4043, 169.5315
402.8864, 167.6909
403.3686, 165.2332
403.8507, 166.7056
404.3328, 171.0972
404.8149, 173.1392
405.2970, 170.5916
405.7791, 169.5146
406.2613, 176.3792
406.7434, 187.2488
407.2255, 194.5249
407.7076, 194.0647
408.1897, 191.5583
408.6718, 193.2537
409.1540, 198.9419
409.6361, 204.7080
410.1182, 208.0503
410.6003, 211.2285
411.0824, 219.0122
411.5645, 233.4939
412.0467, 244.1421
412.5288, 243.4761
413.0109, 236.6401
413.4930, 232.4924
413.9751, 232.9219
414.4572, 235.7698
414.9394, 239.2229
415.4215, 243.0391
415.9036, 245.4116
416.3857, 244.6370
416.8678, 244.1772
417.3499, 248.5757
417.8321, 255.7539
418.3142, 258.2739
418.7963, 251.6458
419.2784, 239.3379
419.7605, 231.7788
420.2426, 231.7021
420.7248, 231.8247
421.2069, 232.2290
421.6890, 232.5066
422.1711, 230.8984
422.6532, 226.9673
423.1353, 223.2344
423.6175, 223.0562
424.0996, 227.6760
424.5817, 229.7429
425.0638, 226.6184
425.5459, 223.9575
426.0280, 225.2510
426.5102, 228.4866
426.9923, 229.2461
427.4744, 224.7842
427.9565, 216.9932
428.4386, 212.8127
428.9207, 215.9807
429.4029, 215.9773
429.8850, 208.9460
430.3671, 200.5461
430.8492, 195.1086
431.3313, 193.2976
431.8134, 193.1729
432.2956, 193.5112
432.7777, 194.5513
433.2598, 193.5896
433.7419, 189.1804
434.2241, 183.9026
434.7062, 178.5259
435.1883, 173.2605
435.6704, 168.7278
436.1525, 165.4543
436.6346, 162.3674
437.1168, 157.0149
437.5989, 148.9609
438.0810, 143.4475
438.5631, 144.0730
439.0452, 146.8894
439.5273, 147.6875
440.0095, 146.3015
440.4916, 143.0952
440.9737, 137.4365
441.4558, 130.2307
441.9379, 123.3799
442.4200, 117.1296
442.9022, 110.9795
443.3843, 104.0645
443.8664, 96.76294
444.3485, 91.02588
444.8306, 86.01416
445.3127, 83.64941
445.7949, 86.44727
446.2770, 92.27441
446.7591, 97.04419
447.2412, 99.11328
447.7233, 98.80225
448.2054, 96.46997
448.6876, 90.75952
449.1697, 86.10815
449.6518, 84.78833
450.1339, 83.10864
450.6160, 76.85498
451.0981, 66.90112
451.5803, 58.36157
452.0624, 55.65820
452.5445, 58.30615
453.0266, 59.99707
453.5087, 59.72729
453.9908, 59.16797
454.4730, 58.11011
454.9551, 57.12305
455.4372, 56.92261
455.9193, 57.68384
456.4014, 58.83521
456.8835, 59.31177
457.3657, 58.60938
457.8478, 59.49878
458.3299, 65.97900
458.8120, 70.18555
459.2941, 67.34668
459.7762, 59.60400
460.2584, 52.41431
460.7405, 49.36377
461.2226, 47.99805
461.7047, 41.98169
462.1868, 29.65259
462.6689, 20.64014
463.1511, 19.60278
463.6332, 22.80420
464.1153, 28.24731
464.5974, 36.15088
465.0795, 40.29443
465.5616, 33.60498
466.0438, 21.00366
466.5259, 13.81958
467.0080, 13.91846
467.4901, 16.28589
467.9722, 17.51587
468.4543, 17.86768
468.9365, 18.69580
469.4186, 20.58618
469.9007, 22.42944
470.3828, 24.45483
470.8649, 25.93994
471.3470, 25.06787
471.8292, 21.09521
472.3113, 15.31519
472.7934, 9.261230
473.2755, 1.744385
473.7576, 1.928223
474.2397, 0.6467290
474.7219, 4.758545
475.2040, 7.679688
475.6861, 9.651367
476.1682, 12.83301
476.6503, 19.00415
477.1324, 26.18140
477.6146, 26.14746
478.0967, 12.09155
478.5788, 1.641113
479.0609, 2.298828
479.5430, 3.239746
480.0251, 3.360107
480.5073, 3.241699
480.9894, 3.029785
481.4715, 2.784912
481.9536, 2.510498
482.4357, 2.538574
482.9178, 3.351074
483.4000, 3.577393
483.8821, 1.823730
484.3642, 0.5393070
484.8463, 1.608887
485.3284, 0.6760250
485.8105, 0.9965820
486.2927, 2.483887
486.7748, 3.756592
487.2569, 4.548340
487.7390, 4.822754
488.2211, 4.615723
488.7032, 3.995361
489.1854, 2.970947
489.6675, 1.193848
490.1496, 2.007813
490.6317, 5.512207
491.1138, 8.904785
491.5959, 11.92456
492.0781, 13.52393
492.5602, 12.98877
493.0423, 11.39600
493.5244, 11.20459
494.0065, 14.41382
494.4886, 15.10425
494.9708, 10.65747
495.4529, 5.435059
495.9350, 1.718750
496.4171, 0.1591800
496.8992, 1.665771
497.3813, 7.508057
497.8635, 16.42993
498.3456, 20.55005
498.8277, 14.81250
499.3098, 11.68945
499.7919, 16.08984
500.2740, 21.70361
500.7562, 23.09253
501.2383, 19.29541
501.7204, 12.89307
502.2025, 4.099609
502.6846, 6.314941
503.1667, 8.394043
503.6489, 3.133789
504.1310, 13.27563
504.6131, 11.08984
505.0952, 3.418945
505.5773, 0.5847170
506.0594, 6.689209
506.5416, 13.59009
507.0237, 13.78027
507.5058, 9.145020
507.9879, 6.712646
508.4700, 8.691406
508.9521, 10.84863
509.4343, 7.657715
509.9164, 0.8369140
510.3985, 5.395264
510.8806, 3.169434
511.3627, 0.8730470
511.8448, 5.003174
512.3270, 8.736572
512.8091, 11.51880
513.2912, 13.13306
513.7733, 13.33838
514.2554, 11.45532
514.7375, 5.825684
515.2197, 2.079590
515.7018, 0.9575200
516.1839, 1.312256
516.6660, 3.333740
517.1481, 11.48193
517.6302, 20.15552
518.1124, 27.99341
518.5945, 33.85864
519.0766, 34.03394
519.5587, 26.44043
520.0408, 19.74658
520.5229, 14.78003
521.0051, 12.08862
521.4872, 13.36890
521.9693, 17.94751
522.4514, 21.79736
522.9335, 22.27173
523.4156, 20.57642
523.8978, 17.74194
524.3799, 13.56567
524.8620, 13.32861
525.3441, 21.68018
525.8262, 34.16064
526.3083, 41.73291
526.7905, 44.45776
527.2726, 43.26025
527.7547, 34.52612
528.2368, 24.31616
528.7189, 19.84521
529.2010, 21.36963
529.6832, 23.97119
530.1653, 23.75024
530.6474, 21.50586
531.1295, 22.72437
531.6116, 31.95093
532.0938, 38.88452
532.5759, 41.30566
533.0580, 41.66113
533.5401, 41.86523
534.0222, 42.37354
534.5043, 42.93311
534.9865, 43.08276
535.4686, 42.94971
535.9507, 44.55103
536.4328, 49.65991
536.9149, 52.98486
537.3970, 51.61377
537.8792, 48.39136
538.3613, 46.27002
538.8434, 45.92822
539.3255, 45.78271
539.8076, 44.44849
540.2897, 42.45435
540.7719, 40.92480
541.2540, 39.95093
541.7361, 40.33496
542.2182, 42.72192
542.7003, 46.92773
543.1824, 51.99072
543.6646, 60.31641
544.1467, 66.19531
544.6288, 66.03687
545.1109, 63.02246
545.5930, 60.55371
546.0751, 59.65991
546.5573, 61.35132
547.0394, 67.26733
547.5215, 77.60693
548.0036, 84.30273
548.4857, 83.35840
548.9678, 83.07690
549.4500, 84.98975
549.9321, 88.24097
550.4142, 92.68433
550.8963, 98.00049
551.3784, 101.7839
551.8605, 100.8611
552.3427, 95.52197
552.8248, 89.84814
553.3069, 83.02368
553.7890, 77.80371
554.2711, 76.27930
554.7532, 77.24878
555.2354, 79.30005
555.7175, 82.29736
556.1996, 86.11548
556.6817, 91.69995
557.1638, 97.84863
557.6459, 102.2241
558.1281, 104.3923
558.6102, 104.8027
559.0923, 103.4199
559.5744, 100.3870
560.0565, 98.75659
560.5386, 99.95166
561.0208, 100.2527
561.5029, 98.49048
561.9850, 95.78540
562.4671, 93.44360
562.9492, 91.89429
563.4313, 91.34619
563.9135, 92.25830
564.3956, 94.58716
564.8777, 96.18701
565.3598, 97.28418
565.8419, 97.21216
566.3240, 94.94385
566.8062, 91.98462
567.2883, 90.17212
567.7704, 89.92432
568.2525, 89.29517
568.7346, 85.59961
569.2167, 80.68579
569.6989, 80.66431
570.1810, 86.74805
570.6631, 92.24219
571.1452, 92.83447
571.6273, 89.59106
572.1094, 86.36353
572.5916, 82.24390
573.0737, 79.74805
573.5558, 80.05176
574.0379, 82.00122
574.5200, 85.08130
575.0021, 88.79443
575.4843, 91.52832
575.9664, 91.65552
576.4485, 89.95288
576.9306, 91.70532
577.4127, 102.1597
577.8948, 107.3857
578.3770, 103.2820
578.8591, 95.52026
579.3412, 85.96973
579.8233, 76.25146
580.3054, 70.79199
580.7875, 74.81787
581.2697, 84.66309
581.7518, 91.82837
582.2339, 96.40161
582.7161, 97.38257
583.1982, 92.93896
583.6803, 85.94531
584.1624, 80.54419
584.6445, 76.70972
585.1266, 73.86987
585.6088, 73.81958
586.0909, 73.25000
586.5730, 67.73682
587.0551, 58.85547
587.5372, 52.50757
588.0193, 51.94165
588.5015, 54.91504
588.9836, 56.53418
589.4657, 56.29150
589.9478, 55.81543
590.4299, 55.21606
590.9120, 54.30762
591.3942, 52.18604
591.8763, 49.77075
592.3584, 49.18628
592.8405, 51.93018
593.3226, 55.58911
593.8047, 56.45874
594.2869, 54.74146
594.7690, 52.84814
595.2511, 51.21899
595.7332, 49.34692
596.2153, 45.92017
596.6974, 41.67090
597.1796, 39.44214
597.6617, 39.76147
598.1438, 42.03613
598.6259, 48.74341
599.1080, 56.41040
599.5901, 58.16162
600.0723, 52.51929
600.5544, 44.61572
601.0365, 39.83398
601.5186, 38.30591
602.0007, 36.40698
602.4828, 34.35059
602.9650, 31.75952
603.4471, 27.86328
603.9292, 23.89111
604.4113, 20.64233
604.8934, 18.70825
605.3755, 18.83496
605.8577, 23.16626
606.3398, 29.76562
606.8219, 31.46729
607.3040, 27.50220
607.7861, 23.76514
608.2682, 22.36694
608.7504, 22.74463
609.2325, 24.41113
609.7146, 28.00415
610.1967, 30.78394
610.6788, 31.86182
611.1609, 32.13721
611.6431, 32.44849
612.1252, 32.52661
612.6073, 31.24438
613.0894, 28.35181
613.5715, 24.89795
614.0536, 23.08154
614.5358, 23.36401
615.0179, 24.29565
615.5000, 27.74097
615.9821, 30.11133
616.4642, 27.84106
616.9464, 23.57373
617.4285, 23.20972
617.9106, 30.08618
618.3927, 37.92896
618.8748, 38.84985
619.3569, 34.16211
619.8391, 30.88550
620.3212, 30.33716
620.8033, 30.31689
621.2854, 29.07837
621.7675, 26.92480
622.2496, 25.72412
622.7318, 25.98706
623.2139, 26.45288
623.6960, 26.41113
624.1781, 26.58667
624.6602, 28.31177
625.1423, 31.31860
625.6245, 33.86646
626.1066, 34.82104
626.5887, 33.90210
627.0708, 28.84839
627.5529, 15.77246
628.0350, 8.052246
628.5172, 12.65674
628.9993, 20.33618
629.4814, 26.77954
629.9635, 31.32739
630.4456, 32.84692
630.9277, 28.88013
631.4099, 23.37915
631.8920, 20.41138
632.3741, 19.69873
632.8562, 20.38037
633.3383, 22.32568
633.8204, 24.21826
634.3026, 24.46509
634.7847, 22.84912
635.2668, 22.74976
635.7489, 24.80518
636.2310, 27.11035
636.7131, 28.30762
637.1953, 29.83301
637.6774, 34.67432
638.1595, 42.38330
638.6416, 47.56787
639.1237, 43.74756
639.6058, 33.08008
640.0880, 26.74219
640.5701, 25.79883
641.0522, 25.07617
641.5343, 21.94336
642.0164, 18.33813
642.4985, 17.60571
642.9807, 20.10962
643.4628, 20.87598
643.9449, 17.04199
644.4270, 12.15137
644.9091, 8.262695
645.3912, 5.818115
645.8734, 5.991211
646.3555, 9.253662
646.8376, 13.13867
647.3197, 13.65503
647.8018, 10.04541
648.2839, 7.310303
648.7661, 6.524170
649.2482, 5.259033
649.7303, 1.043213
650.2124, 3.248291
650.6945, 3.476074
651.1766, 1.337158
651.6588, 6.614014
652.1409, 8.810547
652.6230, 9.062744
653.1051, 9.927490
653.5872, 11.49780
654.0693, 11.52637
654.5515, 8.194336
655.0336, 3.688477
655.5157, 2.759033
655.9978, 7.835938
656.4799, 10.86353
656.9620, 11.26587
657.4442, 10.14453
657.9263, 6.575195
658.4084, 2.270020
658.8905, 0.1533200
659.3726, 1.427002
659.8547, 4.131836
660.3369, 6.428955
660.8190, 8.182861
661.3011, 7.150635
661.7832, 2.403809
662.2653, 2.998291
662.7474, 8.819824
663.2296, 13.54565
663.7117, 13.83081
664.1938, 7.892334
664.6759, 3.338623
665.1580, 4.331543
665.6401, 6.349365
666.1223, 4.286865
666.6044, 0.6467290
667.0865, 3.380615
667.5686, 1.227051
668.0507, 3.280762
668.5328, 5.620605
669.0150, 5.741699
669.4971, 3.651611
669.9792, 3.315674
670.4613, 9.044922
670.9434, 10.74292
671.4255, 9.740234
671.9077, 7.755859
672.3898, 4.924561
672.8719, 2.351074
673.3540, 9.0332001E-02
673.8361, 1.159912
674.3182, 0.1594240
674.8004, 3.886963
675.2825, 8.282227
675.7646, 12.69995
676.2467, 16.10864
676.7288, 15.77222
677.2109, 8.335938
677.6931, 5.035889
678.1752, 8.488281
678.6573, 12.92944
679.1394, 16.38940
679.6215, 19.00659
680.1036, 21.47998
680.5858, 24.08496
681.0679, 25.59204
681.5500, 23.54370
682.0321, 19.53955
682.5142, 18.87817
682.9963, 22.16748
683.4785, 24.47925
683.9606, 22.77124
684.4427, 18.72510
684.9248, 16.26440
685.4069, 16.33447
685.8890, 15.84082
686.3712, 14.11279
686.8533, 12.45752
687.3354, 11.95874
687.8175, 11.98022
688.2996, 11.28857
688.7817, 9.441650
689.2639, 7.114746
689.7460, 4.665771
690.2281, 2.312988
690.7102, 2.171143
691.1923, 5.133301
691.6744, 6.612549
692.1566, 3.547363
692.6387, 1.843994
693.1208, 5.247070
693.6029, 6.525635
694.0850, 6.971436
694.5671, 7.891846
695.0493, 7.050293
695.5314, 1.413330
696.0135, 6.704834
696.4956, 13.21533
696.9777, 16.54004
697.4598, 17.01587
697.9420, 13.46558
698.4241, 6.218750
698.9062, 5.050293
699.3883, 12.62622
699.8704, 18.70044
700.3525, 17.05469
700.8347, 12.92529
701.3168, 14.23779
701.7989, 21.69312
702.2810, 26.40405
702.7631, 23.66846
703.2452, 19.54004
703.7274, 17.81616
704.2095, 18.11792
704.6916, 19.41675
705.1737, 21.30737
705.6558, 23.53345
706.1379, 25.83179
706.6201, 28.18604
707.1022, 30.65137
707.5843, 33.97266
708.0664, 35.37109
708.5485, 33.16309
709.0306, 29.76196
709.5128, 26.57129
709.9949, 23.66772
710.4770, 21.74561
710.9591, 20.72852
711.4412, 21.07520
711.9233, 24.30151
712.4055, 28.85938
712.8876, 31.45044
713.3697, 31.44385
713.8518, 31.43872
714.3339, 34.32788
714.8160, 39.30981
715.2982, 39.97974
715.7803, 34.24536
716.2624, 29.04785
716.7445, 25.34521
717.2266, 23.09229
717.7087, 21.89233
718.1909, 21.92261
718.6730, 24.10938
719.1551, 30.19263
719.6372, 36.38232
720.1193, 40.91406
720.6014, 43.09668
721.0836, 40.91504
721.5657, 34.90186
722.0478, 29.53027
722.5299, 27.84839
723.0120, 28.63452
723.4941, 29.01611
723.9763, 28.99585
724.4584, 28.50098
724.9405, 27.62744
725.4226, 26.07349
725.9047, 22.54907
726.3868, 18.38550
726.8690, 16.12793
727.3511, 16.38794
727.8332, 18.76440
728.3153, 24.00098
728.7974, 30.05713
729.2795, 34.70947
729.7617, 37.56396
730.2438, 38.16528
730.7259, 36.14941
731.2080, 32.42725
731.6901, 28.74268
732.1722, 24.98828
732.6544, 22.69604
733.1365, 22.62280
733.6186, 22.71509
734.1007, 22.02954
734.5828, 21.06567
735.0649, 20.29810
735.5471, 19.75610
736.0292, 19.99072
736.5113, 20.97876
736.9934, 23.02441
737.4755, 28.29028
737.9576, 34.85278
738.4398, 36.64111
738.9219, 31.63403
739.4040, 24.84863
739.8861, 22.28687
740.3682, 23.89551
740.8503, 27.55957
741.3325, 35.61011
741.8146, 40.70044
742.2967, 38.34863
742.7788, 33.91553
743.2609, 31.52905
743.7430, 31.15649
744.2252, 31.28198
744.7073, 31.88379
745.1894, 32.37769
745.6715, 31.99683
746.1536, 31.42822
746.6357, 32.66553
747.1179, 35.46582
747.6000, 36.02979
748.0821, 30.91113
748.5642, 22.47046
749.0463, 18.58496
749.5284, 20.39429
750.0106, 21.33765
750.4927, 20.51172
750.9748, 18.31543
751.4569, 13.08960
751.9390, 7.129395
752.4211, 6.027588
752.9033, 13.55176
753.3854, 18.92358
753.8675, 16.16235
754.3496, 10.59424
754.8317, 6.666748
755.3138, 4.511719
755.7960, 2.990479
756.2781, 1.524414
756.7602, 0.3496090
757.2423, 0.1853030
757.7244, 0.1372070
758.2065, 0.5207520
758.6887, 2.003174
759.1708, 3.139648
759.6529, 2.276123
760.1350, 1.822021
760.6171, 6.437256
761.0992, 16.62988
761.5814, 24.02441
762.0635, 26.04614
762.5456, 26.87695
763.0277, 28.90405
763.5098, 30.64526
763.9919, 29.72388
764.4741, 26.04321
764.9562, 21.64185
765.4383, 17.61206
765.9204, 14.60815
766.4025, 14.16675
766.8846, 16.26685
767.3668, 21.23999
767.8489, 30.60547
768.3310, 37.36694
768.8131, 34.33618
769.2952, 23.67798
769.7773, 17.85620
770.2595, 20.99219
770.7416, 22.61621
771.2237, 20.73047
771.7058, 18.44360
772.1879, 17.93823
772.6700, 18.52271
773.1522, 18.37085
773.6343, 16.75659
774.1164, 15.01636
774.5985, 15.40112
775.0806, 16.34351
775.5627, 12.92163
776.0449, 5.463623
776.5270, 1.163574
777.0091, 3.488037
777.4912, 8.891602
777.9733, 12.26392
778.4554, 13.50781
778.9376, 13.90527
779.4197, 15.19946
779.9019, 13.14209
780.3840, 2.145020
780.8661, 9.001465
781.3482, 11.53296
781.8303, 6.174072
782.3124, 1.018555
782.7946, 0.7683110
783.2767, 0.8625490
783.7588, 1.535645
784.2409, 3.953125
784.7230, 0.4775390
785.2051, 8.780518
785.6873, 16.91846
786.1694, 18.96240
786.6515, 17.27783
787.1336, 18.11523
787.6157, 22.15137
788.0978, 25.18872
788.5800, 27.53394
789.0621, 27.91455
789.5442, 23.81763
790.0263, 18.12891
790.5084, 15.81812
790.9905, 18.02100
791.4727, 18.88379
791.9548, 14.99561
792.4369, 11.34521
792.9190, 11.55396
793.4011, 13.97729
793.8832, 15.26685
794.3654, 14.83911
794.8475, 15.54761
795.3296, 20.83643
795.8117, 28.33203
796.2938, 31.29004
796.7759, 29.75464
797.2581, 28.36914
797.7402, 28.34546
798.2223, 27.92871
798.7044, 25.26440
799.1865, 20.90405
799.6686, 18.23218
800.1508, 15.99609
800.6329, 17.39014
801.1150, 27.78198
801.5971, 36.60107
802.0792, 36.68774
802.5613, 31.29077
803.0435, 26.68140
803.5256, 24.74878
804.0077, 23.65454
804.4898, 21.29175
804.9719, 19.47559
805.4540, 22.19067
805.9362, 28.13428
806.4183, 31.46729
806.9004, 30.14160
807.3825, 27.05151
807.8646, 25.71851
808.3467, 25.83765
808.8289, 22.79761
809.3110, 14.20312
809.7931, 9.010742
810.2752, 11.50366
810.7573, 15.46948
811.2394, 14.72778
811.7216, 11.24316
812.2037, 11.92944
812.6858, 21.63281
813.1679, 28.28564
813.6500, 25.80542
814.1321, 20.27246
814.6143, 15.14551
815.0964, 11.70142
815.5785, 11.63647
816.0606, 15.62427
816.5427, 21.57935
817.0248, 28.26514
817.5070, 34.90723
817.9891, 38.41040
818.4712, 38.76050
818.9533, 38.79175
819.4354, 39.52319
819.9175, 39.86475
820.3997, 38.35522
820.8818, 35.04126
821.3639, 32.91333
821.8460, 32.90210
822.3281, 32.79688
822.8102, 31.02441
823.2924, 30.34253
823.7745, 34.68359
824.2566, 41.39722
824.7387, 43.31982
825.2208, 37.03931
825.7029, 30.43872
826.1851, 29.43750
826.6672, 29.94727
827.1493, 26.39307
827.6314, 19.91626
828.1135, 15.22729
828.5956, 14.13965
829.0778, 14.84790
829.5599, 15.30371
830.0420, 15.62061
830.5241, 16.80322
831.0062, 19.19287
831.4883, 19.08496
831.9705, 13.89893
832.4526, 9.323730
832.9347, 11.37476
833.4168, 19.04590
833.8989, 24.26050
834.3810, 25.13818
834.8632, 26.68945
835.3453, 30.21680
835.8274, 33.94434
836.3095, 36.13770
836.7916, 37.53833
837.2737, 40.78003
837.7559, 47.03345
838.2380, 51.53491
838.7201, 47.95850
839.2022, 41.66406
839.6843, 41.32959
840.1664, 45.04590
840.6486, 45.94336
841.1307, 42.06812
841.6128, 36.88696
842.0949, 33.74927
842.5770, 32.64038
843.0591, 32.63550
843.5413, 33.93701
844.0234, 33.45337
844.5055, 29.61694
844.9876, 26.21460
845.4697, 25.85742
845.9518, 27.90869
846.4340, 30.59912
846.9161, 35.02637
847.3982, 37.23096
847.8803, 34.08667
848.3624, 31.17529
848.8445, 32.11914
849.3267, 35.14966
849.8088, 37.32886
850.2909, 37.61401
850.7730, 37.58838
851.2551, 38.90283
851.7372, 40.07837
852.2194, 39.29785
852.7015, 37.17773
853.1836, 34.40918
853.6657, 31.11011
854.1478, 28.26318
854.6299, 26.34424
855.1121, 25.86572
855.5942, 28.48584
856.0763, 35.01636
856.5584, 37.17358
857.0405, 32.75269
857.5226, 28.90967
858.0048, 28.49731
858.4869, 30.44067
858.9690, 33.96167
859.4511, 39.27441
859.9332, 42.39697
860.4153, 38.85059
860.8975, 38.77905
861.3796, 50.78516
861.8617, 63.46631
862.3438, 65.58130
862.8259, 58.70874
863.3080, 51.72314
863.7902, 48.37305
864.2723, 46.56494
864.7544, 44.38159
865.2365, 42.35107
865.7186, 41.65234
866.2007, 42.12061
866.6829, 43.23657
867.1650, 44.67432
867.6471, 44.58911
868.1292, 40.27490
868.6113, 32.90674
869.0934, 29.82349
869.5756, 31.40381
870.0577, 33.37866
870.5398, 35.06665
871.0219, 37.02612
871.5040, 40.68823
871.9861, 45.06738
872.4683, 45.72559
872.9504, 39.57007
873.4325, 35.61548
873.9146, 36.09204
874.3967, 36.49731
874.8788, 34.75000
875.3610, 31.70728
875.8431, 27.87598
876.3252, 23.56274
876.8073, 21.19873
877.2894, 22.14502
877.7715, 25.32861
878.2537, 31.89282
878.7358, 39.09644
879.2179, 42.70703
879.7000, 42.59351
880.1821, 40.72217
880.6642, 37.97949
881.1464, 35.91602
881.6285, 37.99170
882.1106, 43.14111
882.5927, 44.95532
883.0748, 43.06812
883.5569, 39.80225
884.0391, 35.46045
884.5212, 31.85962
885.0033, 31.48413
885.4854, 34.08960
885.9675, 34.81201
886.4496, 33.18677
886.9318, 30.47388
887.4139, 25.06323
887.8960, 20.62085
888.3781, 20.50537
888.8602, 22.46460
889.3423, 21.45361
889.8245, 15.92114
890.3066, 12.41406
890.7887, 14.56299
891.2708, 17.38965
891.7529, 18.78833
892.2350, 18.55859
892.7172, 15.41235
893.1993, 10.15088
893.6814, 7.117920
894.1635, 9.854980
894.6456, 14.05127
895.1277, 12.69604
895.6099, 9.340576
896.0920, 14.27588
896.5741, 26.71680
897.0562, 34.65332
897.5383, 32.25903
898.0204, 25.25806
898.5026, 21.87280
898.9847, 21.68213
899.4668, 18.78174
899.9489, 12.13867
900.4310, 8.753174
900.9131, 11.55298
901.3953, 15.50146
901.8774, 16.57007
902.3595, 15.20068
902.8416, 13.29468
903.3237, 10.25903
903.8058, 7.861816
904.2880, 5.190674
904.7701, 4.261963
905.2522, 8.532227
905.7343, 13.52466
906.2164, 12.18457
906.6985, 4.445801
907.1807, 0.4106450
907.6628, 7.416016
908.1449, 14.61084
908.6270, 16.64941
909.1091, 15.22974
909.5912, 10.48389
910.0734, 4.136719
910.5555, 0.1372070
911.0376, 0.7546390
911.5197, 1.675293
912.0018, 9.299805
912.4839, 18.32617
912.9661, 19.13452
913.4482, 13.52344
913.9303, 11.41724
914.4124, 15.48145
914.8945, 20.83325
915.3766, 23.22778
915.8588, 23.52734
916.3409, 25.22510
916.8230, 29.00659
917.3051, 27.10376
917.7872, 17.35767
918.2693, 6.663818
918.7515, 2.824707
919.2336, 9.812500
919.7157, 11.48486
920.1978, 7.060791
920.6799, 5.197998
921.1620, 9.027344
921.6442, 11.09814
922.1263, 9.151855
922.6084, 6.352051
923.0905, 4.602783
923.5726, 3.689209
924.0547, 2.632324
924.5369, 0.8586430
925.0190, 0.6262210
925.5011, 5.434326
925.9832, 9.197998
926.4653, 6.425781
926.9474, 0.8049320
927.4296, 2.977051
927.9117, 3.841553
928.3938, 1.669922
928.8759, 5.408203
929.3580, 11.25049
929.8401, 6.158447
930.3223, 3.767090
930.8044, 6.488525
931.2865, 2.399902
931.7686, 2.141602
932.2507, 4.525391
932.7328, 5.294922
933.2150, 4.894043
933.6971, 3.504883
934.1792, 1.563232
934.6613, 0.9248050
935.1434, 3.281250
935.6255, 5.580078
936.1077, 6.253418
936.5898, 3.992676
937.0719, 0.1484380
937.5540, 3.970459
938.0361, 7.667480
938.5182, 9.695801
939.0004, 8.466309
939.4825, 8.791992
939.9646, 14.53955
940.4467, 19.87964
940.9288, 18.14355
941.4109, 11.13892
941.8931, 6.889893
942.3752, 7.230225
942.8573, 7.404785
943.3394, 7.206543
943.8215, 6.318848
944.3036, 3.374023
944.7858, 0.3286130
945.2679, 0.4973140
945.7500, 3.826904
946.2321, 5.551025
946.7142, 1.972168
947.1964, 1.597656
947.6785, 1.322021
948.1606, 0.2807620
948.6427, 0.3132320
949.1248, 1.015137
949.6069, 2.174316
950.0891, 2.595215
950.5712, 3.215332
951.0533, 5.787109
951.5354, 8.492432
952.0175, 8.366211
952.4996, 6.080566
952.9818, 2.532471
953.4639, 1.741943
953.9460, 4.002441
954.4281, 2.627441
954.9102, 0.9797360
955.3923, 4.822021
955.8745, 8.925049
956.3566, 13.44482
956.8387, 18.41357
957.3208, 24.90405
957.8029, 33.91968
958.2850, 40.15918
958.7672, 38.19312
959.2493, 30.34644
959.7314, 25.83081
960.2135, 25.03198
960.6956, 25.98169
961.1777, 29.35938
961.6599, 32.66431
962.1420, 33.88672
962.6241, 35.43896
963.1062, 40.36670
963.5883, 48.61499
964.0704, 58.86084
964.5526, 73.50732
965.0347, 85.89307
965.5168, 96.28833
965.9989, 104.4182
966.4810, 108.6772
966.9631, 111.0200
967.4453, 114.5261
967.9274, 119.5222
968.4095, 123.7485
968.8916, 126.7100
969.3737, 129.3154
969.8558, 130.3501
970.3380, 132.5928
970.8201, 140.4294
971.3022, 151.5291
971.7843, 159.0068
972.2664, 160.2825
972.7485, 163.5310
973.2307, 175.4353
973.7128, 190.7856
974.1949, 204.3652
974.6770, 217.7483
975.1591, 235.0530
975.6412, 255.7078
976.1234, 274.1438
976.6055, 286.7175
977.0876, 297.5505
977.5698, 311.4102
978.0519, 327.9785
978.5340, 347.1946
979.0161, 367.3547
979.4982, 382.4927
979.9803, 391.7659
980.4625, 402.1287
980.9446, 419.4470
981.4267, 439.8733
981.9088, 454.4517
982.3909, 464.0181
982.8730, 476.5027
983.3552, 492.0779
983.8373, 509.6763
984.3194, 529.5854
984.8015, 550.2588
985.2836, 570.0718
985.7657, 588.6599
986.2479, 604.0002
986.7300, 614.1824
987.2121, 630.7947
987.6942, 659.0837
988.1763, 683.8926
988.6584, 695.6252
989.1406, 703.1726
989.6227, 718.2229
990.1048, 740.8738
990.5869, 763.1099
991.0690, 786.0300
991.5511, 806.5386
992.0333, 824.6936
992.5154, 840.1724
992.9975, 850.5994
993.4796, 859.1682
993.9617, 870.4724
994.4438, 884.5757
994.9260, 901.4141
995.4081, 923.5723
995.8902, 944.5613
996.3723, 962.4868
996.8544, 979.6211
997.3365, 995.9219
997.8187, 1012.653
998.3008, 1033.352
998.7829, 1059.594
999.2650, 1083.297
999.7471, 1100.987
1000.229, 1116.208
1000.711, 1128.547
1001.193, 1141.070
1001.676, 1156.962
1002.158, 1175.648
1002.640, 1195.550
1003.122, 1216.573
1003.604, 1233.816
1004.086, 1242.597
1004.568, 1248.813
1005.050, 1256.176
1005.533, 1264.333
1006.015, 1273.627
1006.497, 1283.092
1006.979, 1289.798
1007.461, 1292.296
1007.943, 1293.315
1008.425, 1293.576
1008.907, 1295.036
1009.389, 1301.852
1009.872, 1311.338
1010.354, 1317.062
1010.836, 1318.744
1011.318, 1321.415
1011.800, 1328.095
1012.282, 1335.904
1012.764, 1343.798
1013.246, 1349.029
1013.729, 1344.625
1014.211, 1332.110
1014.693, 1316.723
1015.175, 1300.188
1015.657, 1285.001
1016.139, 1273.188
1016.621, 1261.953
1017.103, 1245.824
1017.585, 1226.055
1018.068, 1207.426
1018.550, 1190.412
1019.032, 1177.510
1019.514, 1169.518
1019.996, 1162.280
1020.478, 1152.756
1020.960, 1140.835
1021.442, 1126.250
1021.924, 1109.055
1022.407, 1088.448
1022.889, 1064.164
1023.371, 1041.432
1023.853, 1021.892
1024.335, 1003.618
1024.817, 984.7710
1025.299, 966.0068
1025.781, 949.4321
1026.264, 935.1050
1026.746, 922.7844
1027.228, 913.9143
1027.710, 900.0825
1028.192, 877.1094
1028.674, 851.8643
1029.156, 830.1301
1029.638, 812.1240
1030.120, 798.9895
1030.603, 792.8416
1031.085, 783.6479
1031.567, 769.5183
1032.049, 756.7893
1032.531, 747.6738
1033.013, 740.7600
1033.495, 735.7708
1033.977, 731.6814
1034.459, 723.0703
1034.942, 707.1777
1035.424, 693.3213
1035.906, 682.2600
1036.388, 672.0718
1036.870, 663.2383
1037.352, 653.8262
1037.834, 641.2117
1038.316, 626.0464
1038.799, 612.2056
1039.281, 597.2563
1039.763, 588.3887
1040.245, 590.3887
1040.727, 592.2532
1041.209, 593.0698
1041.691, 590.1409
1042.173, 578.5845
1042.656, 560.3933
1043.138, 546.2529
1043.620, 537.1677
1044.102, 530.8479
1044.584, 531.1914
1045.066, 529.8459
1045.548, 522.2954
1046.030, 512.5361
1046.512, 503.7917
1046.995, 496.0366
1047.477, 488.9849
1047.959, 483.2751
1048.441, 477.3003
1048.923, 470.1025
1049.405, 463.5754
1049.887, 459.9253
1050.369, 456.2803
1050.851, 448.0391
1051.334, 436.9861
1051.816, 431.4893
1052.298, 436.3970
1052.780, 437.6909
1053.262, 428.4053
1053.744, 419.4126
1054.226, 416.9041
1054.708, 415.9307
1055.191, 412.4534
1055.673, 405.7559
1056.155, 394.0979
1056.637, 373.5090
1057.119, 360.2869
1057.601, 368.6838
1058.083, 374.2944
1058.565, 362.3315
1059.047, 343.8650
1059.530, 329.5496
1060.012, 319.2090
1060.494, 307.9241
1060.976, 293.7056
1061.458, 282.1243
1061.940, 277.0071
1062.422, 272.6938
1062.904, 267.8533
1063.386, 260.9229
1063.869, 247.6650
1064.351, 231.1953
1064.833, 220.5466
1065.315, 218.8870
1065.797, 217.4006
1066.279, 215.0342
1066.761, 209.4661
1067.243, 195.1990
1067.726, 180.2009
1068.208, 172.6711
1068.690, 170.9158
1069.172, 170.0293
1069.654, 169.1162
1070.136, 164.4114
1070.618, 150.7791
1071.100, 137.4727
1071.583, 128.6765
1072.065, 123.0010
1072.547, 119.9446
1073.029, 118.5935
1073.511, 118.2368
1073.993, 118.5950
1074.475, 115.5420
1074.957, 103.0815
1075.439, 91.36377
1075.922, 85.76587
1076.404, 83.54761
1076.886, 83.46924
1077.368, 84.11670
1077.850, 83.71240
1078.332, 82.02515
1078.814, 79.91284
1079.296, 78.20679
1079.779, 75.52881
1080.261, 69.11938
1080.743, 63.56885
1081.225, 64.96191
1081.707, 68.73145
1082.189, 66.90625
1082.671, 58.94165
1083.153, 51.12598
1083.635, 44.31299
1084.118, 41.03516
1084.600, 47.92310
1085.082, 53.16113
1085.564, 44.14429
1086.046, 30.39307
1086.528, 26.43335
1087.010, 32.02124
1087.492, 35.39795
1087.974, 31.64526
1088.457, 28.25415
1088.939, 28.87573
1089.421, 30.24170
1089.903, 30.85449
1090.385, 30.66870
1090.867, 30.56006
1091.349, 29.74072
1091.831, 24.84497
1092.314, 13.32007
1092.796, 4.619141
1093.278, 4.452637
1093.760, 5.239502
1094.242, 2.656738
1094.724, 0.5104980
1095.206, 2.191650
1095.688, 1.954346
1096.171, 1.524414
1096.653, 9.349854
1097.135, 13.29419
1097.617, 7.134521
1098.099, 1.607422
1098.581, 2.052246
1099.063, 3.712646
1099.545, 2.677246
1100.027, 6.7626998E-02
1100.510, 0.9987790
1100.992, 2.3437999E-02
1101.474, 1.453857
1101.956, 8.856445
1102.438, 15.05176
1102.920, 19.26855
1103.402, 20.50098
1103.884, 16.57837
1104.366, 10.17188
1104.849, 4.489502
1105.331, 0.1257320
1105.813, 3.512695
1106.295, 6.200684
1106.777, 6.780029
1107.259, 2.834229
1107.741, 0.6618650
1108.223, 0.5466310
1108.706, 0.3798830
1109.188, 0.8347170
1109.670, 4.019531
1110.152, 7.686523
1110.634, 12.66895
1111.116, 16.08740
1111.598, 17.48804
1112.080, 17.84399
1112.563, 17.05518
1113.045, 15.49683
1113.527, 13.38647
1114.009, 10.79150
1114.491, 7.704346
1114.973, 3.692627
1115.455, 0.8198240
1115.937, 0.5227050
1116.419, 1.486816
1116.901, 2.965332
1117.384, 2.944336
1117.866, 2.028809
1118.348, 7.346680
1118.830, 3.962891
1119.312, 8.515625
1119.794, 13.43311
1120.276, 7.195068
1120.758, 2.487305
1121.241, 0.3317870
1121.723, 0.4860840
1122.205, 4.440186
1122.687, 7.717041
1123.169, 4.154541
1123.651, 4.622070
1124.133, 8.877441
1124.615, 7.725586
1125.098, 5.862061
1125.580, 3.092773
1126.062, 0.8989260
1126.544, 0.2453610
1127.026, 0.8808590
1127.508, 1.548828
1127.990, 1.931396
1128.472, 0.6745610
1128.954, 2.302246
1129.437, 1.983154
1129.919, 1.986084
1130.401, 3.158447
1130.883, 7.1777001E-02
1131.365, 3.557617
1131.847, 5.129883
1132.329, 3.665771
1132.811, 3.880371
1133.293, 15.26050
1133.776, 18.23853
1134.258, 14.11646
1134.740, 15.80469
1135.222, 24.39551
1135.704, 33.57202
1136.186, 40.68994
1136.668, 44.27100
1137.150, 42.47192
1137.633, 37.21924
1138.115, 30.47241
1138.597, 23.91113
1139.079, 23.10962
1139.561, 27.43677
1140.043, 34.63916
1140.525, 43.01880
1141.007, 45.71118
1141.490, 37.60669
1141.972, 27.71411
1142.454, 25.52734
1142.936, 29.51392
1143.418, 41.61206
1143.900, 56.09814
1144.382, 60.62573
1144.864, 55.71216
1145.346, 49.10498
1145.828, 43.99976
1146.311, 41.54028
1146.793, 44.84351
1147.275, 48.64355
1147.757, 45.28931
1148.239, 41.93774
1148.721, 49.44214
1149.203, 62.72681
1149.685, 70.57300
1150.168, 71.22168
1150.650, 71.70532
1151.132, 76.04980
1151.614, 78.48462
1152.096, 74.03418
1152.578, 68.85620
1153.060, 67.82129
1153.542, 67.93335
1154.025, 64.02783
1154.507, 57.87646
1154.989, 56.90210
1155.471, 63.80176
1155.953, 69.68481
1156.435, 72.88916
1156.917, 74.26123
1157.399, 71.16870
1157.881, 69.33813
1158.364, 76.28784
1158.846, 85.41357
1159.328, 84.50830
1159.810, 72.73389
1160.292, 63.11865
1160.774, 57.16675
1161.256, 51.17798
1161.738, 44.16260
1162.220, 39.56323
1162.703, 39.46973
1163.185, 40.67334
1163.667, 40.02295
1164.149, 38.29565
1164.631, 37.83228
1165.113, 38.28613
1165.595, 42.89795
1166.077, 53.41943
1166.560, 60.88647
1167.042, 63.69019
1167.524, 60.71753
1168.006, 49.98071
1168.488, 38.27344
1168.970, 36.95752
1169.452, 43.35425
1169.934, 42.11108
1170.417, 34.06934
1170.899, 31.93481
1171.381, 36.52222
1171.863, 40.12476
1172.345, 40.34717
1172.827, 39.01660
1173.309, 37.76294
1173.791, 36.74707
1174.273, 35.00977
1174.755, 34.40015
1175.238, 42.48022
1175.720, 54.45581
1176.202, 56.08569
1176.684, 47.70044
1177.166, 39.94263
1177.648, 36.74707
1178.130, 35.38721
1178.612, 34.50513
1179.095, 33.04688
1179.577, 28.43872
1180.059, 24.20557
1180.541, 24.56885
1181.023, 28.17212
1181.505, 32.76025
1181.987, 37.49658
1182.469, 40.04834
1182.952, 38.70190
1183.434, 36.98535
1183.916, 36.83008
1184.398, 36.04248
1184.880, 30.65576
1185.362, 26.36426
1185.844, 30.92212
1186.326, 40.27588
1186.808, 43.78809
1187.291, 39.87109
1187.773, 37.53149
1188.255, 37.93726
1188.737, 38.79346
1189.219, 40.82178
1189.701, 42.06714
1190.183, 42.48657
1190.665, 41.42896
1191.147, 36.67676
1191.630, 29.50952
1192.112, 26.80444
1192.594, 29.77832
1193.076, 32.16431
1193.558, 33.85229
1194.040, 34.38135
1194.522, 33.58350
1195.004, 32.45996
1195.487, 31.78613
1195.969, 30.12646
1196.451, 24.89282
1196.933, 17.44751
1197.415, 12.63794
1197.897, 10.34448
1198.379, 10.98413
1198.861, 13.85132
1199.344, 13.79102
1199.826, 9.871826
1200.308, 9.169434
1200.790, 17.14038
1201.272, 26.52222
1201.754, 28.44727
1202.236, 26.40503
1202.718, 25.20239
1203.200, 23.68164
1203.682, 17.09009
1204.165, 8.527344
1204.647, 8.693359
1205.129, 19.80688
1205.611, 28.45117
1206.093, 26.47095
1206.575, 22.10620
1207.057, 17.80957
1207.539, 14.52344
1208.022, 12.25220
1208.504, 11.79419
1208.986, 14.48584
1209.468, 19.75244
1209.950, 25.65747
1210.432, 32.46851
1210.914, 37.98560
1211.396, 44.80249
1211.879, 45.69751
1212.361, 34.36865
1212.843, 25.35132
1213.325, 27.44189
1213.807, 33.32153
1214.289, 33.97925
1214.771, 30.78809
1215.253, 30.75049
1215.735, 34.46460
1216.218, 35.89819
1216.700, 34.84131
1217.182, 32.58521
1217.664, 29.37329
1218.146, 25.61890
1218.628, 21.32471
1219.110, 19.49512
1219.592, 25.02612
1220.074, 34.86377
1220.557, 42.03979
1221.039, 46.65454
1221.521, 48.95288
1222.003, 48.53662
1222.485, 42.19092
1222.967, 30.86279
1223.449, 23.69287
1223.931, 26.08936
1224.414, 30.47412
1224.896, 32.33911
1225.378, 32.30298
1225.860, 31.03345
1226.342, 27.91943
1226.824, 18.83984
1227.306, 8.633545
1227.788, 8.589355
1228.271, 19.00879
1228.753, 22.08521
1229.235, 6.982178
1229.717, 2.434082
1230.199, 0.5258790
1230.681, 4.916504
1231.163, 8.526367
1231.645, 10.82349
1232.127, 11.20728
1232.609, 10.55933
1233.092, 10.16553
1233.574, 10.06396
1234.056, 13.99951
1234.538, 23.07324
1235.020, 26.91040
1235.502, 24.25366
1235.984, 19.51172
1236.466, 14.05688
1236.949, 11.30933
1237.431, 14.38013
1237.913, 18.85571
1238.395, 15.56641
1238.877, 9.351807
1239.359, 14.26245
1239.841, 24.75757
1240.323, 27.47559
1240.806, 22.88135
1241.288, 16.53711
1241.770, 10.69653
1242.252, 7.379150
1242.734, 7.513916
1243.216, 10.01294
1243.698, 16.89087
1244.180, 22.80103
1244.662, 21.87695
1245.145, 18.88354
1245.627, 19.32178
1246.109, 21.81055
1246.591, 21.88086
1247.073, 18.91064
1247.555, 16.05298
1248.037, 14.02783
1248.519, 11.01172
1249.001, 6.006592
1249.484, 1.833252
1249.966, 0.7663570
1250.448, 1.886719
1250.930, 1.500977
1251.412, 0.1462400
1251.894, 3.007813
1252.376, 6.659424
1252.858, 6.886475
1253.341, 4.364746
1253.823, 5.931641
1254.305, 11.56006
1254.787, 15.94141
1255.269, 17.31641
1255.751, 17.13477
1256.233, 15.06323
1256.715, 14.14331
1257.198, 19.05640
1257.680, 23.47852
1258.162, 18.76758
1258.644, 10.81641
1259.126, 5.409180
1259.608, 3.593506
1260.090, 6.861816
1260.572, 14.61499
1261.054, 20.20752
1261.536, 21.16406
1262.019, 21.62427
1262.501, 21.35205
1262.983, 22.02490
1263.465, 25.98022
1263.947, 28.54126
1264.429, 25.88843
1264.911, 21.24463
1265.393, 19.72974
1265.876, 20.58398
1266.358, 17.91626
1266.840, 11.22681
1267.322, 9.743408
1267.804, 13.40259
1268.286, 15.62646
1268.768, 15.11987
1269.250, 13.28125
1269.733, 10.96143
1270.215, 9.781250
1270.697, 12.64136
1271.179, 15.94897
1271.661, 14.52075
1272.143, 10.65332
1272.625, 5.284912
1273.107, 1.391846
1273.589, 6.119141
1274.072, 17.02441
1274.554, 21.96851
1275.036, 16.79321
1275.518, 12.60229
1276.000, 15.69312
1276.482, 15.81055
1276.964, 5.143066
1277.446, 2.082031
1277.929, 2.618408
1278.411, 10.31543
1278.893, 11.62427
1279.375, 9.321045
1279.857, 11.30542
1280.339, 11.90210
1280.821, 12.61328
1281.303, 8.093018
1281.786, 3.835449
1282.268, 0.0000000E+00
##END=



