##NAMES=Malhmoodite
##RRUFFID=R060462
##IDEAL CHEMISTRY=Fe^2+^Zr^4+^(PO_4_)_2_&#183;4H_2_O
##LOCALITY=Union Carbide Vanadium mine, Wilson Springs, Garland County, Arkansas, USA
##OWNER=RRUFF
##SOURCE=Michael Scott
##DESCRIPTION=White to cream spherical aggregates of acicular crystals associated with colorless albite, dark green aegirine, octahedral pyrochlore, and yellowish titanite.
##STATUS=The identification of this mineral has been determined only by Raman spectroscopy
##URL=rruff.info/R060462
88.13672, 0.0000000E+00
88.61884, 4.4922002E-02
89.10095, 2.288452
89.58307, 11.29553
90.06519, 22.60645
90.54730, 30.63989
91.02942, 37.24451
91.51154, 41.89893
91.99365, 45.47119
92.47577, 47.73083
92.95789, 47.08252
93.44000, 44.11035
93.92212, 39.32812
94.40424, 30.02112
94.88635, 23.35767
95.36847, 18.65417
95.85059, 14.87061
96.33270, 11.88086
96.81482, 9.052612
97.29694, 5.799683
97.77905, 2.180298
98.26117, 1.100830
98.74329, 4.547852
99.22540, 7.248535
99.70752, 5.920288
100.1896, 0.3325200
100.6718, 6.335327
101.1539, 7.867188
101.6360, 3.608032
102.1181, 1.485474
102.6002, 2.849243
103.0823, 7.236328
103.5645, 11.30688
104.0466, 15.04297
104.5287, 18.74829
105.0108, 22.42798
105.4929, 23.65991
105.9750, 29.26306
106.4572, 42.00476
106.9393, 63.15344
107.4214, 80.19556
107.9035, 92.24353
108.3856, 101.1083
108.8677, 108.4653
109.3499, 111.9159
109.8320, 116.6110
110.3141, 123.8770
110.7962, 134.8448
111.2783, 145.6877
111.7604, 155.6357
112.2426, 165.6252
112.7247, 176.7820
113.2068, 192.5032
113.6889, 206.9786
114.1710, 216.8617
114.6531, 217.6104
115.1353, 221.7126
115.6174, 235.2423
116.0995, 254.9479
116.5816, 272.7960
117.0637, 285.4160
117.5458, 295.2209
118.0280, 303.9691
118.5101, 311.7205
118.9922, 318.7323
119.4743, 324.0610
119.9564, 328.2644
120.4385, 333.6830
120.9207, 342.1372
121.4028, 352.3737
121.8849, 362.9364
122.3670, 373.8826
122.8491, 384.7600
123.3312, 395.3180
123.8134, 405.5361
124.2955, 414.6371
124.7776, 420.7288
125.2597, 425.1409
125.7418, 430.6141
126.2239, 439.3689
126.7061, 449.6207
127.1882, 458.1184
127.6703, 464.8702
128.1524, 470.5428
128.6345, 474.7490
129.1166, 478.0608
129.5988, 482.9836
130.0809, 492.0085
130.5630, 503.8191
131.0451, 514.0808
131.5272, 522.5221
132.0093, 529.3854
132.4915, 533.7885
132.9736, 535.7510
133.4557, 539.7788
133.9378, 550.0757
134.4199, 566.0920
134.9020, 577.6379
135.3842, 582.7180
135.8663, 584.3328
136.3484, 589.9200
136.8305, 600.2510
137.3126, 610.5034
137.7947, 617.0403
138.2769, 619.1400
138.7590, 622.3838
139.2411, 627.9058
139.7232, 634.7590
140.2053, 638.8730
140.6874, 640.2980
141.1696, 639.2334
141.6517, 635.1782
142.1338, 626.4985
142.6159, 619.9321
143.0980, 618.0715
143.5801, 620.1484
144.0623, 615.9056
144.5444, 600.9735
145.0265, 584.7850
145.5086, 575.2565
145.9907, 575.9873
146.4728, 576.2401
146.9550, 574.2222
147.4371, 569.7375
147.9192, 565.9624
148.4013, 564.3835
148.8834, 562.6030
149.3655, 558.3738
149.8477, 548.1177
150.3298, 539.1270
150.8119, 533.2971
151.2940, 531.4285
151.7761, 527.8574
152.2583, 521.0452
152.7404, 512.9716
153.2225, 505.7047
153.7046, 499.8170
154.1867, 494.4504
154.6688, 489.5350
155.1510, 485.2327
155.6331, 480.8641
156.1152, 476.6561
156.5973, 472.1725
157.0794, 466.9172
157.5615, 461.1176
158.0437, 454.8162
158.5258, 447.5536
159.0079, 438.9482
159.4900, 430.5688
159.9721, 422.1702
160.4542, 414.3376
160.9364, 408.0959
161.4185, 405.6765
161.9006, 403.5857
162.3827, 399.7192
162.8648, 393.1992
163.3469, 386.4546
163.8291, 380.6023
164.3112, 375.1833
164.7933, 369.0940
165.2754, 361.1172
165.7575, 352.5193
166.2396, 343.7957
166.7218, 334.1853
167.2039, 326.4790
167.6860, 324.6763
168.1681, 326.8816
168.6502, 327.0835
169.1323, 319.3647
169.6145, 308.9690
170.0966, 301.3113
170.5787, 298.9836
171.0608, 297.6643
171.5429, 293.6284
172.0250, 287.3787
172.5072, 281.2656
172.9893, 276.3625
173.4714, 272.3726
173.9535, 269.0779
174.4356, 267.5273
174.9177, 265.6401
175.3999, 260.4373
175.8820, 252.2800
176.3641, 244.1709
176.8462, 238.3301
177.3283, 233.9812
177.8104, 229.7126
178.2926, 225.3384
178.7747, 220.8323
179.2568, 216.0571
179.7389, 211.0688
180.2210, 206.2075
180.7031, 201.7153
181.1853, 197.6086
181.6674, 193.9636
182.1495, 191.0156
182.6316, 188.4231
183.1137, 185.5193
183.5958, 182.2925
184.0780, 178.9338
184.5601, 176.0176
185.0422, 173.2327
185.5243, 169.2214
186.0064, 162.6055
186.4885, 154.7483
186.9707, 149.4641
187.4528, 146.8784
187.9349, 145.4521
188.4170, 144.0200
188.8991, 142.5466
189.3812, 140.5361
189.8634, 137.2163
190.3455, 133.3027
190.8276, 132.5430
191.3097, 135.7336
191.7918, 138.0098
192.2739, 132.3967
192.7561, 119.0151
193.2382, 106.9739
193.7203, 98.83765
194.2024, 94.36548
194.6845, 93.18091
195.1666, 95.96680
195.6488, 99.40405
196.1309, 99.20068
196.6130, 95.13281
197.0951, 90.96240
197.5772, 88.31445
198.0593, 86.91162
198.5415, 83.55713
199.0236, 78.05615
199.5057, 71.33618
199.9878, 63.75854
200.4699, 54.94507
200.9520, 48.82129
201.4342, 47.92041
201.9163, 52.10352
202.3984, 53.83105
202.8805, 53.06860
203.3626, 50.12158
203.8447, 44.69214
204.3269, 36.14990
204.8090, 28.19067
205.2911, 21.47437
205.7732, 15.89453
206.2553, 14.38647
206.7374, 18.22827
207.2196, 23.98877
207.7017, 26.78394
208.1838, 25.77197
208.6659, 24.47681
209.1480, 24.15381
209.6301, 24.92871
210.1123, 24.30298
210.5944, 21.56592
211.0765, 18.30542
211.5586, 16.79736
212.0407, 17.40063
212.5228, 18.75024
213.0050, 20.95508
213.4871, 24.33203
213.9692, 24.94580
214.4513, 21.74316
214.9334, 16.92310
215.4155, 13.58618
215.8977, 12.21289
216.3798, 11.15186
216.8619, 9.609375
217.3440, 7.290771
217.8261, 7.531494
218.3082, 12.48218
218.7904, 17.86816
219.2725, 16.90845
219.7546, 6.261719
220.2367, 3.253418
220.7188, 7.918457
221.2009, 6.784180
221.6831, 7.564697
222.1652, 11.76196
222.6473, 16.41968
223.1294, 17.06421
223.6115, 11.29956
224.0936, 6.259521
224.5758, 3.734863
225.0579, 3.940430
225.5400, 5.567871
226.0221, 9.751221
226.5042, 14.36646
226.9863, 16.55005
227.4685, 15.41577
227.9506, 13.54443
228.4327, 11.33325
228.9148, 8.583740
229.3969, 7.228027
229.8790, 8.556396
230.3612, 10.26392
230.8433, 9.224609
231.3254, 3.219238
231.8075, 1.446777
232.2896, 2.855469
232.7717, 0.5678710
233.2539, 1.015869
233.7360, 1.932373
234.2181, 2.114990
234.7002, 1.323730
235.1823, 1.131592
235.6644, 3.416504
236.1466, 5.203369
236.6287, 6.509277
237.1108, 7.635986
237.5929, 8.750488
238.0750, 9.602539
238.5571, 9.850098
239.0393, 9.113770
239.5214, 8.546387
240.0035, 8.028320
240.4856, 7.475342
240.9677, 9.046631
241.4498, 13.63965
241.9320, 19.44922
242.4141, 24.94629
242.8962, 30.37378
243.3783, 34.83936
243.8604, 37.93604
244.3425, 39.60815
244.8247, 40.92090
245.3068, 40.61084
245.7889, 41.13745
246.2710, 45.11694
246.7531, 55.43750
247.2352, 63.31812
247.7174, 66.64551
248.1995, 65.68970
248.6816, 66.34521
249.1637, 69.60229
249.6458, 73.46094
250.1279, 76.12280
250.6101, 76.45654
251.0922, 78.46802
251.5743, 83.37842
252.0564, 90.78882
252.5385, 97.07886
253.0206, 102.9092
253.5028, 106.8350
253.9849, 106.6030
254.4670, 97.81226
254.9491, 95.75146
255.4312, 104.4563
255.9133, 121.3857
256.3955, 133.8132
256.8776, 140.6003
257.3597, 144.3772
257.8418, 146.0698
258.3239, 143.8352
258.8061, 144.4092
259.2882, 149.0103
259.7703, 156.6516
260.2524, 163.8149
260.7345, 171.1860
261.2166, 177.0488
261.6988, 179.7676
262.1809, 177.2783
262.6630, 178.9038
263.1451, 187.0081
263.6272, 198.7141
264.1093, 205.4263
264.5915, 205.2969
265.0736, 204.7046
265.5557, 206.7957
266.0378, 212.1648
266.5199, 217.8374
267.0020, 223.8242
267.4842, 230.0452
267.9663, 236.5552
268.4484, 244.0032
268.9305, 249.7314
269.4126, 250.8167
269.8947, 245.2087
270.3769, 248.0161
270.8590, 261.7847
271.3411, 280.5627
271.8232, 293.8306
272.3053, 300.0786
272.7874, 306.3018
273.2696, 315.3989
273.7517, 327.5461
274.2338, 338.4734
274.7159, 348.0608
275.1980, 356.6658
275.6801, 364.3286
276.1623, 370.8391
276.6444, 377.7073
277.1265, 385.0217
277.6086, 393.0339
278.0907, 404.2886
278.5728, 420.2063
279.0550, 435.7192
279.5371, 443.8005
280.0192, 443.7397
280.5013, 444.4907
280.9834, 448.5476
281.4655, 455.7722
281.9477, 464.2026
282.4298, 473.6733
282.9119, 484.1279
283.3940, 495.7051
283.8761, 508.2800
284.3582, 521.0837
284.8404, 534.4392
285.3225, 547.8428
285.8046, 559.3381
286.2867, 568.7061
286.7688, 577.2532
287.2509, 585.2615
287.7331, 592.8042
288.2152, 601.6802
288.6973, 612.5957
289.1794, 624.8853
289.6615, 636.9661
290.1436, 648.8193
290.6258, 659.4458
291.1079, 668.7322
291.5900, 676.4585
292.0721, 681.1665
292.5542, 682.0476
293.0363, 681.4700
293.5185, 682.3328
294.0006, 684.6931
294.4827, 688.7390
294.9648, 696.2681
295.4469, 705.6099
295.9290, 712.4324
296.4112, 716.5574
296.8933, 717.8464
297.3754, 714.9441
297.8575, 708.7915
298.3396, 702.4797
298.8217, 698.1021
299.3039, 694.2839
299.7860, 688.6150
300.2681, 680.9814
300.7502, 672.8035
301.2323, 665.0342
301.7144, 657.8027
302.1966, 651.7852
302.6787, 649.2043
303.1608, 646.6812
303.6429, 639.2073
304.1250, 627.0137
304.6071, 613.8528
305.0893, 603.8105
305.5714, 594.8032
306.0535, 583.7686
306.5356, 567.0156
307.0177, 550.0522
307.4998, 538.5957
307.9820, 531.8503
308.4641, 526.1233
308.9462, 522.2437
309.4283, 516.6414
309.9104, 504.5569
310.3925, 481.5254
310.8747, 457.9126
311.3568, 441.0391
311.8389, 429.6987
312.3210, 420.4138
312.8031, 413.5007
313.2852, 406.5330
313.7674, 397.1050
314.2495, 384.5698
314.7316, 372.0374
315.2137, 362.2500
315.6958, 353.5127
316.1779, 343.0261
316.6601, 325.0234
317.1422, 308.3599
317.6243, 299.3984
318.1064, 300.6394
318.5885, 299.4360
319.0706, 289.2485
319.5528, 275.1055
320.0349, 262.6687
320.5170, 254.6487
320.9991, 247.2363
321.4812, 239.5164
321.9633, 231.3960
322.4455, 222.6726
322.9276, 211.1865
323.4097, 200.2349
323.8918, 192.2847
324.3739, 190.2664
324.8560, 188.3730
325.3382, 185.8489
325.8203, 182.6392
326.3024, 179.0447
326.7845, 176.4966
327.2666, 172.5708
327.7487, 165.9414
328.2309, 152.0076
328.7130, 141.7334
329.1951, 137.8992
329.6772, 137.6702
330.1593, 133.7466
330.6414, 122.4036
331.1236, 111.7266
331.6057, 104.3687
332.0878, 100.9778
332.5699, 99.19360
333.0520, 100.3538
333.5341, 102.3223
334.0163, 101.9148
334.4984, 98.23657
334.9805, 93.99634
335.4626, 89.72534
335.9447, 85.40723
336.4268, 81.35254
336.9090, 77.30469
337.3911, 73.86816
337.8732, 71.94141
338.3553, 72.00684
338.8374, 71.54956
339.3195, 70.00586
339.8017, 67.55273
340.2838, 64.44824
340.7659, 60.02856
341.2480, 57.07983
341.7301, 58.54785
342.2122, 64.64087
342.6944, 68.73999
343.1765, 70.27563
343.6586, 69.28101
344.1407, 64.58472
344.6228, 56.10840
345.1049, 48.72559
345.5871, 46.65161
346.0692, 48.58594
346.5513, 46.54956
347.0334, 39.55981
347.5155, 32.10889
347.9977, 31.82520
348.4798, 37.09131
348.9619, 39.27905
349.4440, 31.64453
349.9261, 19.66968
350.4082, 15.28320
350.8904, 18.44482
351.3725, 22.56592
351.8546, 21.15356
352.3367, 16.52930
352.8188, 13.85181
353.3009, 16.11035
353.7831, 18.92261
354.2652, 16.74585
354.7473, 10.50610
355.2294, 4.522461
355.7115, 0.9396970
356.1936, 0.6813960
356.6758, 0.2900390
357.1579, 3.063232
357.6400, 5.901611
358.1221, 5.459473
358.6042, 2.845947
359.0863, 0.1948240
359.5685, 1.848389
360.0506, 3.338623
360.5327, 4.388184
361.0148, 5.032715
361.4969, 4.834961
361.9790, 1.814209
362.4612, 1.430176
362.9433, 2.142578
363.4254, 4.505127
363.9075, 9.862305
364.3896, 10.35742
364.8717, 6.469238
365.3539, 3.797119
365.8360, 5.218994
366.3181, 7.185059
366.8002, 7.619629
367.2823, 5.915527
367.7644, 3.258057
368.2466, 2.229004
368.7287, 8.753174
369.2108, 11.27856
369.6929, 5.544434
370.1750, 0.3088380
370.6571, 0.8144530
371.1393, 4.605957
371.6214, 5.853027
372.1035, 0.4531250
372.5856, 7.231445
373.0677, 11.64575
373.5498, 12.20898
374.0320, 10.56689
374.5141, 5.967529
374.9962, 1.225342
375.4783, 4.791260
375.9604, 3.727783
376.4425, 1.305176
376.9247, 0.1184080
377.4068, 0.5051270
377.8889, 0.1030270
378.3710, 1.838623
378.8531, 4.432617
379.3352, 7.693604
379.8174, 11.71021
380.2995, 14.86035
380.7816, 15.65137
381.2637, 14.44824
381.7458, 13.53857
382.2279, 12.73730
382.7101, 13.13037
383.1922, 17.11816
383.6743, 23.87573
384.1564, 29.40991
384.6385, 31.30664
385.1206, 31.44507
385.6028, 33.52563
386.0849, 37.43799
386.5670, 41.04272
387.0491, 42.28857
387.5312, 42.24683
388.0133, 42.57593
388.4955, 43.50244
388.9776, 45.31421
389.4597, 49.66699
389.9418, 55.38477
390.4239, 59.05078
390.9060, 55.53491
391.3882, 51.42725
391.8703, 52.55664
392.3524, 60.58081
392.8345, 68.32690
393.3166, 71.91528
393.7987, 73.34009
394.2809, 75.09302
394.7630, 77.82300
395.2451, 81.05347
395.7272, 85.10645
396.2093, 89.84985
396.6914, 93.63354
397.1736, 94.54321
397.6557, 95.39746
398.1378, 97.92114
398.6199, 102.6272
399.1020, 108.5500
399.5841, 117.4631
400.0663, 127.4753
400.5484, 133.8674
401.0305, 133.1953
401.5126, 133.2295
401.9947, 136.9531
402.4768, 145.3499
402.9590, 151.8059
403.4411, 155.2302
403.9232, 157.9805
404.4053, 163.0632
404.8874, 171.5693
405.3695, 178.7610
405.8517, 183.6655
406.3338, 186.6284
406.8159, 188.7834
407.2980, 189.7822
407.7801, 191.7637
408.2622, 196.5537
408.7444, 203.9812
409.2265, 211.4900
409.7086, 218.9983
410.1907, 226.2478
410.6728, 232.6670
411.1549, 238.3672
411.6371, 244.0588
412.1192, 250.5093
412.6013, 256.9626
413.0834, 261.6721
413.5655, 264.5503
414.0476, 266.5359
414.5298, 268.4492
415.0119, 270.2588
415.4940, 271.7488
415.9761, 273.1287
416.4582, 273.5686
416.9403, 271.3140
417.4225, 267.3938
417.9046, 264.8110
418.3867, 266.7917
418.8688, 269.7039
419.3509, 271.0344
419.8330, 270.5305
420.3152, 270.2617
420.7973, 270.4355
421.2794, 270.6609
421.7615, 270.9746
422.2436, 271.4189
422.7257, 272.5171
423.2079, 274.5356
423.6900, 277.3635
424.1721, 279.8613
424.6542, 283.8191
425.1363, 286.5930
425.6184, 286.2971
426.1006, 278.8298
426.5827, 275.9270
427.0648, 280.5442
427.5469, 288.1812
428.0290, 290.4441
428.5111, 284.8274
428.9933, 280.7153
429.4754, 281.0625
429.9575, 285.4031
430.4396, 287.0806
430.9217, 285.7358
431.4038, 283.7275
431.8860, 284.4731
432.3681, 288.3152
432.8502, 286.7400
433.3323, 276.3025
433.8144, 262.3606
434.2965, 256.7930
434.7787, 258.9873
435.2608, 260.6951
435.7429, 257.3523
436.2250, 250.3677
436.7071, 241.9172
437.1892, 231.9050
437.6714, 223.0193
438.1535, 219.7102
438.6356, 219.1790
439.1177, 216.4348
439.5998, 209.0637
440.0819, 199.9124
440.5641, 190.2454
441.0462, 180.5566
441.5283, 172.3699
442.0104, 169.3159
442.4925, 166.0549
442.9746, 157.5913
443.4568, 140.7468
443.9389, 128.6265
444.4210, 130.3494
444.9031, 137.2559
445.3852, 139.0012
445.8673, 126.4834
446.3495, 116.1055
446.8316, 112.2222
447.3137, 114.3447
447.7958, 114.9128
448.2779, 114.0903
448.7600, 111.5090
449.2422, 106.7134
449.7243, 98.22119
450.2064, 91.14062
450.6885, 85.97095
451.1706, 81.72778
451.6527, 76.84814
452.1349, 71.21704
452.6170, 65.64551
453.0991, 60.34082
453.5812, 55.36816
454.0633, 50.98779
454.5454, 47.06445
455.0276, 44.72266
455.5097, 46.04492
455.9918, 50.11621
456.4739, 52.13574
456.9560, 50.99463
457.4381, 48.84521
457.9203, 49.31323
458.4024, 51.30859
458.8845, 51.45337
459.3666, 45.93481
459.8488, 38.83350
460.3309, 35.00415
460.8130, 34.32178
461.2951, 33.90796
461.7772, 31.14404
462.2593, 28.13135
462.7415, 27.10791
463.2236, 29.78345
463.7057, 32.40527
464.1878, 34.05737
464.6699, 34.60815
465.1520, 33.78369
465.6342, 30.74829
466.1163, 27.14575
466.5984, 23.19067
467.0805, 18.79834
467.5626, 15.28003
468.0447, 13.32300
468.5269, 11.68555
469.0090, 9.306885
469.4911, 4.695313
469.9732, 2.396973
470.4553, 2.981445
470.9374, 5.770020
471.4196, 9.985107
471.9017, 16.48413
472.3838, 21.10571
472.8659, 21.86938
473.3480, 19.09106
473.8301, 15.62231
474.3123, 11.22168
474.7944, 7.699707
475.2765, 8.189209
475.7586, 11.42798
476.2407, 11.54736
476.7228, 6.621094
477.2050, 1.1475000E-02
477.6871, 4.507568
478.1692, 7.068604
478.6513, 8.223877
479.1334, 8.063965
479.6155, 6.776123
480.0977, 3.425293
480.5798, 1.888916
481.0619, 5.007080
481.5440, 0.9692380
482.0261, 5.100342
482.5082, 8.597412
482.9904, 7.384277
483.4725, 5.089844
483.9546, 0.9589840
484.4367, 3.499023
484.9188, 5.003906
485.4009, 4.5410000E-02
485.8831, 4.784912
486.3652, 7.947510
486.8473, 9.383545
487.3294, 9.335938
487.8115, 6.959961
488.2936, 4.063965
488.7758, 1.697266
489.2579, 0.4145510
489.7400, 0.6958010
490.2221, 1.763916
490.7042, 5.178955
491.1863, 5.709717
491.6685, 3.201416
492.1506, 0.6845700
492.6327, 0.9399410
493.1148, 1.570801
493.5969, 7.2998002E-02
494.0790, 3.999756
494.5612, 6.907959
495.0433, 5.557129
495.5254, 1.430176
496.0075, 2.919434
496.4896, 7.178955
496.9717, 10.96118
497.4539, 14.65918
497.9360, 17.48315
498.4181, 17.84912
498.9002, 11.64795
499.3823, 5.815918
499.8644, 4.848633
500.3466, 8.310059
500.8287, 10.97290
501.3108, 8.561523
501.7929, 6.864502
502.2750, 9.902588
502.7571, 23.89453
503.2393, 31.11963
503.7214, 26.84473
504.2035, 17.86816
504.6856, 13.18091
505.1677, 15.37598
505.6498, 16.66895
506.1320, 15.10645
506.6141, 11.40601
507.0962, 9.596191
507.5783, 9.971436
508.0604, 10.91333
508.5425, 11.14941
509.0247, 10.84717
509.5068, 12.24170
509.9889, 15.67871
510.4710, 19.29517
510.9531, 20.69336
511.4352, 20.51782
511.9174, 20.80640
512.3995, 22.96143
512.8816, 24.83032
513.3637, 23.14990
513.8458, 19.07959
514.3279, 16.31860
514.8101, 17.44702
515.2922, 20.20410
515.7743, 23.78027
516.2564, 28.33594
516.7385, 30.99512
517.2206, 28.05298
517.7028, 24.28125
518.1849, 23.52222
518.6670, 30.21753
519.1491, 35.05396
519.6312, 36.58252
520.1133, 36.03027
520.5955, 36.08228
521.0776, 37.06763
521.5597, 37.88843
522.0418, 37.73853
522.5239, 36.72900
523.0060, 38.50195
523.4882, 43.81836
523.9703, 49.05908
524.4524, 50.78711
524.9345, 49.35645
525.4166, 48.95020
525.8987, 50.02124
526.3809, 52.13623
526.8630, 55.66211
527.3451, 59.91040
527.8272, 62.71338
528.3093, 61.86279
528.7914, 60.56616
529.2736, 63.05981
529.7557, 68.43628
530.2378, 72.30640
530.7199, 70.39014
531.2020, 67.67114
531.6841, 68.04785
532.1663, 72.86328
532.6484, 76.64307
533.1305, 77.33765
533.6126, 76.79004
534.0947, 76.69116
534.5768, 76.33936
535.0590, 77.32397
535.5411, 79.90991
536.0232, 83.78857
536.5053, 88.04028
536.9874, 93.05591
537.4695, 97.48267
537.9517, 100.8215
538.4338, 103.1716
538.9159, 104.6182
539.3980, 104.9009
539.8801, 104.7412
540.3622, 105.1631
540.8444, 106.3110
541.3265, 107.7300
541.8086, 109.5520
542.2907, 111.4485
542.7728, 113.1094
543.2549, 114.5754
543.7371, 115.8076
544.2192, 117.0461
544.7013, 118.2505
545.1834, 119.4426
545.6655, 120.8242
546.1476, 122.4717
546.6298, 124.5403
547.1119, 126.6663
547.5940, 129.0364
548.0761, 132.2690
548.5582, 132.6882
549.0403, 126.5129
549.5225, 120.2715
550.0046, 119.0664
550.4867, 123.9912
550.9688, 131.7720
551.4509, 144.3369
551.9330, 157.7302
552.4152, 162.5015
552.8973, 157.8687
553.3794, 153.0859
553.8615, 151.6594
554.3436, 152.4211
554.8257, 150.6655
555.3079, 146.5112
555.7900, 144.3892
556.2721, 150.6072
556.7542, 160.1794
557.2363, 164.0020
557.7184, 160.1577
558.2006, 156.2986
558.6827, 158.7917
559.1648, 164.4529
559.6469, 169.3010
560.1290, 171.4343
560.6111, 173.2124
561.0933, 176.0681
561.5754, 179.1667
562.0575, 180.1697
562.5396, 175.5083
563.0217, 172.0762
563.5038, 172.4067
563.9860, 176.7200
564.4681, 178.6255
564.9502, 177.2678
565.4323, 175.0901
565.9144, 173.4429
566.3965, 172.2485
566.8787, 173.1743
567.3608, 177.0337
567.8429, 180.8806
568.3250, 179.7585
568.8071, 174.7793
569.2892, 170.5923
569.7714, 168.4800
570.2535, 168.1526
570.7356, 170.0342
571.2177, 173.5911
571.6998, 176.9370
572.1819, 181.9834
572.6641, 184.3013
573.1462, 178.5283
573.6283, 164.2168
574.1104, 154.0269
574.5925, 155.2844
575.0746, 159.5100
575.5568, 161.1182
576.0389, 158.0955
576.5210, 155.2690
577.0031, 152.4805
577.4852, 150.0210
577.9673, 148.3589
578.4495, 147.7358
578.9316, 147.1548
579.4137, 146.4146
579.8958, 145.6531
580.3779, 145.7544
580.8600, 146.7004
581.3422, 146.1211
581.8243, 141.2805
582.3064, 134.3335
582.7885, 129.2141
583.2706, 125.9915
583.7527, 125.7957
584.2349, 133.8064
584.7170, 143.0049
585.1991, 145.2563
585.6812, 137.1084
586.1633, 128.4480
586.6454, 122.1946
587.1276, 118.2317
587.6097, 116.5884
588.0918, 122.0137
588.5739, 123.5745
589.0560, 117.7393
589.5381, 107.5464
590.0203, 102.1680
590.5024, 103.7085
590.9845, 105.5435
591.4666, 105.3591
591.9487, 103.4014
592.4308, 102.0811
592.9130, 101.6316
593.3951, 100.1868
593.8772, 94.88794
594.3593, 87.43481
594.8414, 82.81494
595.3235, 81.60596
595.8057, 82.58691
596.2878, 87.04517
596.7699, 92.41479
597.2520, 94.46118
597.7341, 89.47485
598.2162, 83.93091
598.6984, 80.54736
599.1805, 79.21265
599.6626, 79.49976
600.1447, 84.86841
600.6268, 88.07300
601.1089, 86.36816
601.5911, 80.32788
602.0732, 75.66846
602.5553, 72.83154
603.0374, 70.78418
603.5195, 69.09619
604.0016, 67.92017
604.4838, 67.88916
604.9659, 68.92969
605.4480, 69.37769
605.9301, 67.40039
606.4122, 63.97607
606.8943, 61.81201
607.3765, 61.06006
607.8586, 62.04150
608.3407, 66.65869
608.8228, 72.41724
609.3049, 76.13354
609.7870, 75.51709
610.2692, 73.55786
610.7513, 70.75513
611.2334, 67.55957
611.7155, 65.55371
612.1976, 65.11572
612.6797, 65.86182
613.1619, 68.22900
613.6440, 72.38843
614.1261, 74.45239
614.6082, 74.45117
615.0903, 72.29834
615.5724, 66.51855
616.0546, 56.97021
616.5367, 52.07471
617.0188, 52.85938
617.5009, 55.69263
617.9830, 56.91821
618.4651, 56.80811
618.9473, 56.11523
619.4294, 54.86865
619.9115, 53.55786
620.3936, 53.19922
620.8757, 52.96606
621.3578, 51.35352
621.8400, 44.90698
622.3221, 40.04004
622.8042, 40.87451
623.2863, 46.06396
623.7684, 47.98364
624.2505, 41.78906
624.7327, 36.80176
625.2148, 37.16968
625.6969, 43.63135
626.1790, 46.16016
626.6611, 44.10620
627.1432, 39.73901
627.6254, 33.57861
628.1075, 25.98022
628.5896, 21.92798
629.0717, 22.38647
629.5538, 23.93823
630.0359, 22.99512
630.5181, 20.32690
631.0002, 17.12451
631.4823, 12.33325
631.9644, 9.562500
632.4465, 13.53076
632.9286, 21.21338
633.4108, 26.47534
633.8929, 25.92896
634.3750, 24.81860
634.8571, 24.19995
635.3392, 23.69922
635.8214, 22.43237
636.3035, 19.86133
636.7856, 17.75024
637.2677, 16.92969
637.7498, 17.32568
638.2319, 16.79541
638.7141, 15.21729
639.1962, 13.30835
639.6783, 12.00439
640.1604, 10.88379
640.6425, 7.971436
641.1246, 2.810547
641.6068, 1.175293
642.0889, 0.4555660
642.5710, 2.718994
643.0531, 5.220947
643.5352, 6.700195
644.0173, 6.638916
644.4995, 2.044678
644.9816, 3.679443
645.4637, 4.854248
645.9458, 4.648926
646.4279, 12.13037
646.9100, 15.64966
647.3922, 15.58081
647.8743, 12.55542
648.3564, 5.044922
648.8385, 0.4448240
649.3206, 0.2270510
649.8027, 4.335205
650.2849, 6.622070
650.7670, 6.689453
651.2491, 6.230957
651.7312, 7.057373
652.2133, 7.993652
652.6954, 7.137939
653.1776, 4.232178
653.6597, 1.072021
654.1418, 2.682129
654.6239, 5.404297
655.1060, 5.392090
655.5881, 0.1154790
656.0703, 3.845215
656.5524, 3.281006
657.0345, 1.150391
657.5166, 0.7641600
657.9987, 3.124756
658.4808, 4.160889
658.9630, 2.849121
659.4451, 0.2202150
659.9272, 1.309082
660.4093, 1.771729
660.8914, 2.800537
661.3735, 6.115723
661.8557, 9.406250
662.3378, 7.350098
662.8199, 1.305908
663.3020, 2.526367
663.7841, 1.597900
664.2662, 7.346924
664.7484, 11.21191
665.2305, 12.83813
665.7126, 10.99268
666.1947, 0.7441410
666.6768, 9.227295
667.1589, 14.03564
667.6411, 12.11133
668.1232, 10.84155
668.6053, 10.28296
669.0874, 9.882813
669.5695, 8.640137
670.0516, 6.543213
670.5338, 6.566406
671.0159, 9.486084
671.4980, 12.55713
671.9801, 10.98291
672.4622, 6.989014
672.9443, 6.134766
673.4265, 12.95264
673.9086, 18.71289
674.3907, 16.34229
674.8728, 9.123047
675.3549, 3.241455
675.8370, 1.387451
676.3192, 0.2182620
676.8013, 0.9350590
677.2834, 1.937256
677.7655, 2.209473
678.2476, 1.202393
678.7297, 0.6589360
679.2119, 1.889404
679.6940, 4.239014
680.1761, 3.028564
680.6582, 1.802490
681.1403, 6.348145
681.6224, 7.077148
682.1046, 5.885498
682.5867, 6.294922
683.0688, 8.427246
683.5509, 9.976318
684.0330, 7.756836
684.5151, 5.324707
684.9973, 6.061768
685.4794, 11.98779
685.9615, 16.55151
686.4436, 19.13110
686.9257, 19.71948
687.4078, 17.63672
687.8900, 10.66162
688.3721, 8.321289
688.8542, 13.10864
689.3363, 19.62671
689.8184, 19.22095
690.3005, 12.63940
690.7827, 5.416748
691.2648, 1.942627
691.7469, 7.422119
692.2290, 6.992920
692.7111, 2.690918
693.1932, 0.9260250
693.6754, 1.052979
694.1575, 0.7165530
694.6396, 1.476563
695.1217, 3.001221
695.6038, 3.936768
696.0859, 2.717041
696.5681, 2.581787
697.0502, 5.607666
697.5323, 11.05493
698.0144, 10.62012
698.4965, 3.039307
698.9786, 4.682373
699.4608, 9.531494
699.9429, 11.24463
700.4250, 6.819580
700.9071, 3.509521
701.3892, 11.71802
701.8713, 8.454102
702.3535, 1.658203
702.8356, 0.6210940
703.3177, 7.450195
703.7998, 13.09937
704.2819, 12.92383
704.7640, 10.55811
705.2462, 8.685059
705.7283, 7.377197
706.2104, 6.602783
706.6925, 6.362061
707.1746, 6.486328
707.6567, 6.429199
708.1389, 6.073975
708.6210, 7.803711
709.1031, 12.47412
709.5852, 17.69922
710.0673, 20.87158
710.5494, 22.02686
711.0316, 21.15381
711.5137, 16.99072
711.9958, 12.65112
712.4779, 10.10254
712.9600, 9.074951
713.4421, 9.035156
713.9243, 11.16113
714.4064, 12.20947
714.8885, 10.07397
715.3706, 6.572266
715.8527, 8.318115
716.3348, 17.65820
716.8170, 23.87402
717.2991, 22.15063
717.7812, 15.11694
718.2633, 11.42358
718.7454, 10.72754
719.2275, 10.23535
719.7097, 7.165283
720.1918, 4.507813
720.6739, 5.986816
721.1560, 10.98511
721.6381, 15.88257
722.1202, 20.89502
722.6024, 23.53101
723.0845, 21.92456
723.5666, 15.67773
724.0487, 10.26416
724.5308, 3.989502
725.0129, 0.2102050
725.4951, 0.4833980
725.9772, 6.363525
726.4593, 9.780029
726.9414, 10.59082
727.4235, 9.842285
727.9056, 7.347900
728.3878, 4.272217
728.8699, 2.744629
729.3520, 3.061279
729.8341, 4.821045
730.3162, 9.457520
730.7983, 14.45361
731.2805, 17.43628
731.7626, 16.95142
732.2447, 16.08862
732.7268, 14.67383
733.2089, 13.23120
733.6910, 11.91821
734.1732, 10.10376
734.6553, 12.04272
735.1374, 19.58032
735.6195, 27.76343
736.1016, 27.88745
736.5837, 22.07153
737.0659, 17.92017
737.5480, 18.50122
738.0301, 19.98340
738.5122, 17.66748
738.9943, 14.02808
739.4764, 13.73706
739.9586, 24.48242
740.4407, 31.61548
740.9228, 29.03564
741.4049, 20.90967
741.8870, 16.08813
742.3691, 15.46143
742.8513, 16.06812
743.3334, 17.89722
743.8155, 19.95312
744.2976, 18.63672
744.7797, 14.45947
745.2618, 11.65137
745.7440, 14.26392
746.2261, 17.85400
746.7082, 17.02295
747.1903, 12.84082
747.6724, 9.313232
748.1545, 7.265869
748.6367, 6.916016
749.1188, 9.684326
749.6009, 14.92871
750.0830, 15.34473
750.5651, 8.067383
751.0472, 2.757568
751.5294, 4.786865
752.0115, 12.53564
752.4936, 14.15063
752.9757, 9.721680
753.4578, 4.915527
753.9399, 4.080811
754.4221, 5.013428
754.9042, 4.344971
755.3863, 2.074707
755.8684, 1.034424
756.3505, 2.489258
756.8326, 5.225586
757.3148, 9.257568
757.7969, 15.13965
758.2790, 20.53076
758.7611, 26.35693
759.2432, 30.45068
759.7253, 30.90503
760.2075, 27.62598
760.6896, 26.50537
761.1717, 27.99536
761.6538, 29.33569
762.1359, 27.71484
762.6180, 24.60132
763.1002, 22.73096
763.5823, 22.71143
764.0644, 21.47437
764.5465, 14.78369
765.0286, 7.934814
765.5107, 5.753906
765.9929, 11.89380
766.4750, 14.87915
766.9571, 13.59033
767.4392, 10.65991
767.9213, 7.484375
768.4034, 3.979492
768.8856, 5.218750
769.3677, 12.28101
769.8498, 19.66309
770.3319, 21.22876
770.8140, 19.14014
771.2961, 17.48291
771.7783, 17.67285
772.2604, 16.36230
772.7425, 8.857910
773.2246, 0.4182130
773.7067, 3.458496
774.1888, 0.7075200
774.6710, 5.029297
775.1531, 9.878418
775.6352, 14.42432
776.1173, 17.93677
776.5994, 20.43018
777.0815, 20.97925
777.5637, 19.22510
778.0458, 16.49438
778.5279, 13.38452
779.0100, 10.69360
779.4921, 10.01880
779.9742, 12.77856
780.4564, 15.59570
780.9385, 16.47339
781.4206, 16.68994
781.9027, 17.95410
782.3848, 20.04980
782.8669, 24.04468
783.3491, 32.18579
783.8312, 39.78320
784.3133, 37.56348
784.7954, 26.10962
785.2775, 16.63892
785.7596, 11.79956
786.2418, 9.701904
786.7239, 8.279785
787.2060, 7.968018
787.6881, 9.715332
788.1702, 17.17529
788.6523, 22.21387
789.1345, 19.52856
789.6166, 13.35010
790.0987, 11.02686
790.5808, 14.68823
791.0629, 18.12109
791.5450, 21.06104
792.0272, 22.73193
792.5093, 19.73438
792.9914, 13.06250
793.4735, 11.28345
793.9556, 19.18335
794.4377, 28.16919
794.9199, 27.30200
795.4020, 20.96582
795.8841, 17.11914
796.3662, 17.15234
796.8483, 21.36987
797.3304, 35.15918
797.8126, 51.50854
798.2947, 57.66626
798.7768, 50.35669
799.2589, 42.58130
799.7410, 36.18823
800.2231, 31.26758
800.7053, 27.95728
801.1874, 26.30566
801.6695, 26.78784
802.1516, 31.82788
802.6337, 35.57129
803.1158, 30.61377
803.5980, 21.53198
804.0801, 16.02661
804.5622, 20.43750
805.0443, 23.53418
805.5264, 22.94775
806.0085, 20.38745
806.4907, 18.86621
806.9728, 18.49561
807.4549, 18.28320
807.9370, 17.74414
808.4191, 17.55176
808.9012, 20.16357
809.3834, 24.02466
809.8655, 24.57324
810.3476, 15.82959
810.8297, 9.593750
811.3118, 17.54785
811.7939, 31.50293
812.2761, 37.33765
812.7582, 24.23730
813.2403, 16.59082
813.7224, 18.87280
814.2045, 26.04980
814.6866, 28.73926
815.1688, 27.01025
815.6509, 25.89844
816.1330, 26.79785
816.6151, 28.52783
817.0972, 29.74854
817.5793, 30.59497
818.0615, 31.37842
818.5436, 33.07251
819.0257, 33.40186
819.5078, 29.52490
819.9899, 24.59082
820.4720, 23.71436
820.9542, 29.34326
821.4363, 32.56860
821.9184, 32.13647
822.4005, 29.22461
822.8826, 24.39893
823.3647, 18.39526
823.8469, 14.84717
824.3290, 14.92773
824.8111, 16.14062
825.2932, 16.87183
825.7753, 17.80225
826.2574, 19.72559
826.7396, 24.82593
827.2217, 28.18140
827.7038, 28.36255
828.1859, 27.59473
828.6681, 28.84546
829.1502, 32.46436
829.6323, 34.20728
830.1144, 32.96289
830.5966, 31.64258
831.0787, 34.03979
831.5608, 38.77734
832.0429, 43.75903
832.5250, 48.83105
833.0071, 52.04810
833.4893, 51.98779
833.9714, 49.86182
834.4535, 46.70972
834.9356, 40.78076
835.4177, 38.03296
835.8998, 39.26099
836.3820, 42.30176
836.8641, 45.71191
837.3462, 49.31104
837.8283, 51.94971
838.3104, 53.72510
838.7925, 53.43750
839.2747, 47.64014
839.7568, 40.20898
840.2389, 34.98242
840.7210, 32.16895
841.2031, 33.55347
841.6852, 43.43384
842.1674, 53.64917
842.6495, 58.98364
843.1316, 58.77515
843.6137, 58.23999
844.0958, 57.29419
844.5779, 55.18823
845.0601, 50.48438
845.5422, 44.96704
846.0243, 41.75903
846.5064, 41.17896
846.9885, 41.70923
847.4706, 43.69580
847.9528, 45.53345
848.4349, 45.94873
848.9170, 44.60498
849.3991, 44.38550
849.8812, 45.97070
850.3633, 47.69385
850.8455, 48.55029
851.3276, 48.65479
851.8097, 48.82104
852.2918, 48.92505
852.7739, 48.16577
853.2560, 44.15991
853.7382, 40.41089
854.2203, 40.83105
854.7024, 45.20898
855.1845, 47.50977
855.6666, 43.21167
856.1487, 40.00635
856.6309, 40.99414
857.1130, 45.50146
857.5951, 47.70557
858.0772, 47.05273
858.5593, 46.26514
859.0414, 47.42554
859.5236, 48.84839
860.0057, 47.44434
860.4878, 43.57202
860.9699, 39.83325
861.4520, 36.49243
861.9341, 34.90723
862.4163, 36.74414
862.8984, 40.31641
863.3805, 41.83911
863.8626, 41.25317
864.3447, 40.70703
864.8268, 40.52515
865.3090, 39.79468
865.7911, 35.90015
866.2732, 31.01001
866.7553, 30.83179
867.2374, 40.14893
867.7195, 48.83765
868.2017, 52.26343
868.6838, 51.92432
869.1659, 49.09937
869.6480, 40.53394
870.1301, 36.10913
870.6122, 38.54858
871.0944, 42.64185
871.5765, 39.81079
872.0586, 31.47754
872.5407, 26.56689
873.0228, 27.62280
873.5049, 29.90845
873.9871, 28.31689
874.4692, 25.09717
874.9513, 23.18677
875.4334, 23.56543
875.9155, 25.27100
876.3976, 29.02490
876.8798, 33.00781
877.3619, 35.98218
877.8440, 37.85376
878.3261, 37.81030
878.8082, 35.99121
879.2903, 33.26904
879.7725, 28.61987
880.2546, 23.51416
880.7367, 19.35400
881.2188, 16.38794
881.7009, 17.09033
882.1830, 27.20117
882.6652, 36.52808
883.1473, 39.84766
883.6294, 37.38965
884.1115, 35.77246
884.5936, 35.12476
885.0757, 34.63647
885.5579, 33.49927
886.0400, 32.32275
886.5221, 32.72290
887.0042, 34.21655
887.4863, 34.94922
887.9684, 33.35327
888.4506, 31.45630
888.9327, 29.50073
889.4148, 27.91919
889.8969, 28.63745
890.3790, 32.93970
890.8611, 34.80469
891.3433, 32.11353
891.8254, 27.03784
892.3075, 22.88745
892.7896, 19.76929
893.2717, 18.05444
893.7538, 18.64990
894.2360, 19.54468
894.7181, 20.39429
895.2002, 20.59229
895.6823, 18.96826
896.1644, 13.98877
896.6465, 10.88330
897.1287, 10.45654
897.6108, 11.04102
898.0929, 10.32251
898.5750, 8.777832
899.0571, 8.430176
899.5392, 9.720459
900.0214, 10.98438
900.5035, 9.952393
900.9856, 8.987549
901.4677, 10.88696
901.9498, 17.77271
902.4319, 19.95728
902.9141, 15.45483
903.3962, 9.620850
903.8783, 5.247070
904.3604, 2.358887
904.8425, 1.223145
905.3246, 1.830811
905.8068, 3.791016
906.2889, 8.781738
906.7710, 13.47729
907.2531, 15.05688
907.7352, 13.74243
908.2173, 12.23511
908.6995, 10.70288
909.1816, 9.510498
909.6637, 8.966797
910.1458, 8.751709
910.6279, 8.059082
911.1100, 6.837646
911.5922, 4.351807
912.0743, 0.8786620
912.5564, 5.686035
913.0385, 6.363525
913.5206, 4.685547
914.0027, 3.685547
914.4849, 8.004883
914.9670, 6.853760
915.4491, 4.874023
915.9312, 17.38501
916.4133, 15.62012
916.8954, 0.5937500
917.3776, 7.655273
917.8597, 6.091797
918.3418, 1.952393
918.8239, 1.498291
919.3060, 2.511230
919.7881, 1.972168
920.2703, 1.574219
920.7524, 1.392090
921.2345, 6.762695
921.7166, 14.47339
922.1987, 16.15942
922.6808, 12.32666
923.1630, 14.51733
923.6451, 22.65552
924.1272, 28.20215
924.6093, 21.56470
925.0914, 12.24487
925.5735, 10.73145
926.0557, 15.60620
926.5378, 18.83594
927.0199, 16.94995
927.5020, 14.89233
927.9841, 13.74609
928.4662, 12.99609
928.9484, 10.56104
929.4305, 6.773682
929.9126, 7.084229
930.3947, 15.46851
930.8768, 23.28394
931.3589, 19.08887
931.8411, 9.281250
932.3232, 3.138672
932.8053, 5.050049
933.2874, 7.466797
933.7695, 11.06201
934.2516, 13.20898
934.7338, 9.435303
935.2159, 9.4237998E-02
935.6980, 0.1726070
936.1801, 9.994141
936.6622, 19.10498
937.1443, 16.46094
937.6265, 8.713379
938.1086, 1.010498
938.5907, 6.232422
939.0728, 9.170898
939.5549, 4.412109
940.0370, 0.2634280
940.5192, 2.818359
941.0013, 3.304443
941.4834, 0.2817380
941.9655, 5.903320
942.4476, 11.11475
942.9297, 13.18188
943.4119, 13.65894
943.8940, 14.02783
944.3761, 13.88330
944.8582, 12.23853
945.3403, 4.570313
945.8224, 2.424805
946.3046, 8.924805
946.7867, 18.59448
947.2688, 23.10522
947.7509, 23.48853
948.2330, 25.65698
948.7151, 30.65723
949.1973, 35.72461
949.6794, 38.16943
950.1615, 39.81030
950.6436, 42.25659
951.1257, 45.77490
951.6078, 49.79956
952.0900, 54.49561
952.5721, 59.31030
953.0542, 64.40918
953.5363, 69.30566
954.0184, 71.32861
954.5005, 70.98120
954.9827, 71.26465
955.4648, 74.40186
955.9469, 78.21143
956.4290, 81.08984
956.9111, 83.71313
957.3932, 87.71118
957.8754, 92.50903
958.3575, 100.6853
958.8396, 113.8940
959.3217, 128.0557
959.8038, 134.6738
960.2859, 136.6897
960.7681, 142.9172
961.2502, 156.6870
961.7323, 168.9937
962.2144, 172.2214
962.6965, 173.9041
963.1786, 181.3821
963.6608, 196.6941
964.1429, 205.9548
964.6250, 208.0623
965.1071, 208.3372
965.5892, 207.8997
966.0714, 209.2795
966.5535, 219.0254
967.0356, 235.7612
967.5177, 252.5947
967.9998, 267.8767
968.4819, 280.9360
968.9641, 290.1458
969.4462, 297.4646
969.9283, 307.6765
970.4104, 320.9670
970.8925, 335.0593
971.3746, 349.3193
971.8568, 365.3237
972.3389, 388.0659
972.8210, 413.0154
973.3031, 432.6362
973.7852, 440.8979
974.2673, 453.4753
974.7495, 473.9922
975.2316, 498.4639
975.7137, 526.4136
976.1958, 558.1819
976.6779, 584.7102
977.1600, 606.0400
977.6422, 627.9724
978.1243, 655.5801
978.6064, 685.3682
979.0885, 714.2729
979.5706, 742.2661
980.0527, 770.9968
980.5349, 801.1946
981.0170, 831.4648
981.4991, 861.2676
981.9812, 891.3118
982.4633, 923.5198
982.9454, 957.8315
983.4276, 993.0259
983.9097, 1029.355
984.3918, 1065.414
984.8739, 1097.986
985.3560, 1132.178
985.8381, 1174.635
986.3203, 1229.311
986.8024, 1274.895
987.2845, 1309.352
987.7666, 1341.696
988.2487, 1378.899
988.7308, 1417.931
989.2130, 1453.052
989.6951, 1484.870
990.1772, 1517.147
990.6593, 1556.457
991.1414, 1590.577
991.6235, 1612.783
992.1057, 1627.279
992.5878, 1641.976
993.0699, 1656.737
993.5520, 1675.470
994.0341, 1700.167
994.5162, 1723.718
994.9984, 1736.448
995.4805, 1744.368
995.9626, 1755.330
996.4447, 1771.196
996.9268, 1787.962
997.4089, 1805.578
997.8911, 1822.864
998.3732, 1838.585
998.8553, 1853.181
999.3374, 1871.618
999.8195, 1893.430
1000.302, 1914.562
1000.784, 1930.099
1001.266, 1946.909
1001.748, 1970.086
1002.230, 1998.519
1002.712, 2029.150
1003.194, 2063.579
1003.676, 2095.044
1004.159, 2122.459
1004.641, 2147.849
1005.123, 2175.488
1005.605, 2203.273
1006.087, 2226.211
1006.569, 2243.503
1007.051, 2258.460
1007.533, 2278.366
1008.016, 2291.054
1008.498, 2288.909
1008.980, 2272.759
1009.462, 2258.201
1009.944, 2245.665
1010.426, 2225.307
1010.908, 2188.433
1011.390, 2146.395
1011.872, 2114.331
1012.355, 2086.851
1012.837, 2052.918
1013.319, 2006.258
1013.801, 1956.310
1014.283, 1901.583
1014.765, 1847.255
1015.247, 1799.530
1015.729, 1756.775
1016.211, 1710.815
1016.694, 1661.044
1017.176, 1614.779
1017.658, 1581.348
1018.140, 1549.505
1018.622, 1510.384
1019.104, 1464.659
1019.586, 1421.939
1020.068, 1382.868
1020.551, 1343.759
1021.033, 1302.803
1021.515, 1262.188
1021.997, 1225.310
1022.479, 1191.888
1022.961, 1162.000
1023.443, 1137.345
1023.925, 1112.529
1024.407, 1086.682
1024.890, 1059.735
1025.372, 1030.078
1025.854, 997.9492
1026.336, 973.5115
1026.818, 956.5371
1027.300, 940.1973
1027.782, 919.0320
1028.264, 897.1309
1028.746, 877.5356
1029.229, 860.0364
1029.711, 842.8477
1030.193, 824.7532
1030.675, 809.4607
1031.157, 797.7788
1031.639, 788.6770
1032.121, 782.1382
1032.603, 776.5657
1033.086, 767.6865
1033.568, 754.1707
1034.050, 741.7454
1034.532, 731.9893
1035.014, 725.3328
1035.496, 722.9255
1035.978, 724.0620
1036.460, 721.6445
1036.943, 715.8347
1037.425, 709.9502
1037.907, 704.4609
1038.389, 701.0337
1038.871, 704.2393
1039.353, 710.0225
1039.835, 710.9463
1040.317, 699.5459
1040.799, 695.5417
1041.281, 701.4878
1041.764, 710.1289
1042.246, 715.6074
1042.728, 717.9866
1043.210, 716.5903
1043.692, 711.5706
1044.174, 705.5942
1044.656, 696.3411
1045.138, 690.5288
1045.621, 693.4958
1046.103, 701.1025
1046.585, 701.5537
1047.067, 694.7524
1047.549, 688.3970
1048.031, 684.3145
1048.513, 681.1267
1048.995, 680.4944
1049.478, 679.1118
1049.960, 672.4231
1050.442, 657.1677
1050.924, 644.0115
1051.406, 634.2722
1051.888, 624.1538
1052.370, 610.3701
1052.852, 594.8418
1053.334, 583.9204
1053.817, 576.0137
1054.299, 565.6074
1054.781, 547.3438
1055.263, 527.9089
1055.745, 508.6394
1056.227, 490.0618
1056.709, 472.6570
1057.191, 456.5173
1057.673, 439.9756
1058.156, 422.3899
1058.638, 405.7573
1059.120, 392.5657
1059.602, 380.1875
1060.084, 366.7747
1060.566, 352.6104
1061.048, 338.6575
1061.530, 324.9236
1062.013, 311.9600
1062.495, 300.6235
1062.977, 288.8345
1063.459, 271.1162
1063.941, 250.7400
1064.423, 233.5562
1064.905, 221.0530
1065.387, 211.6055
1065.870, 207.1545
1066.352, 203.0405
1066.834, 196.4192
1067.316, 187.6487
1067.798, 180.9326
1068.280, 176.0535
1068.762, 170.6843
1069.244, 162.3738
1069.726, 154.4060
1070.208, 150.2595
1070.691, 147.1992
1071.173, 140.8164
1071.655, 129.4229
1072.137, 118.8745
1072.619, 109.1179
1073.101, 103.0278
1073.583, 107.5901
1074.065, 114.5884
1074.548, 111.2102
1075.030, 98.35156
1075.512, 89.36328
1075.994, 92.56836
1076.476, 92.56201
1076.958, 85.21338
1077.440, 74.07812
1077.922, 65.35205
1078.405, 58.63379
1078.887, 51.90454
1079.369, 44.08154
1079.851, 40.18481
1080.333, 47.58862
1080.815, 55.49536
1081.297, 57.23950
1081.779, 53.26318
1082.261, 47.04150
1082.744, 38.54492
1083.226, 32.32227
1083.708, 31.56177
1084.190, 31.96729
1084.672, 28.76733
1085.154, 24.41284
1085.636, 22.92896
1086.118, 27.79443
1086.601, 27.34692
1087.083, 20.24463
1087.565, 12.68823
1088.047, 10.82080
1088.529, 11.25244
1089.011, 6.678955
1089.493, 1.373291
1089.975, 6.358887
1090.458, 2.458984
1090.940, 0.4753420
1091.422, 0.8862300
1091.904, 0.6711430
1092.386, 5.040283
1092.868, 10.89795
1093.350, 11.36353
1093.832, 5.444336
1094.314, 1.6845999E-02
1094.797, 0.9982910
1095.279, 2.039795
1095.761, 1.426758
1096.243, 7.992676
1096.725, 12.51123
1097.207, 14.98267
1097.689, 13.44019
1098.171, 5.631592
1098.653, 1.750977
1099.136, 1.192627
1099.618, 2.933838
1100.100, 5.859863
1100.582, 6.852051
1101.064, 6.708252
1101.546, 4.931396
1102.028, 3.700928
1102.510, 4.848877
1102.993, 6.646484
1103.475, 6.582520
1103.957, 4.685059
1104.439, 0.9914550
1104.921, 7.984863
1105.403, 13.15137
1105.885, 11.82544
1106.367, 9.597900
1106.849, 13.30273
1107.332, 20.54785
1107.814, 20.28345
1108.296, 13.20190
1108.778, 7.917236
1109.260, 9.844238
1109.742, 13.44116
1110.224, 16.64307
1110.706, 19.88501
1111.188, 25.42700
1111.671, 33.04346
1112.153, 33.57373
1112.635, 25.13013
1113.117, 17.09668
1113.599, 17.24951
1114.081, 20.78516
1114.563, 25.79224
1115.045, 31.28174
1115.528, 31.00293
1116.010, 24.32056
1116.492, 15.63110
1116.974, 5.473389
1117.456, 3.901367
1117.938, 9.411377
1118.420, 12.41357
1118.902, 14.61157
1119.385, 16.14600
1119.867, 16.59570
1120.349, 15.52002
1120.831, 14.23901
1121.313, 13.63354
1121.795, 13.04370
1122.277, 10.58179
1122.759, 7.082520
1123.241, 4.494385
1123.724, 3.324219
1124.206, 3.929199
1124.688, 7.907715
1125.170, 11.67822
1125.652, 12.32568
1126.134, 10.36597
1126.616, 7.172363
1127.098, 3.179932
1127.580, 0.4826660
1128.063, 0.4084470
1128.545, 1.054199
1129.027, 7.136475
1129.509, 14.29175
1129.991, 17.55127
1130.473, 16.97754
1130.955, 16.25415
1131.437, 15.58447
1131.920, 17.19287
1132.402, 26.34399
1132.884, 34.91284
1133.366, 35.34351
1133.848, 30.37573
1134.330, 30.63696
1134.812, 36.78003
1135.294, 42.82886
1135.776, 47.60913
1136.259, 51.76514
1136.741, 56.80664
1137.223, 61.04419
1137.705, 61.97363
1138.187, 59.12305
1138.669, 59.05493
1139.151, 62.33301
1139.633, 66.82080
1140.115, 72.31445
1140.598, 77.59644
1141.080, 81.14941
1141.562, 83.18579
1142.044, 83.95679
1142.526, 83.13525
1143.008, 82.34253
1143.490, 81.82910
1143.972, 81.06714
1144.455, 78.34033
1144.937, 76.26514
1145.419, 83.75610
1145.901, 96.88770
1146.383, 105.6672
1146.865, 103.5305
1147.347, 101.3828
1147.829, 101.2542
1148.312, 101.2151
1148.794, 98.59131
1149.276, 94.48682
1149.758, 94.95630
1150.240, 99.37598
1150.722, 104.3931
1151.204, 110.8740
1151.686, 114.8872
1152.168, 113.7732
1152.651, 110.5581
1153.133, 108.1030
1153.615, 106.5776
1154.097, 108.1335
1154.579, 112.7163
1155.061, 116.1863
1155.543, 114.5432
1156.025, 112.3677
1156.507, 111.2993
1156.990, 111.7529
1157.472, 116.1611
1157.954, 124.5422
1158.436, 125.9067
1158.918, 118.2124
1159.400, 110.2029
1159.882, 109.1035
1160.364, 110.3518
1160.847, 110.7485
1161.329, 110.4119
1161.811, 111.1924
1162.293, 113.3577
1162.775, 112.8601
1163.257, 108.3982
1163.739, 103.3320
1164.221, 100.4150
1164.703, 98.36816
1165.186, 95.95312
1165.668, 93.54492
1166.150, 93.31982
1166.632, 95.77002
1167.114, 96.47119
1167.596, 93.17871
1168.078, 88.94116
1168.560, 87.05884
1169.042, 86.79590
1169.525, 87.73242
1170.007, 91.34937
1170.489, 92.40356
1170.971, 90.25171
1171.453, 87.07031
1171.935, 82.38770
1172.417, 78.83252
1172.899, 83.42212
1173.382, 91.87671
1173.864, 95.92700
1174.346, 90.41357
1174.828, 86.37378
1175.310, 83.57153
1175.792, 82.48120
1176.274, 85.82397
1176.756, 89.79297
1177.239, 85.14844
1177.721, 75.32471
1178.203, 69.17383
1178.685, 73.11719
1179.167, 76.09399
1179.649, 77.29419
1180.131, 76.94238
1180.613, 74.75220
1181.095, 71.55835
1181.578, 68.67603
1182.060, 66.47900
1182.542, 65.94067
1183.024, 68.42505
1183.506, 71.02051
1183.988, 73.75562
1184.470, 75.39038
1184.952, 72.52710
1185.434, 67.84985
1185.917, 69.89429
1186.399, 78.25562
1186.881, 83.97095
1187.363, 78.75513
1187.845, 76.29541
1188.327, 80.93262
1188.809, 87.29175
1189.291, 86.67920
1189.774, 81.19971
1190.256, 76.91187
1190.738, 74.38599
1191.220, 73.19043
1191.702, 74.68506
1192.184, 75.43677
1192.666, 74.00806
1193.148, 71.86401
1193.630, 72.66553
1194.113, 75.33081
1194.595, 75.53198
1195.077, 72.26758
1195.559, 70.69019
1196.041, 76.70386
1196.523, 80.64307
1197.005, 77.77905
1197.487, 71.16235
1197.969, 69.38013
1198.452, 71.05420
1198.934, 70.60376
1199.416, 65.91919
1199.898, 63.03589
1200.380, 68.55273
1200.862, 71.90234
1201.344, 66.31934
1201.826, 55.61401
1202.309, 54.72046
1202.791, 61.35620
1203.273, 66.60889
1203.755, 67.97925
1204.237, 67.50000
1204.719, 65.26929
1205.201, 62.29443
1205.683, 58.74951
1206.166, 55.09717
1206.648, 53.21606
1207.130, 52.85962
1207.612, 52.98853
1208.094, 54.20532
1208.576, 53.67749
1209.058, 46.01880
1209.540, 40.31958
1210.022, 42.84692
1210.505, 52.40430
1210.987, 64.29761
1211.469, 77.06274
1211.951, 82.39307
1212.433, 71.79980
1212.915, 61.47559
1213.397, 57.56470
1213.879, 56.18530
1214.361, 55.55688
1214.844, 55.31543
1215.326, 52.36621
1215.808, 47.18164
1216.290, 42.14136
1216.772, 37.20410
1217.254, 34.18872
1217.736, 34.21045
1218.218, 35.67725
1218.701, 38.55225
1219.183, 42.02173
1219.665, 38.47217
1220.147, 29.69092
1220.629, 25.46289
1221.111, 38.81226
1221.593, 46.20703
1222.075, 37.79736
1222.557, 25.17529
1223.040, 19.36523
1223.522, 19.42505
1224.004, 21.71436
1224.486, 25.67334
1224.968, 28.74097
1225.450, 30.80127
1225.932, 29.99902
1226.414, 24.73120
1226.896, 18.43945
1227.379, 15.48682
1227.861, 14.79370
1228.343, 11.78735
1228.825, 6.795410
1229.307, 3.655762
1229.789, 5.295410
1230.271, 7.460938
1230.753, 9.230713
1231.236, 11.01807
1231.718, 14.24683
1232.200, 17.93530
1232.682, 17.50244
1233.164, 13.22632
1233.646, 10.50366
1234.128, 15.03442
1234.610, 16.25610
1235.093, 11.15332
1235.575, 3.980469
1236.057, 1.086426
1236.539, 3.364502
1237.021, 0.9331050
1237.503, 11.01196
1237.985, 17.05103
1238.467, 12.66138
1238.949, 8.215088
1239.432, 4.772949
1239.914, 3.080811
1240.396, 3.680176
1240.878, 6.957031
1241.360, 15.74146
1241.842, 29.55688
1242.324, 37.57690
1242.806, 34.97461
1243.288, 32.63379
1243.771, 32.73999
1244.253, 33.52222
1244.735, 32.50708
1245.217, 30.80835
1245.699, 29.86426
1246.181, 29.84814
1246.663, 31.25049
1247.145, 34.97876
1247.628, 37.49536
1248.110, 38.09570
1248.592, 37.24048
1249.074, 34.25122
1249.556, 30.96948
1250.038, 29.87158
1250.520, 31.06812
1251.002, 31.48755
1251.484, 30.95752
1251.967, 30.36694
1252.449, 30.34814
1252.931, 28.54248
1253.413, 17.45264
1253.895, 6.840820
1254.377, 9.211182
1254.859, 23.79517
1255.341, 31.59546
1255.823, 32.06177
1256.306, 29.33643
1256.788, 23.52441
1257.270, 19.13184
1257.752, 21.51050
1258.234, 26.21509
1258.716, 29.87085
1259.198, 32.42896
1259.680, 33.85107
1260.163, 34.14233
1260.645, 36.22388
1261.127, 41.65601
1261.609, 43.56763
1262.091, 32.82764
1262.573, 20.38770
1263.055, 12.61572
1263.537, 9.458740
1264.020, 12.76489
1264.502, 21.34717
1264.984, 25.68433
1265.466, 23.08130
1265.948, 20.07056
1266.430, 21.74976
1266.912, 21.95801
1267.394, 16.75244
1267.876, 8.619141
1268.359, 1.972900
1268.841, 3.078125
1269.323, 0.7685550
1269.805, 10.39380
1270.287, 18.65820
1270.769, 18.02124
1271.251, 15.34155
1271.733, 12.04663
1272.215, 8.500244
1272.698, 4.828369
1273.180, 1.929688
1273.662, 2.742188
1274.144, 8.470459
1274.626, 11.50171
1275.108, 9.186523
1275.590, 7.135254
1276.072, 7.381592
1276.555, 8.378906
1277.037, 6.664307
1277.519, 4.300537
1278.001, 4.797119
1278.483, 8.838135
1278.965, 13.27222
1279.447, 17.88184
1279.929, 22.77246
1280.411, 28.62378
1280.894, 32.45483
1281.376, 28.94604
1281.858, 22.45776
1282.340, 17.53296
1282.822, 14.60669
1283.304, 12.81641
1283.786, 12.19946
1284.268, 12.87744
1284.750, 15.25830
1285.233, 15.98999
1285.715, 11.82520
1286.197, 7.988281
1286.679, 11.77246
1287.161, 20.22363
1287.643, 20.55688
1288.125, 13.46533
1288.607, 6.061768
1289.090, 0.2128910
1289.572, 3.855957
1290.054, 2.544922
1290.536, 1.085693
1291.018, 6.433105
1291.500, 12.23071
1291.982, 14.08496
1292.464, 13.29004
1292.947, 15.59155
1293.429, 22.72827
1293.911, 26.44385
1294.393, 18.75659
1294.875, 12.93018
1295.357, 8.888428
1295.839, 8.710205
1296.321, 11.98022
1296.803, 15.00269
1297.286, 15.90454
1297.768, 14.20654
1298.250, 11.46362
1298.732, 8.453369
1299.214, 5.156494
1299.696, 2.015625
1300.178, 4.1016001E-02
1300.660, 0.0000000E+00
##END=



