##NAMES=Manganbabingtonite
##RRUFFID=R140743
##IDEAL CHEMISTRY=Ca_2_Mn^2+^Fe^3+^Si_5_O_14_(OH)
##LOCALITY=Iron Cap mine, Aravaipa District, Graham County, Arizona, USA
##OWNER=RRUFF
##SOURCE=Rock Currier
##DESCRIPTION=Short prismatic dark-greenish crystals, associated with small needle hedenbergite crystals.
##STATUS=The identification of this mineral is confirmed by single-crystal X-ray diffraction and chemical analysis.
##URL=rruff.info/R140743
##MEASURED CHEMISTRY=(Ca_1.94_Mn^2+^_0.06_)(Mn^2+^_0.82_Fe^2+^_0.16_Mg_0.02_)(Fe^3+^_0.98_Al_0.02_)(Si_4.99_Al_0.01_)O_14_(OH)
110.7962, 0.0000000E+00
111.2783, 0.4386900
111.7604, 0.1894530
112.2426, 0.1945420
112.7247, 3.6231998E-02
113.2068, 0.5342410
113.6889, 1.774681
114.1710, 4.078316
114.6531, 8.863289
115.1353, 13.40251
115.6174, 16.82688
116.0995, 19.09791
116.5816, 21.35220
117.0637, 24.63730
117.5458, 27.90485
118.0280, 30.05788
118.5101, 29.17137
118.9922, 28.06938
119.4743, 28.28784
119.9564, 29.95645
120.4385, 32.71412
120.9207, 36.31052
121.4028, 40.86615
121.8849, 46.57742
122.3670, 55.46749
122.8491, 64.73704
123.3312, 71.63297
123.8134, 75.91397
124.2955, 77.63875
124.7776, 76.42429
125.2597, 72.52442
125.7418, 66.85923
126.2239, 58.83945
126.7061, 49.46243
127.1882, 40.73753
127.6703, 32.69186
128.1524, 25.69354
128.6345, 20.58167
129.1166, 17.25908
129.5988, 14.58758
130.0809, 11.72767
130.5630, 8.817497
131.0451, 6.455391
131.5272, 4.886230
132.0093, 4.062485
132.4915, 3.471588
132.9736, 2.561653
133.4557, 1.600105
133.9378, 1.152145
134.4199, 1.163696
134.9020, 1.389366
135.3842, 1.717354
135.8663, 2.216507
136.3484, 3.251595
136.8305, 4.805946
137.3126, 6.971825
137.7947, 9.910110
138.2769, 13.73099
138.7590, 17.88528
139.2411, 22.45392
139.7232, 27.50513
140.2053, 31.25484
140.6874, 33.29439
141.1696, 34.64856
141.6517, 36.78981
142.1338, 40.35332
142.6159, 43.34940
143.0980, 45.45341
143.5801, 46.87990
144.0623, 46.18921
144.5444, 42.75345
145.0265, 37.56580
145.5086, 32.26526
145.9907, 26.17917
146.4728, 20.83055
146.9550, 16.75143
147.4371, 14.56444
147.9192, 12.28865
148.4013, 9.640213
148.8834, 6.944778
149.3655, 4.879333
149.8477, 3.772430
150.3298, 3.029724
150.8119, 2.482941
151.2940, 2.572723
151.7761, 2.202133
152.2583, 0.9326020
152.7404, 0.8703770
153.2225, 2.179337
153.7046, 2.959030
154.1867, 3.182190
154.6688, 2.806671
155.1510, 0.8958970
155.6331, 0.4759670
156.1152, 0.5989840
156.5973, 0.1918030
157.0794, 0.5824890
157.5615, 0.3153990
158.0437, 0.4497070
158.5258, 1.616089
159.0079, 3.530792
159.4900, 5.461975
159.9721, 7.238754
160.4542, 8.871201
160.9364, 10.41547
161.4185, 11.80023
161.9006, 13.14754
162.3827, 14.55624
162.8648, 16.50519
163.3469, 18.12514
163.8291, 18.82968
164.3112, 18.69902
164.7933, 18.63477
165.2754, 18.95709
165.7575, 19.61243
166.2396, 20.54500
166.7218, 21.60378
167.2039, 23.03020
167.6860, 25.04407
168.1681, 27.62231
168.6502, 30.44188
169.1323, 33.23141
169.6145, 36.23692
170.0966, 39.77977
170.5787, 44.76318
171.0608, 49.88240
171.5429, 53.84914
172.0250, 56.62569
172.5072, 59.23546
172.9893, 62.53294
173.4714, 66.27512
173.9535, 70.01241
174.4356, 74.16652
174.9177, 77.92699
175.3999, 80.67976
175.8820, 82.48007
176.3641, 82.51781
176.8462, 79.62537
177.3283, 74.35542
177.8104, 68.10831
178.2926, 61.06314
178.7747, 53.63786
179.2568, 46.45837
179.7389, 39.59619
180.2210, 33.06754
180.7031, 26.91093
181.1853, 21.17574
181.6674, 16.24907
182.1495, 12.57640
182.6316, 9.858124
183.1137, 7.485275
183.5958, 5.388916
184.0780, 3.740356
184.5601, 2.698532
185.0422, 2.283752
185.5243, 2.446884
186.0064, 3.427246
186.4885, 4.979919
186.9707, 6.165802
187.4528, 6.842476
187.9349, 7.502502
188.4170, 8.971428
188.8991, 11.17979
189.3812, 13.36991
189.8634, 15.24124
190.3455, 16.81200
190.8276, 18.22202
191.3097, 19.55350
191.7918, 20.54755
192.2739, 20.78786
192.7561, 20.25249
193.2382, 19.11150
193.7203, 17.25626
194.2024, 14.75082
194.6845, 12.27889
195.1666, 9.817764
195.6488, 7.553413
196.1309, 5.801727
196.6130, 4.535904
197.0951, 3.857948
197.5772, 4.092430
198.0593, 5.255959
198.5415, 5.866516
199.0236, 5.638634
199.5057, 5.032196
199.9878, 5.056801
200.4699, 5.754837
200.9520, 6.876419
201.4342, 8.415916
201.9163, 10.43454
202.3984, 12.17768
202.8805, 13.52094
203.3626, 14.62802
203.8447, 15.90869
204.3269, 17.39496
204.8090, 18.94493
205.2911, 20.48518
205.7732, 22.03339
206.2553, 23.49026
206.7374, 24.80914
207.2196, 26.05971
207.7017, 27.34203
208.1838, 28.51977
208.6659, 30.11533
209.1480, 32.56177
209.6301, 36.14558
210.1123, 39.32878
210.5944, 41.87799
211.0765, 44.02460
211.5586, 46.67814
212.0407, 50.30363
212.5228, 53.48843
213.0050, 55.54272
213.4871, 56.42528
213.9692, 56.06969
214.4513, 54.34517
214.9334, 51.41913
215.4155, 47.59819
215.8977, 42.46869
216.3798, 37.22458
216.8619, 32.47161
217.3440, 28.19664
217.8261, 24.49021
218.3082, 21.42496
218.7904, 18.93358
219.2725, 16.86467
219.7546, 15.25674
220.2367, 14.03568
220.7188, 13.28548
221.2009, 13.32899
221.6831, 12.91885
222.1652, 11.80341
222.6473, 10.27271
223.1294, 9.201591
223.6115, 8.666252
224.0936, 8.451477
224.5758, 8.458168
225.0579, 8.686928
225.5400, 9.128448
226.0221, 9.695038
226.5042, 10.50201
226.9863, 11.85508
227.4685, 13.87983
227.9506, 16.28218
228.4327, 18.96024
228.9148, 22.07660
229.3969, 25.14906
229.8790, 28.11998
230.3612, 31.05977
230.8433, 34.22031
231.3254, 38.09109
231.8075, 41.49051
232.2896, 43.96263
232.7717, 45.52927
233.2539, 46.11931
233.7360, 45.79895
234.2181, 44.47707
234.7002, 41.77158
235.1823, 36.97777
235.6644, 31.88313
236.1466, 27.14516
236.6287, 22.82044
237.1108, 18.69650
237.5929, 14.75082
238.0750, 11.13100
238.5571, 8.130287
239.0393, 5.805801
239.5214, 3.953011
240.0035, 2.557281
240.4856, 1.721817
240.9677, 1.001450
241.4498, 0.4328840
241.9320, 9.3650997E-02
242.4141, 0.7813570
242.8962, 1.796997
243.3783, 2.616959
243.8604, 3.012520
244.3425, 2.820656
244.8247, 2.827278
245.3068, 3.238091
245.7889, 3.717590
246.2710, 3.698730
246.7531, 2.878471
247.2352, 2.084213
247.7174, 1.604080
248.1995, 1.544510
248.6816, 1.301064
249.1637, 0.9058380
249.6458, 0.3021240
250.1279, 0.6250840
250.6101, 2.093994
251.0922, 3.484612
251.5743, 4.554947
252.0564, 5.232910
252.5385, 6.197189
253.0206, 7.569267
253.5028, 9.127106
253.9849, 10.56643
254.4670, 11.86078
254.9491, 13.12866
255.4312, 14.36844
255.9133, 15.55904
256.3955, 16.91257
256.8776, 18.44313
257.3597, 20.12910
257.8418, 21.92709
258.3239, 23.79051
258.8061, 25.90543
259.2882, 28.30751
259.7703, 31.00868
260.2524, 34.00719
260.7345, 37.31140
261.2166, 40.93335
261.6988, 45.04711
262.1809, 49.80501
262.6630, 54.41664
263.1451, 58.74789
263.6272, 62.82504
264.1093, 66.56885
264.5915, 70.13528
265.0736, 73.15813
265.5557, 75.50732
266.0378, 77.30531
266.5199, 77.84765
267.0020, 76.92155
267.4842, 74.65435
267.9663, 71.65980
268.4484, 67.83234
268.9305, 63.54189
269.4126, 58.91828
269.8947, 53.68084
270.3769, 49.08570
270.8590, 45.26659
271.3411, 42.11122
271.8232, 39.32861
272.3053, 36.82076
272.7874, 34.98581
273.2696, 34.16795
273.7517, 34.50823
274.2338, 34.99055
274.7159, 35.54807
275.1980, 36.21872
275.6801, 37.00703
276.1623, 37.84881
276.6444, 39.10016
277.1265, 41.04947
277.6086, 43.77945
278.0907, 46.47479
278.5728, 49.15932
279.0550, 51.76132
279.5371, 54.14352
280.0192, 56.29470
280.5013, 58.32317
280.9834, 60.45763
281.4655, 62.67426
281.9477, 63.98280
282.4298, 64.26054
282.9119, 63.91519
283.3940, 63.53032
283.8761, 63.11267
284.3582, 62.26651
284.8404, 60.94125
285.3225, 59.08481
285.8046, 56.30577
286.2867, 52.56923
286.7688, 48.20340
287.2509, 43.33007
287.7331, 38.00256
288.2152, 32.93947
288.6973, 28.31406
289.1794, 24.11566
289.6615, 20.43787
290.1436, 17.26299
290.6258, 14.46053
291.1079, 11.96365
291.5900, 9.736115
292.0721, 7.529373
292.5542, 5.176147
293.0363, 2.934921
293.5185, 1.459518
294.0006, 0.7324370
294.4827, 0.2333600
294.9648, 0.4963230
295.4469, 1.345703
295.9290, 1.938217
296.4112, 2.168045
296.8933, 2.191254
297.3754, 2.294472
297.8575, 2.438683
298.3396, 2.375504
298.8217, 1.786674
299.3039, 0.9182210
299.7860, 0.2630840
300.2681, 7.4394003E-02
300.7502, 0.2731550
301.2323, 0.5192790
301.7144, 0.8469920
302.1966, 1.296623
302.6787, 1.855850
303.1608, 2.512436
303.6429, 3.280479
304.1250, 4.176422
304.6071, 5.303596
305.0893, 6.703453
305.5714, 8.355095
306.0535, 10.16695
306.5356, 12.31013
307.0177, 14.53085
307.4998, 16.54317
307.9820, 18.36800
308.4641, 20.12061
308.9462, 22.02321
309.4283, 23.87653
309.9104, 25.38495
310.3925, 26.42108
310.8747, 27.08170
311.3568, 27.28963
311.8389, 27.09446
312.3210, 26.85819
312.8031, 26.78062
313.2852, 26.75477
313.7674, 26.68771
314.2495, 26.65875
314.7316, 26.45129
315.2137, 25.85043
315.6958, 24.95737
316.1779, 24.11211
316.6601, 23.29914
317.1422, 22.67888
317.6243, 22.38651
318.1064, 22.55074
318.5885, 22.82457
319.0706, 23.12198
319.5528, 23.44691
320.0349, 23.80791
320.5170, 24.32212
320.9991, 24.77763
321.4812, 25.02052
321.9633, 24.92481
322.4455, 25.04509
322.9276, 25.76965
323.4097, 26.68082
323.8918, 27.26556
324.3739, 26.96581
324.8560, 26.80523
325.3382, 27.10255
325.8203, 27.92325
326.3024, 28.68173
326.7845, 29.25209
327.2666, 29.79674
327.7487, 30.44556
328.2309, 31.08685
328.7130, 31.96502
329.1951, 33.30856
329.6772, 35.03418
330.1593, 36.29256
330.6414, 36.73424
331.1236, 37.02662
331.6057, 37.55832
332.0878, 38.68154
332.5699, 39.39319
333.0520, 39.48857
333.5341, 39.17885
334.0163, 39.00380
334.4984, 38.83507
334.9805, 39.02106
335.4626, 39.80951
335.9447, 41.45107
336.4268, 42.73689
336.9090, 43.62521
337.3911, 44.21855
337.8732, 44.71815
338.3553, 45.21684
338.8374, 45.29926
339.3195, 44.74924
339.8017, 43.59610
340.2838, 42.51253
340.7659, 41.57841
341.2480, 40.50556
341.7301, 38.87523
342.2122, 36.65189
342.6944, 34.48355
343.1765, 32.45638
343.6586, 30.60712
344.1407, 29.09490
344.6228, 27.91626
345.1049, 27.14464
345.5871, 26.98566
346.0692, 27.35920
346.5513, 27.69199
347.0334, 27.82137
347.5155, 28.05394
347.9977, 29.06331
348.4798, 30.76479
348.9619, 32.39175
349.4440, 33.41713
349.9261, 34.06017
350.4082, 34.92181
350.8904, 36.10555
351.3725, 37.06124
351.8546, 37.32623
352.3367, 36.92049
352.8188, 35.88257
353.3009, 33.84992
353.7831, 31.46873
354.2652, 29.37761
354.7473, 27.58076
355.2294, 26.00504
355.7115, 24.61754
356.1936, 23.35812
356.6758, 22.18147
357.1579, 20.87444
357.6400, 19.96180
358.1221, 19.86536
358.6042, 20.43606
359.0863, 21.21691
359.5685, 22.09764
360.0506, 23.03934
360.5327, 24.03421
361.0148, 25.13756
361.4969, 26.18390
361.9790, 27.02577
362.4612, 27.74674
362.9433, 28.54336
363.4254, 29.57968
363.9075, 30.60912
364.3896, 31.58447
364.8717, 32.52419
365.3539, 33.21136
365.8360, 33.39149
366.3181, 33.39610
366.8002, 33.53096
367.2823, 34.12624
367.7644, 34.52458
368.2466, 34.48315
368.7287, 34.05635
369.2108, 33.90399
369.6929, 34.20864
370.1750, 34.62642
370.6571, 34.99521
371.1393, 35.38561
371.6214, 35.59241
372.1035, 35.46643
372.5856, 35.20613
373.0677, 35.29304
373.5498, 35.91273
374.0320, 36.52209
374.5141, 36.86105
374.9962, 36.86009
375.4783, 37.21600
375.9604, 38.00277
376.4425, 39.01961
376.9247, 40.08791
377.4068, 41.23195
377.8889, 42.19255
378.3710, 42.74460
378.8531, 43.08469
379.3352, 44.08644
379.8174, 45.78099
380.2995, 47.87119
380.7816, 50.24839
381.2637, 52.88303
381.7458, 55.35220
382.2279, 57.62157
382.7101, 59.71923
383.1922, 61.86452
383.6743, 64.01210
384.1564, 65.71537
384.6385, 66.85074
385.1206, 67.36578
385.6028, 67.10582
386.0849, 66.04336
386.5670, 64.46782
387.0491, 62.53237
387.5312, 60.27522
388.0133, 57.74655
388.4955, 54.78761
388.9776, 51.71168
389.4597, 48.76139
389.9418, 45.95135
390.4239, 43.37154
390.9060, 40.94026
391.3882, 38.83730
391.8703, 37.23914
392.3524, 36.20620
392.8345, 35.57804
393.3166, 35.45951
393.7987, 35.68593
394.2809, 35.91518
394.7630, 35.80499
395.2451, 35.84044
395.7272, 36.34564
396.2093, 37.45461
396.6914, 38.31213
397.1736, 38.33109
397.6557, 38.23254
398.1378, 38.67529
398.6199, 40.63354
399.1020, 42.10114
399.5841, 42.80740
400.0663, 42.81063
400.5484, 42.46078
401.0305, 41.72253
401.5126, 40.66621
401.9947, 39.32608
402.4768, 37.76755
402.9590, 35.79121
403.4411, 33.24986
403.9232, 30.40482
404.4053, 27.75849
404.8874, 25.43976
405.3695, 22.89557
405.8517, 19.74882
406.3338, 16.10269
406.8159, 13.15710
407.2980, 11.02013
407.7801, 9.196510
408.2622, 7.178566
408.7444, 4.979507
409.2265, 3.176567
409.7086, 1.949356
410.1907, 1.072601
410.6728, 7.2761998E-02
411.1549, 1.037422
411.6371, 2.050705
412.1192, 2.936188
412.6013, 3.614983
413.0834, 3.802750
413.5655, 3.423859
414.0476, 2.952583
414.5298, 2.912292
415.0119, 3.113495
415.4940, 3.175728
415.9761, 2.864647
416.4582, 2.410454
416.9403, 1.978477
417.4225, 1.567329
417.9046, 1.178856
418.3867, 0.9918370
418.8688, 0.7325820
419.3509, 0.1271740
419.8330, 1.090324
420.3152, 2.207436
420.7973, 2.825981
421.2794, 3.183578
421.7615, 3.716080
422.2436, 4.595497
422.7257, 5.608810
423.2079, 6.674545
423.6900, 7.768440
424.1721, 9.053207
424.6542, 10.67130
425.1363, 12.41187
425.6184, 14.14563
426.1006, 15.76230
426.5827, 17.49612
427.0648, 19.37341
427.5469, 21.38454
428.0290, 23.40095
428.5111, 25.26640
428.9933, 27.43210
429.4754, 30.21476
429.9575, 33.76987
430.4396, 36.84673
430.9217, 39.40804
431.4038, 41.60090
431.8860, 43.58051
432.3681, 45.35107
432.8502, 46.79266
433.3323, 47.84793
433.8144, 48.57412
434.2965, 49.26247
434.7787, 49.90686
435.2608, 49.96630
435.7429, 49.10069
436.2250, 47.36183
436.7071, 44.73173
437.1892, 41.08726
437.6714, 37.07824
438.1535, 33.36327
438.6356, 29.84075
439.1177, 26.32269
439.5998, 22.43298
440.0819, 18.71511
440.5641, 15.63285
441.0462, 13.16536
441.5283, 11.04246
442.0104, 9.234451
442.4925, 7.657547
442.9746, 6.274300
443.4568, 5.081635
443.9389, 4.043793
444.4210, 3.151794
444.9031, 2.406494
445.3852, 1.807236
445.8673, 1.445923
446.3495, 1.153008
446.8316, 0.8835530
447.3137, 0.6369710
447.7958, 0.4129260
448.2779, 0.2144470
448.7600, 4.1069001E-02
449.2422, 0.1014560
449.7243, 0.1853100
450.2064, 0.3070980
450.6885, 0.5257190
451.1706, 0.7675780
451.6527, 0.8118740
452.1349, 0.6201100
452.6170, 0.3712230
453.0991, 0.1129910
453.5812, 0.1519930
454.0633, 0.2941670
454.5454, 0.2977290
455.0276, 0.2592930
455.5097, 0.2995910
455.9918, 0.3979640
456.4739, 0.4195860
456.9560, 0.2714610
457.4381, 0.1130370
457.9203, 0.2266850
458.4024, 0.5735020
458.8845, 0.9683990
459.3666, 1.349770
459.8488, 1.691185
460.3309, 1.890121
460.8130, 1.916451
461.2951, 2.081718
461.7772, 2.635338
462.2593, 3.436981
462.7415, 4.314873
463.2236, 5.221008
463.7057, 6.185303
464.1878, 7.255295
464.6699, 8.393173
465.1520, 9.492188
465.6342, 10.32440
466.1163, 11.25245
466.5984, 12.43758
467.0805, 13.91342
467.5626, 15.58052
468.0447, 17.57479
468.5269, 19.63792
469.0090, 21.50087
469.4911, 23.07607
469.9732, 24.62037
470.4553, 26.16659
470.9374, 27.75513
471.4196, 29.50758
471.9017, 31.41573
472.3838, 33.47629
472.8659, 35.79604
473.3480, 38.39326
473.8301, 40.69659
474.3123, 42.72018
474.7944, 44.45178
475.2765, 45.78124
475.7586, 46.76639
476.2407, 47.72672
476.7228, 48.86250
477.2050, 49.94812
477.6871, 50.67308
478.1692, 50.99815
478.6513, 50.86583
479.1334, 50.05515
479.6155, 48.87167
480.0977, 47.65192
480.5798, 46.45331
481.0619, 45.07430
481.5440, 43.34104
482.0261, 41.39888
482.5082, 39.39977
482.9904, 37.34042
483.4725, 35.28377
483.9546, 33.20148
484.4367, 31.11367
484.9188, 29.16217
485.4009, 27.19286
485.8831, 25.50417
486.3652, 24.20204
486.8473, 23.36715
487.3294, 22.66065
487.8115, 22.03599
488.2936, 21.58069
488.7758, 21.38305
489.2579, 21.46744
489.7400, 21.70665
490.2221, 21.99923
490.7042, 22.48077
491.1863, 23.71943
491.6685, 25.80389
492.1506, 27.79351
492.6327, 28.98852
493.1148, 29.61205
493.5969, 30.66787
494.0790, 32.21992
494.5612, 33.85205
495.0433, 35.20721
495.5254, 36.34435
496.0075, 37.46099
496.4896, 38.76189
496.9717, 39.80639
497.4539, 40.10889
497.9360, 39.80494
498.4181, 39.22750
498.9002, 38.69426
499.3823, 37.80586
499.8644, 36.18890
500.3466, 33.75455
500.8287, 31.33581
501.3108, 29.28751
501.7929, 27.28905
502.2750, 25.10580
502.7571, 22.29330
503.2393, 19.78945
503.7214, 17.84398
504.2035, 16.18871
504.6856, 14.16125
505.1677, 11.34283
505.6498, 8.950668
506.1320, 7.443520
506.6141, 6.770538
507.0962, 5.885727
507.5783, 4.725517
508.0604, 3.584457
508.5425, 2.699875
509.0247, 2.058411
509.5068, 1.520523
509.9889, 1.093193
510.4710, 0.7571640
510.9531, 0.5243760
511.4352, 0.3673480
511.9174, 0.1728740
512.3995, 0.1991500
512.8816, 0.5820310
513.3637, 0.8064040
513.8458, 0.8737110
514.3279, 0.8055040
514.8101, 0.5334320
515.2922, 0.1953280
515.7743, 9.8159999E-02
516.2564, 0.2941440
516.7385, 0.5833210
517.2206, 1.107643
517.7028, 1.725693
518.1849, 2.274574
518.6670, 2.519363
519.1491, 2.938416
519.6312, 3.668892
520.1133, 4.636353
520.5955, 5.556313
521.0776, 6.356964
521.5597, 7.217979
522.0418, 8.208221
522.5239, 9.335838
523.0060, 10.61008
523.4882, 12.09996
523.9703, 13.57005
524.4524, 14.70724
524.9345, 15.53803
525.4166, 16.49352
525.8987, 17.65844
526.3809, 18.99047
526.8630, 20.52021
527.3451, 22.20652
527.8272, 23.84463
528.3093, 25.32475
528.7914, 26.72417
529.2736, 28.07047
529.7557, 29.38724
530.2378, 30.82268
530.7199, 32.59982
531.2020, 34.47012
531.6841, 36.20778
532.1663, 37.75928
532.6484, 39.24629
533.1305, 40.73286
533.6126, 42.18193
534.0947, 43.56988
534.5768, 45.02585
535.0590, 46.25427
535.5411, 47.26542
536.0232, 48.03059
536.5053, 48.28586
536.9874, 47.90684
537.4695, 47.30373
537.9517, 46.66451
538.4338, 45.98462
538.9159, 45.26770
539.3980, 44.53091
539.8801, 43.70040
540.3622, 42.62960
540.8444, 41.38487
541.3265, 40.27017
541.8086, 39.42348
542.2907, 38.55927
542.7728, 37.03165
543.2549, 35.13727
543.7371, 33.76247
544.2192, 34.21322
544.7013, 34.67613
545.1834, 33.53590
545.6655, 30.85320
546.1476, 28.32639
546.6298, 26.81097
547.1119, 25.59159
547.5940, 24.19100
548.0761, 22.37071
548.5582, 20.74616
549.0403, 19.35622
549.5225, 18.15919
550.0046, 17.12856
550.4867, 16.27368
550.9688, 15.55706
551.4509, 15.02374
551.9330, 14.61935
552.4152, 14.08574
552.8973, 13.35606
553.3794, 12.84657
553.8615, 12.94537
554.3436, 13.49635
554.8257, 13.53969
555.3079, 13.04079
555.7900, 12.56599
556.2721, 12.78668
556.7542, 13.36745
557.2363, 13.66075
557.7184, 13.44875
558.2006, 13.15214
558.6827, 13.06232
559.1648, 13.11884
559.6469, 13.21346
560.1290, 13.10109
560.6111, 13.22281
561.0933, 13.85040
561.5754, 14.91464
562.0575, 15.93639
562.5396, 16.65147
563.0217, 17.50401
563.5038, 18.69450
563.9860, 20.30457
564.4681, 21.89920
564.9502, 23.43907
565.4323, 25.02595
565.9144, 26.77201
566.3965, 28.71452
566.8787, 30.53149
567.3608, 32.09496
567.8429, 33.65968
568.3250, 35.64872
568.8071, 38.01352
569.2892, 40.43483
569.7714, 42.74780
570.2535, 45.04240
570.7356, 47.41428
571.2177, 49.87417
571.6998, 52.28238
572.1819, 54.48268
572.6641, 56.72135
573.1462, 59.30392
573.6283, 62.41966
574.1104, 65.12119
574.5925, 67.23300
575.0746, 68.76279
575.5568, 69.74197
576.0389, 70.04258
576.5210, 69.94427
577.0031, 69.40670
577.4852, 68.49120
577.9673, 67.38393
578.4495, 66.19869
578.9316, 64.41994
579.4137, 61.76936
579.8958, 58.44591
580.3779, 55.07080
580.8600, 51.65964
581.3422, 48.18713
581.8243, 44.49795
582.3064, 40.74267
582.7885, 37.41057
583.2706, 34.54227
583.7527, 31.78615
584.2349, 28.55717
584.7170, 25.34590
585.1991, 22.81193
585.6812, 21.40677
586.1633, 20.16411
586.6454, 18.67300
587.1276, 17.05688
587.6097, 15.56478
588.0918, 14.23528
588.5739, 13.02587
589.0560, 11.88064
589.5381, 10.82580
590.0203, 10.12906
590.5024, 10.08598
590.9845, 9.807213
591.4666, 8.708496
591.9487, 6.771500
592.4308, 5.373497
592.9130, 4.557762
593.3951, 4.056602
593.8772, 3.712708
594.3593, 3.482620
594.8414, 3.207535
595.3235, 2.832863
595.8057, 2.511253
596.2878, 2.518257
596.7699, 2.676094
597.2520, 2.654213
597.7341, 2.095329
598.2162, 1.541351
598.6984, 1.346878
599.1805, 1.401199
599.6626, 1.268089
600.1447, 0.5303570
600.6268, 0.1055150
601.1089, 0.3304900
601.5911, 0.1049350
602.0732, 2.5940000E-03
602.5553, 8.7608002E-02
603.0374, 0.1938860
603.5195, 0.1696170
604.0016, 7.1789999E-03
604.4838, 2.2384999E-02
604.9659, 0.1627430
605.4480, 0.4342800
605.9301, 0.7159580
606.4122, 0.9742810
606.8943, 1.067581
607.3765, 0.9084240
607.8586, 0.6544110
608.3407, 0.3946910
608.8228, 0.1734390
609.3049, 0.1047670
609.7870, 0.4400560
610.2692, 0.7645870
610.7513, 0.7993240
611.2334, 0.5693660
611.7155, 0.4423600
612.1976, 0.6739350
612.6797, 0.8588260
613.1619, 0.7740860
613.6440, 0.3111650
614.1261, 0.1013570
614.6082, 0.2666090
615.0903, 0.4896700
615.5724, 0.4451900
616.0546, 0.1196290
616.5367, 8.1703000E-02
617.0188, 8.6944997E-02
617.5009, 1.5701000E-02
617.9830, 2.8839000E-02
618.4651, 0.1108170
618.9473, 0.2100370
619.4294, 0.3192140
619.9115, 0.4236220
620.3936, 0.5474400
620.8757, 0.6601790
621.3578, 0.6736150
621.8400, 0.3831330
622.3221, 0.1291660
622.8042, 0.1339040
623.2863, 0.4098360
623.7684, 0.5848010
624.2505, 0.5523680
624.7327, 0.4793400
625.2148, 0.4354100
625.6969, 0.4108120
626.1790, 0.4775470
626.6611, 0.6835480
627.1432, 0.8805010
627.6254, 0.8482590
628.1075, 0.6098630
628.5896, 0.5570680
629.0717, 0.7940370
629.5538, 1.124619
630.0359, 1.313377
630.5181, 1.384720
631.0002, 1.404869
631.4823, 1.312698
631.9644, 1.265221
632.4465, 1.439163
632.9286, 1.759064
633.4108, 1.985718
633.8929, 1.686554
634.3750, 1.612480
634.8571, 2.277412
635.3392, 3.745842
635.8214, 4.540733
636.3035, 4.278168
636.7856, 3.902061
637.2677, 3.944016
637.7498, 4.467453
638.2319, 5.040932
638.7141, 5.622513
639.1962, 6.273537
639.6783, 7.193817
640.1604, 8.273895
640.6425, 9.003754
641.1246, 9.209709
641.6068, 9.344505
642.0889, 9.837547
642.5710, 10.61933
643.0531, 11.51118
643.5352, 12.44329
644.0173, 13.44000
644.4995, 14.54691
644.9816, 15.74487
645.4637, 17.00273
645.9458, 18.22150
646.4279, 19.58589
646.9100, 21.18190
647.3922, 22.99858
647.8743, 24.63852
648.3564, 26.06597
648.8385, 27.47511
649.3206, 28.87131
649.8027, 30.33555
650.2849, 32.32552
650.7670, 34.84680
651.2491, 37.46460
651.7312, 39.68929
652.2133, 41.72380
652.6954, 43.94842
653.1776, 46.46806
653.6597, 48.98240
654.1418, 51.23356
654.6239, 53.45663
655.1060, 55.93552
655.5881, 58.96122
656.0703, 61.97219
656.5524, 64.90912
657.0345, 67.77348
657.5166, 70.51020
657.9987, 73.09007
658.4808, 75.64238
658.9630, 78.26501
659.4451, 80.88992
659.9272, 83.31104
660.4093, 85.52113
660.8914, 87.29135
661.3735, 88.72307
661.8557, 89.56582
662.3378, 89.29532
662.8199, 87.94457
663.3020, 85.90011
663.7841, 83.31550
664.2662, 80.20895
664.7484, 76.53763
665.2305, 72.30159
665.7126, 67.81575
666.1947, 62.76194
666.6768, 57.76151
667.1589, 53.23456
667.6411, 49.30984
668.1232, 45.49567
668.6053, 41.74724
669.0874, 38.20918
669.5695, 35.06258
670.0516, 32.26846
670.5338, 29.55824
671.0159, 26.82675
671.4980, 24.35071
671.9801, 22.66609
672.4622, 21.53146
672.9443, 20.39502
673.4265, 19.01460
673.9086, 17.60013
674.3907, 16.13924
674.8728, 14.69946
675.3549, 13.54443
675.8370, 12.89310
676.3192, 12.39984
676.8013, 12.05815
677.2834, 11.83382
677.7655, 11.32406
678.2476, 10.45197
678.7297, 9.453819
679.2119, 8.346283
679.6940, 7.145866
680.1761, 6.464478
680.6582, 6.357727
681.1403, 6.338074
681.6224, 5.929634
682.1046, 5.310280
682.5867, 4.841583
683.0688, 4.578857
683.5509, 4.341049
684.0330, 3.994606
684.5151, 3.616394
684.9973, 3.284035
685.4794, 3.085968
685.9615, 2.801445
686.4436, 2.241119
686.9257, 1.656288
687.4078, 1.338615
687.8900, 1.345375
688.3721, 1.480774
688.8542, 1.777298
689.3363, 2.111328
689.8184, 2.213524
690.3005, 2.097328
690.7827, 1.901749
691.2648, 1.630325
691.7469, 1.355583
692.2290, 1.219383
692.7111, 1.182083
693.1932, 1.111351
693.6754, 0.9400480
694.1575, 0.7094190
694.6396, 0.3466870
695.1217, 0.1163180
695.6038, 0.3203580
696.0859, 4.4769000E-02
696.5681, 0.4141770
697.0502, 0.5820310
697.5323, 0.5413060
698.0144, 0.4853590
698.4965, 0.4293140
698.9786, 0.3054500
699.4608, 4.0192001E-02
699.9429, 0.5175170
700.4250, 0.6699140
700.9071, 0.4589540
701.3892, 0.1755750
701.8713, 4.7798000E-02
702.3535, 7.3090000E-03
702.8356, 1.0605000E-02
703.3177, 1.5282000E-02
703.7998, 5.0522000E-02
704.2819, 0.4054790
704.7640, 0.8093260
705.2462, 0.9995880
705.7283, 0.8931050
706.2104, 0.6635590
706.6925, 0.1636120
707.1746, 0.3114470
707.6567, 0.1899490
708.1389, 0.5744090
708.6210, 1.157021
709.1031, 1.320679
709.5852, 1.304817
710.0673, 1.506432
710.5494, 1.860786
711.0316, 2.179352
711.5137, 2.322411
711.9958, 2.444557
712.4779, 2.675392
712.9600, 2.974121
713.4421, 3.210251
713.9243, 3.304169
714.4064, 3.379196
714.8885, 3.420525
715.3706, 3.454018
715.8527, 3.673355
716.3348, 4.077858
716.8170, 4.672546
717.2991, 5.566978
717.7812, 6.665230
718.2633, 7.385056
718.7454, 7.742683
719.2275, 8.034019
719.7097, 8.393570
720.1918, 8.858253
720.6739, 9.508751
721.1560, 10.34601
721.6381, 11.23038
722.1202, 12.20134
722.6024, 13.11216
723.0845, 13.83662
723.5666, 14.27266
724.0487, 14.82371
724.5308, 15.56056
725.0129, 16.32856
725.4951, 17.00876
725.9772, 17.60593
726.4593, 18.15370
726.9414, 18.66769
727.4235, 19.07101
727.9056, 19.33625
728.3878, 19.41589
728.8699, 19.21466
729.3520, 18.71799
729.8341, 17.92490
730.3162, 16.68063
730.7983, 15.16756
731.2805, 13.61494
731.7626, 11.87925
732.2447, 10.38593
732.7268, 9.190948
733.2089, 8.246147
733.6910, 7.514046
734.1732, 7.057068
734.6553, 6.538719
735.1374, 5.850143
735.6195, 5.127861
736.1016, 4.657043
736.5837, 4.398193
737.0659, 4.182243
737.5480, 3.962029
738.0301, 3.741112
738.5122, 3.488945
738.9943, 3.219528
739.4764, 3.009392
739.9586, 2.903923
740.4407, 2.836182
740.9228, 2.778168
741.4049, 2.746513
741.8870, 2.794266
742.3691, 2.948181
742.8513, 3.048553
743.3334, 2.979736
743.8155, 2.835770
744.2976, 3.120476
744.7797, 3.804237
745.2618, 4.318596
745.7440, 4.109718
746.2261, 3.667801
746.7082, 3.535316
747.1903, 3.702988
747.6724, 3.997566
748.1545, 4.518234
748.6367, 5.016968
749.1188, 5.317856
749.6009, 5.378906
750.0830, 5.547958
750.5651, 5.860092
751.0472, 6.235542
751.5294, 6.575165
752.0115, 6.884514
752.4936, 7.493744
752.9757, 8.418190
753.4578, 9.212898
753.9399, 9.312950
754.4221, 9.133896
754.9042, 9.327126
755.3863, 9.989624
755.8684, 10.66070
756.3505, 11.08715
756.8326, 11.44444
757.3148, 11.86607
757.7969, 12.40115
758.2790, 12.87648
758.7611, 13.34076
759.2432, 13.74652
759.7253, 14.07534
760.2075, 14.32806
760.6896, 14.26416
761.1717, 13.81385
761.6538, 13.29973
762.1359, 13.07877
762.6180, 13.03123
763.1002, 12.98376
763.5823, 12.94646
764.0644, 12.73466
764.5465, 12.00460
765.0286, 11.13426
765.5107, 10.59198
765.9929, 10.99129
766.4750, 10.87260
766.9571, 9.966911
767.4392, 8.805084
767.9213, 8.088364
768.4034, 7.836403
768.8856, 7.484001
769.3677, 6.905449
769.8498, 6.330124
770.3319, 6.125359
770.8140, 6.134315
771.2961, 6.016541
771.7783, 5.591499
772.2604, 5.158043
772.7425, 4.984962
773.2246, 4.869148
773.7067, 4.485641
774.1888, 3.321953
774.6710, 2.638367
775.1531, 2.759926
775.6352, 3.229088
776.1173, 3.162193
776.5994, 2.541939
777.0815, 2.073822
777.5637, 1.956696
778.0458, 2.004051
778.5279, 1.979958
779.0100, 1.910797
779.4921, 1.857628
779.9742, 1.911987
780.4564, 1.909027
780.9385, 1.682182
781.4206, 1.356857
781.9027, 1.223595
782.3848, 1.553688
782.8669, 1.618156
783.3491, 1.172890
783.8312, 0.4867170
784.3133, 0.2751390
784.7954, 0.5267560
785.2775, 0.6967930
785.7596, 0.5806660
786.2418, 0.3203580
786.7239, 1.4824000E-02
787.2060, 0.2782520
787.6881, 0.4250950
788.1702, 0.2863540
788.6523, 7.3112004E-02
789.1345, 0.2388310
789.6166, 0.5593950
790.0987, 0.6342090
790.5808, 0.3113480
791.0629, 3.8215999E-02
791.5450, 8.6104997E-02
792.0272, 9.1980003E-02
792.5093, 2.5200000E-02
792.9914, 0.1054080
793.4735, 0.1821520
793.9556, 0.1354980
794.4377, 3.4294002E-02
794.9199, 0.1150740
795.4020, 0.2556840
795.8841, 0.2334750
796.3662, 0.2862090
796.8483, 0.6823810
797.3304, 0.6714860
797.8126, 0.3659060
798.2947, 8.7227002E-02
798.7768, 0.2020800
799.2589, 0.3445740
799.7410, 0.2411800
800.2231, 9.2620002E-03
800.7053, 4.7538999E-02
801.1874, 4.9019001E-02
801.6695, 0.1782070
802.1516, 0.3070760
802.6337, 0.4196470
803.1158, 0.5229490
803.5980, 0.5994030
804.0801, 0.6031800
804.5622, 0.3886870
805.0443, 0.2540360
805.5264, 0.3209000
806.0085, 0.5145800
806.4907, 0.5834960
806.9728, 0.5025710
807.4549, 0.4374160
807.9370, 0.4799350
808.4191, 0.5309520
808.9012, 0.3286820
809.3834, 5.7030000E-02
809.8655, 0.3756710
810.3476, 0.4864880
810.8297, 0.5095140
811.3118, 0.5033870
811.7939, 0.4670940
812.2761, 0.3907240
812.7582, 0.1821290
813.2403, 6.7649998E-02
813.7224, 0.1317210
814.2045, 0.3015980
814.6866, 0.3488160
815.1688, 0.2706380
815.6509, 0.2171250
816.1330, 0.2499620
816.6151, 0.3268970
817.0972, 0.4047550
817.5793, 0.4760740
818.0615, 0.5249100
818.5436, 0.5264430
819.0257, 0.5213390
819.5078, 0.4821240
819.9899, 0.4508290
820.4720, 0.5556340
820.9542, 0.9077300
821.4363, 1.105873
821.9184, 0.9988250
822.4005, 0.7596050
822.8826, 0.8123860
823.3647, 1.108421
823.8469, 1.364174
824.3290, 1.478371
824.8111, 1.510368
825.2932, 1.493416
825.7753, 1.439011
826.2574, 1.370300
826.7396, 1.229240
827.2217, 1.155769
827.7038, 1.151978
828.1859, 1.235039
828.6681, 1.509209
829.1502, 2.034920
829.6323, 2.280602
830.1144, 2.058662
830.5966, 1.643646
831.0787, 1.323334
831.5608, 1.146118
832.0429, 1.240997
832.5250, 1.816170
833.0071, 2.405602
833.4893, 2.897339
833.9714, 3.218597
834.4535, 3.228912
834.9356, 2.620285
835.4177, 2.332443
835.8998, 2.531921
836.3820, 2.957047
836.8641, 3.291168
837.3462, 3.522720
837.8283, 3.532906
838.3104, 3.243401
838.7925, 2.923553
839.2747, 2.771324
839.7568, 2.777847
840.2389, 2.947540
840.7210, 3.437447
841.2031, 3.802765
841.6852, 3.817230
842.1674, 3.767807
842.6495, 3.946487
843.1316, 4.413216
843.6137, 4.773621
844.0958, 5.004768
844.5779, 5.122726
845.0601, 5.048256
845.5422, 4.888008
846.0243, 4.847839
846.5064, 4.955276
846.9885, 5.238380
847.4706, 5.807732
847.9528, 6.494766
848.4349, 7.174393
848.9170, 7.886749
849.3991, 8.420959
849.8812, 8.732414
850.3633, 8.973755
850.8455, 9.210571
851.3276, 9.466293
851.8097, 9.950958
852.2918, 10.68362
852.7739, 11.41795
853.2560, 11.98206
853.7382, 12.45802
854.2203, 12.87860
854.7024, 13.21671
855.1845, 13.75318
855.6666, 14.59004
856.1487, 15.59597
856.6309, 16.83680
857.1130, 18.28651
857.5951, 19.00337
858.0772, 18.91397
858.5593, 19.06741
859.0414, 20.44832
859.5236, 22.38927
860.0057, 23.84155
860.4878, 24.83829
860.9699, 25.81147
861.4520, 26.99317
861.9341, 28.20896
862.4163, 29.37286
862.8984, 30.48774
863.3805, 31.65138
863.8626, 32.88477
864.3447, 34.10688
864.8268, 35.29999
865.3090, 36.47939
865.7911, 37.69934
866.2732, 38.90613
866.7553, 39.90233
867.2374, 40.38866
867.7195, 40.84616
868.2017, 41.68978
868.6838, 42.74585
869.1659, 43.43957
869.6480, 43.44765
870.1301, 43.57205
870.6122, 44.10300
871.0944, 44.72253
871.5765, 44.54590
872.0586, 43.69604
872.5407, 43.18777
873.0228, 43.47498
873.5049, 43.87486
873.9871, 43.67537
874.4692, 43.19426
874.9513, 42.89767
875.4334, 42.89230
875.9155, 43.17606
876.3976, 43.91088
876.8798, 44.75473
877.3619, 45.26822
877.8440, 45.42064
878.3261, 45.83440
878.8082, 46.65720
879.2903, 47.33634
879.7725, 46.98453
880.2546, 46.23124
880.7367, 46.11950
881.2188, 47.04299
881.7009, 47.56525
882.1830, 46.91801
882.6652, 45.88136
883.1473, 44.98270
883.6294, 44.23140
884.1115, 43.50516
884.5936, 42.77555
885.0757, 42.21017
885.5579, 42.02625
886.0400, 42.06487
886.5221, 41.93823
887.0042, 41.66204
887.4863, 41.60690
887.9684, 42.03510
888.4506, 42.68766
888.9327, 43.43555
889.4148, 44.27692
889.8969, 45.29501
890.3790, 46.51796
890.8611, 47.80857
891.3433, 49.08982
891.8254, 50.41943
892.3075, 51.97049
892.7896, 53.74052
893.2717, 55.67899
893.7538, 58.04263
894.2360, 60.32210
894.7181, 62.11185
895.2002, 63.56445
895.6823, 65.09272
896.1644, 67.06936
896.6465, 68.33985
897.1287, 68.52611
897.6108, 68.17763
898.0929, 68.48501
898.5750, 69.20263
899.0571, 69.10126
899.5392, 67.67477
900.0214, 65.92052
900.5035, 64.56625
900.9856, 63.36047
901.4677, 61.97594
901.9498, 60.24501
902.4319, 58.57315
902.9141, 56.98615
903.3962, 55.40974
903.8783, 53.73959
904.3604, 51.99205
904.8425, 50.33150
905.3246, 48.75745
905.8068, 47.02119
906.2889, 44.86562
906.7710, 42.46655
907.2531, 39.98892
907.7352, 37.47231
908.2173, 34.61823
908.6995, 31.00215
909.1816, 27.57158
909.6637, 24.81722
910.1458, 22.64532
910.6279, 20.51392
911.1100, 18.42956
911.5922, 16.52617
912.0743, 15.02192
912.5564, 13.60110
913.0385, 11.82233
913.5206, 9.850800
914.0027, 8.142815
914.4849, 6.938675
914.9670, 5.891808
915.4491, 4.996590
915.9312, 4.177109
916.4133, 3.193214
916.8954, 2.051025
917.3776, 1.281540
917.8597, 1.102196
918.3418, 1.039558
918.8239, 0.5375670
919.3060, 0.1675800
919.7881, 0.7441790
920.2703, 1.072861
920.7524, 1.349136
921.2345, 1.585838
921.7166, 1.803177
922.1987, 2.043114
922.6808, 2.312248
923.1630, 2.392067
923.6451, 2.261719
924.1272, 2.111237
924.6093, 2.099632
925.0914, 2.160133
925.5735, 2.281441
926.0557, 2.452484
926.5378, 2.425972
927.0199, 1.890137
927.5020, 1.408607
927.9841, 1.201561
928.4662, 1.215721
928.9484, 1.130257
929.4305, 0.9456330
929.9126, 0.7250900
930.3947, 0.4720690
930.8768, 0.2271730
931.3589, 0.1636890
931.8411, 0.1360860
932.3232, 0.1747510
932.8053, 1.190552
933.2874, 2.073921
933.7695, 2.630013
934.2516, 3.049278
934.7338, 3.558899
935.2159, 4.163818
935.6980, 5.029106
936.1801, 6.233398
936.6622, 7.418770
937.1443, 8.077301
937.6265, 8.578827
938.1086, 9.397888
938.5907, 10.73265
939.0728, 11.92426
939.5549, 12.79974
940.0370, 13.57362
940.5192, 14.35661
941.0013, 15.14323
941.4834, 15.72834
941.9655, 16.12508
942.4476, 16.78931
942.9297, 18.42206
943.4119, 20.16190
943.8940, 21.05982
944.3761, 21.28274
944.8582, 21.68053
945.3403, 22.34286
945.8224, 23.35511
946.3046, 24.79975
946.7867, 26.55820
947.2688, 28.36382
947.7509, 30.21944
948.2330, 32.05898
948.7151, 33.79820
949.1973, 35.69904
949.6794, 37.94088
950.1615, 40.51073
950.6436, 43.45789
951.1257, 47.30476
951.6078, 50.35313
952.0900, 52.18735
952.5721, 53.88377
953.0542, 56.47841
953.5363, 59.78481
954.0184, 62.74500
954.5005, 65.29010
954.9827, 67.38609
955.4648, 69.37527
955.9469, 70.58624
956.4290, 70.23137
956.9111, 68.37969
957.3932, 66.77941
957.8754, 65.79081
958.3575, 64.36168
958.8396, 62.11613
959.3217, 59.29198
959.8038, 56.28288
960.2859, 53.20241
960.7681, 50.49242
961.2502, 48.31821
961.7323, 46.54580
962.2144, 45.07020
962.6965, 43.97292
963.1786, 43.40286
963.6608, 43.59369
964.1429, 43.55123
964.6250, 43.09862
965.1071, 42.89176
965.5892, 43.65678
966.0714, 45.13691
966.5535, 46.89280
967.0356, 48.86697
967.5177, 50.90022
967.9998, 52.81996
968.4819, 54.86490
968.9641, 57.24995
969.4462, 59.90988
969.9283, 62.55379
970.4104, 65.23366
970.8925, 67.50028
971.3746, 69.21906
971.8568, 70.40125
972.3389, 71.13705
972.8210, 71.36181
973.3031, 70.95395
973.7852, 69.79108
974.2673, 68.07795
974.7495, 65.72655
975.2316, 62.94278
975.7137, 59.90149
976.1958, 56.57603
976.6779, 53.01320
977.1600, 49.15707
977.6422, 45.25184
978.1243, 41.14777
978.6064, 37.27243
979.0885, 34.07130
979.5706, 31.59876
980.0527, 29.55362
980.5349, 28.21857
981.0170, 26.79566
981.4991, 24.89766
981.9812, 22.76009
982.4633, 21.12428
982.9454, 19.97329
983.4276, 19.24660
983.9097, 19.05546
984.3918, 19.07658
984.8739, 19.18339
985.3560, 19.34174
985.8381, 19.48951
986.3203, 19.62915
986.8024, 19.70535
987.2845, 19.70169
987.7666, 19.69645
988.2487, 19.76637
988.7308, 19.89812
989.2130, 20.05032
989.6951, 20.21782
990.1772, 20.42205
990.6593, 20.50670
991.1414, 20.76098
991.6235, 21.42453
992.1057, 22.40930
992.5878, 23.20892
993.0699, 23.75416
993.5520, 24.65747
994.0341, 26.18408
994.5162, 28.10667
994.9984, 30.17326
995.4805, 32.38162
995.9626, 34.73209
996.4447, 37.22982
996.9268, 39.90595
997.4089, 42.72897
997.8911, 45.72866
998.3732, 48.90074
998.8553, 52.22902
999.3374, 56.05936
999.8195, 60.39639
1000.302, 64.70690
1000.784, 68.83138
1001.266, 72.60348
1001.748, 75.93402
1002.230, 78.82276
1002.712, 81.31886
1003.194, 83.63114
1003.676, 85.15421
1004.159, 85.68815
1004.641, 85.41304
1005.123, 84.53140
1005.605, 83.15225
1006.087, 81.64429
1006.569, 80.21579
1007.051, 78.35805
1007.533, 75.28647
1008.016, 72.01515
1008.498, 69.43790
1008.980, 67.71552
1009.462, 65.90322
1009.944, 63.97512
1010.426, 62.03111
1010.908, 60.04956
1011.390, 58.18958
1011.872, 56.82336
1012.355, 55.79517
1012.837, 54.41302
1013.319, 52.08255
1013.801, 49.83372
1014.283, 47.98466
1014.765, 46.22858
1015.247, 43.89347
1015.729, 41.03900
1016.211, 38.21024
1016.694, 35.46857
1017.176, 33.07025
1017.658, 31.50759
1018.140, 30.18488
1018.622, 28.49644
1019.104, 26.29621
1019.586, 24.35264
1020.068, 22.67329
1020.551, 21.22424
1021.033, 20.02188
1021.515, 19.01399
1021.997, 18.09618
1022.479, 17.28062
1022.961, 16.62570
1023.443, 16.32558
1023.925, 15.97725
1024.407, 15.28045
1024.890, 14.59592
1025.372, 14.47239
1025.854, 14.93254
1026.336, 15.03393
1026.818, 14.66061
1027.300, 14.29325
1027.782, 14.34545
1028.264, 14.59170
1028.746, 14.75002
1029.229, 14.81589
1029.711, 15.21490
1030.193, 16.13690
1030.675, 16.97807
1031.157, 17.53475
1031.639, 17.95409
1032.121, 18.48649
1032.603, 19.17496
1033.086, 20.05350
1033.568, 21.05889
1034.050, 22.31473
1034.532, 24.24588
1035.014, 26.28546
1035.496, 27.93353
1035.978, 29.14460
1036.460, 30.21676
1036.943, 31.11803
1037.425, 32.10706
1037.907, 33.66106
1038.389, 35.16899
1038.871, 35.91989
1039.353, 36.01781
1039.835, 35.92598
1040.317, 35.97207
1040.799, 35.39967
1041.281, 33.93382
1041.764, 32.03592
1042.246, 30.43595
1042.728, 29.00943
1043.210, 27.36709
1043.692, 25.38304
1044.174, 23.48768
1044.656, 22.05713
1045.138, 20.64567
1045.621, 18.89899
1046.103, 16.86920
1046.585, 15.20845
1047.067, 13.93299
1047.549, 12.92908
1048.031, 12.21178
1048.513, 11.67022
1048.995, 11.25130
1049.478, 10.91177
1049.960, 10.57778
1050.442, 10.13776
1050.924, 9.854210
1051.406, 9.734116
1051.888, 9.756821
1052.370, 9.940498
1052.852, 10.24615
1053.334, 10.56041
1053.817, 10.87399
1054.299, 11.15201
1054.781, 11.50808
1055.263, 11.68040
1055.745, 11.53820
1056.227, 11.13261
1056.709, 10.49750
1057.191, 9.617088
1057.673, 8.805264
1058.156, 8.125923
1058.638, 7.522793
1059.120, 6.996422
1059.602, 6.466534
1060.084, 5.810234
1060.566, 4.962742
1061.048, 4.299545
1061.530, 3.873478
1062.013, 3.526932
1062.495, 3.235302
1062.977, 2.934662
1063.459, 2.340118
1063.941, 1.592377
1064.423, 1.079926
1064.905, 1.105324
1065.387, 1.181007
1065.870, 1.244766
1066.352, 1.226543
1066.834, 1.032791
1067.316, 0.6647380
1067.798, 0.2711870
1068.280, 0.1447600
1068.762, 0.4443970
1069.244, 0.4720570
1069.726, 0.3978650
1070.208, 0.3222050
1070.691, 0.2570500
1071.173, 0.2271580
1071.655, 0.2535510
1072.137, 0.2343750
1072.619, 0.1233710
1073.101, 4.5235001E-02
1073.583, 0.2313460
1074.065, 0.5409200
1074.548, 0.7463000
1075.030, 0.7986950
1075.512, 0.8301930
1075.994, 0.9037280
1076.476, 0.9159160
1076.958, 0.7857400
1077.440, 0.5779690
1077.922, 0.5660780
1078.405, 0.7069240
1078.887, 0.7783280
1079.369, 0.6260380
1079.851, 0.4999280
1080.333, 0.5792660
1080.815, 0.7448350
1081.297, 0.8546140
1081.779, 0.9012720
1082.261, 0.9217260
1082.744, 0.9203220
1083.226, 0.8753050
1083.708, 0.6486130
1084.190, 0.4663390
1084.672, 0.7080000
1085.154, 1.205021
1085.636, 1.367886
1086.118, 0.9129370
1086.601, 0.5834010
1087.083, 0.5092930
1087.565, 0.4364810
1088.047, 8.0898002E-02
1088.529, 0.7294500
1089.011, 0.8057440
1089.493, 0.2353940
1089.975, 0.2460480
1090.458, 0.5546420
1090.940, 0.3937190
1091.422, 0.6103970
1091.904, 1.987835
1092.386, 2.087143
1092.868, 1.123875
1093.350, 0.4619830
1093.832, 0.5596580
1094.314, 0.8464970
1094.797, 1.018414
1095.279, 1.121048
1095.761, 1.177414
1096.243, 1.183895
1096.725, 1.348957
1097.207, 1.679359
1097.689, 2.034916
1098.171, 2.379372
1098.653, 2.669460
1099.136, 2.803471
1099.618, 2.868866
1100.100, 3.023533
1100.582, 3.268040
1101.064, 3.605740
1101.546, 4.046410
1102.028, 4.567059
1102.510, 5.241894
1102.993, 5.954556
1103.475, 6.405907
1103.957, 6.629051
1104.439, 6.898048
1104.921, 7.352730
1105.403, 7.831554
1105.885, 8.280121
1106.367, 8.744579
1106.849, 9.253860
1107.332, 9.830051
1107.814, 10.64144
1108.296, 11.73776
1108.778, 12.81575
1109.260, 13.64419
1109.742, 14.43692
1110.224, 15.34747
1110.706, 16.34728
1111.188, 17.43839
1111.671, 18.63788
1112.153, 19.33428
1112.635, 19.20810
1113.117, 18.85258
1113.599, 18.95768
1114.081, 19.11018
1114.563, 18.73886
1115.045, 17.60307
1115.528, 17.01711
1116.010, 17.15690
1116.492, 17.06850
1116.974, 16.05432
1117.456, 14.62907
1117.938, 13.53716
1118.420, 12.69086
1118.902, 11.90398
1119.385, 11.19854
1119.867, 10.42337
1120.349, 9.521381
1120.831, 8.652313
1121.313, 8.006802
1121.795, 7.514866
1122.277, 6.899094
1122.759, 6.196293
1123.241, 5.668739
1123.724, 5.646439
1124.206, 5.551331
1124.688, 5.158142
1125.170, 4.664391
1125.652, 4.377998
1126.134, 4.272411
1126.616, 4.215168
1127.098, 4.200687
1127.580, 4.170704
1128.063, 4.117104
1128.545, 4.000099
1129.027, 3.759106
1129.509, 3.438347
1129.991, 3.157688
1130.473, 2.917484
1130.955, 2.926739
1131.437, 3.316235
1131.920, 3.616753
1132.402, 3.305882
1132.884, 2.767262
1133.366, 2.339211
1133.848, 2.054577
1134.330, 1.888893
1134.812, 1.862740
1135.294, 1.915134
1135.776, 2.068855
1136.259, 2.164894
1136.741, 1.877785
1137.223, 1.460163
1137.705, 1.296833
1138.187, 1.662823
1138.669, 1.789120
1139.151, 1.591587
1139.633, 1.368317
1140.115, 1.327099
1140.598, 1.398365
1141.080, 1.494633
1141.562, 1.586983
1142.044, 1.561840
1142.526, 1.182838
1143.008, 0.9047850
1143.490, 0.9041060
1143.972, 0.9109340
1144.455, 0.4842760
1144.937, 0.1989780
1145.419, 0.4840130
1145.901, 0.3498500
1146.383, 9.4696000E-02
1146.865, 0.2887570
1147.347, 0.5283130
1147.829, 0.4674530
1148.312, 0.2907450
1148.794, 0.3258970
1149.276, 0.5772020
1149.758, 0.7716450
1150.240, 0.8801270
1150.722, 0.8547360
1151.204, 0.4885520
1151.686, 0.1525880
1152.168, 8.5545003E-02
1152.651, 0.1900250
1153.133, 0.1691060
1153.615, 3.2986000E-02
1154.097, 6.5475002E-02
1154.579, 0.3648720
1155.061, 0.6644520
1155.543, 0.8276560
1156.025, 0.8349040
1156.507, 0.5560110
1156.990, 4.9755000E-02
1157.472, 0.1116680
1157.954, 9.3310997E-02
1158.436, 0.3353000
1158.918, 0.5363240
1159.400, 0.6436120
1159.882, 0.5294490
1160.364, 0.3350790
1160.847, 0.2216420
1161.329, 0.2080000
1161.811, 0.2631070
1162.293, 0.4080200
1162.775, 0.4853740
1163.257, 0.3448450
1163.739, 0.1774860
1164.221, 0.2467310
1164.703, 0.4487190
1165.186, 0.6133840
1165.668, 0.7051090
1166.150, 0.7694090
1166.632, 0.8115200
1167.114, 0.8055230
1167.596, 0.6720960
1168.078, 0.5141980
1168.560, 0.5377460
1169.042, 0.6771850
1169.525, 0.7563250
1170.007, 0.6380810
1170.489, 0.6235540
1170.971, 0.7678600
1171.453, 0.9141690
1171.935, 0.8979260
1172.417, 0.7836270
1172.899, 0.6942900
1173.382, 0.6287540
1173.864, 0.5569150
1174.346, 0.3630180
1174.828, 0.3155140
1175.310, 0.5050660
1175.792, 0.7630200
1176.274, 0.8642620
1176.756, 0.8678400
1177.239, 0.9398190
1177.721, 1.082199
1178.203, 1.145130
1178.685, 0.9874800
1179.167, 0.8454550
1179.649, 0.7603230
1180.131, 0.7375110
1180.613, 0.8581160
1181.095, 1.041267
1181.578, 1.012501
1182.060, 0.7197420
1182.542, 0.4752620
1183.024, 0.4083140
1183.506, 0.4356650
1183.988, 0.5482060
1184.470, 0.7156220
1184.952, 0.8825110
1185.434, 1.034431
1185.917, 1.129929
1186.399, 1.159420
1186.881, 1.131115
1187.363, 1.040134
1187.845, 0.8886570
1188.327, 0.6199760
1188.809, 0.3163340
1189.291, 0.3056640
1189.774, 0.5473670
1190.256, 0.8820990
1190.738, 1.341309
1191.220, 1.643036
1191.702, 1.590641
1192.184, 1.377453
1192.666, 1.063721
1193.148, 0.6962740
1193.630, 0.6228030
1194.113, 0.8003810
1194.595, 0.9935190
1195.077, 1.175709
1195.559, 1.216526
1196.041, 0.7966230
1196.523, 0.4403720
1197.005, 0.6527600
1197.487, 1.378284
1197.969, 1.600159
1198.452, 1.378777
1198.934, 1.179752
1199.416, 1.306778
1199.898, 1.433071
1200.380, 1.361500
1200.862, 1.241646
1201.344, 1.240162
1201.826, 1.355858
1202.309, 1.333813
1202.791, 1.163147
1203.273, 1.021881
1203.755, 1.088062
1204.237, 1.176163
1204.719, 1.193607
1205.201, 1.163723
1205.683, 1.140633
1206.166, 1.120754
1206.648, 0.9140170
1207.130, 0.5337070
1207.612, 0.2686580
1208.094, 0.3322940
1208.576, 0.5334550
1209.058, 0.8860700
1209.540, 1.244095
1210.022, 1.421700
1210.505, 1.427650
1210.987, 1.258022
1211.469, 0.9117660
1211.951, 0.6322820
1212.433, 0.4997220
1212.915, 0.5704040
1213.397, 1.130074
1213.879, 1.779705
1214.361, 1.747200
1214.844, 1.079487
1215.326, 0.5968780
1215.808, 0.4148450
1216.290, 0.3801570
1216.772, 0.4912910
1217.254, 0.6116330
1217.736, 0.6705510
1218.218, 0.6818500
1218.701, 0.6860620
1219.183, 0.6790770
1219.665, 0.5723800
1220.147, 0.3464320
1220.629, 0.1798970
1221.111, 0.1890300
1221.593, 0.3018260
1222.075, 0.5078390
1222.557, 0.7489090
1223.040, 0.8442730
1223.522, 0.8049810
1224.004, 0.6956830
1224.486, 0.5173150
1224.968, 0.3944700
1225.450, 0.4635240
1225.932, 0.5456050
1226.414, 0.5604630
1226.896, 0.5171780
1227.379, 0.4040030
1227.861, 0.2438390
1228.343, 0.1677280
1228.825, 0.2116740
1229.307, 0.3012620
1229.789, 0.5465280
1230.271, 0.6397740
1230.753, 0.3358080
1231.236, 0.1732180
1231.718, 0.2052080
1232.200, 0.1586650
1232.682, 0.4992830
1233.164, 0.7812880
1233.646, 0.8810690
1234.128, 0.4856000
1234.610, 0.1743160
1235.093, 0.2535860
1235.575, 0.5921940
1236.057, 0.7825740
1236.539, 0.8646240
1237.021, 0.9874920
1237.503, 1.236561
1237.985, 1.353683
1238.467, 1.101761
1238.949, 0.8749470
1239.432, 0.8825650
1239.914, 1.008366
1240.396, 0.8879890
1240.878, 0.5953220
1241.360, 0.3162500
1241.842, 4.8076998E-02
1242.324, 1.8478001E-02
1242.806, 0.2685660
1243.288, 0.5705410
1243.771, 0.7477720
1244.253, 0.8044050
1244.735, 0.6772920
1245.217, 0.4542050
1245.699, 0.3697430
1246.181, 0.5580220
1246.663, 0.6857800
1247.145, 0.7294310
1247.628, 0.6694150
1248.110, 0.4415360
1248.592, 0.1596910
1249.074, 2.6103999E-02
1249.556, 5.0243001E-02
1250.038, 0.2499920
1250.520, 0.8030090
1251.002, 1.051895
1251.484, 0.8906170
1251.967, 0.6830560
1252.449, 0.6177020
1252.931, 0.6543580
1253.413, 0.7738460
1253.895, 0.9309230
1254.377, 1.040821
1254.859, 1.095551
1255.341, 1.077389
1255.823, 0.9494740
1256.306, 0.9006160
1256.788, 1.119030
1257.270, 1.381550
1257.752, 1.417110
1258.234, 1.303955
1258.716, 1.144814
1259.198, 0.9103780
1259.680, 0.8629300
1260.163, 1.024403
1260.645, 1.149803
1261.127, 1.059826
1261.609, 0.9321330
1262.091, 0.9495660
1262.573, 1.007847
1263.055, 0.9370800
1263.537, 0.6921310
1264.020, 0.7215000
1264.502, 1.016891
1264.984, 1.228611
1265.466, 1.036465
1265.948, 0.8467600
1266.430, 1.078911
1266.912, 1.348007
1267.394, 1.089108
1267.876, 0.2869420
1268.359, 2.0599000E-02
1268.841, 0.1283800
1269.323, 0.3819850
1269.805, 0.6532710
1270.287, 0.8523450
1270.769, 0.9252590
1271.251, 0.9135860
1271.733, 0.8197360
1272.215, 0.6689030
1272.698, 0.5737950
1273.180, 0.5213510
1273.662, 0.4589730
1274.144, 0.2449040
1274.626, 0.2043690
1275.108, 0.5029910
1275.590, 0.8242570
1276.072, 0.9026910
1276.555, 0.8016550
1277.037, 0.7602810
1277.519, 0.7346230
1278.001, 0.5919300
1278.483, 2.4383999E-02
1278.965, 0.2183690
1279.447, 0.2036670
1279.929, 0.6812440
1280.411, 0.7753110
1280.894, 0.6403690
1281.376, 0.5022160
1281.858, 0.3739400
1282.340, 0.2821160
1282.822, 0.2246970
1283.304, 0.2261810
1283.786, 0.2941630
1284.268, 0.3863300
1284.750, 0.5067980
1285.233, 0.6068950
1285.715, 0.5892910
1286.197, 0.5143200
1286.679, 0.4825550
1287.161, 0.4844400
1287.643, 0.6664920
1288.125, 1.044575
1288.607, 1.176865
1289.090, 0.3848500
1289.572, 0.2925340
1290.054, 6.8611003E-02
1290.536, 0.8708150
1291.018, 1.121819
1291.500, 0.7993850
1291.982, 0.4976200
1292.464, 0.2366600
1292.947, 0.1839330
1293.429, 0.6776580
1293.911, 1.055279
1294.393, 0.7997280
1294.875, 0.5290490
1295.357, 0.5627170
1295.839, 1.204178
1296.321, 1.393101
1296.803, 1.198528
1297.286, 0.9036480
1297.768, 0.5201110
1298.250, 0.2605130
1298.732, 0.1984670
1299.214, 0.1779250
1299.696, 9.2018001E-02
1300.178, 1.8460000E-03
1300.660, 0.0000000E+00
##END=



