##NAMES=Metalodevite
##RRUFFID=R130693
##IDEAL CHEMISTRY=Zn^2+^(U^6+^O_2_)_2_(As^5+^O_4_)_2_&#183;10H_2_O
##LOCALITY=Riviéral, Lodève, Hérault, Languedoc-Roussillon, France
##OWNER=RRUFF
##SOURCE=Rock Currier
##DESCRIPTION=Aggregates of pale yellow-green platy crystals
##STATUS=The identification of this mineral has been confirmed only by single crystal X-ray diffraction.
##URL=rruff.info/R130693
93.84985, 0.0000000E+00
94.33197, 5.937256
94.81409, 13.94800
95.29620, 14.52930
95.77832, 12.20166
96.26044, 8.176514
96.74255, 5.516357
97.22467, 6.322998
97.70679, 12.36597
98.18890, 18.39990
98.67102, 22.07617
99.15314, 24.80933
99.63525, 23.15283
100.1174, 17.23926
100.5995, 10.00342
101.0816, 4.770020
101.5637, 2.016113
102.0458, 1.416992
102.5280, 0.8718260
103.0101, 0.5241700
103.4922, 0.2683110
103.9743, 0.1552730
104.4564, 1.173584
104.9385, 0.9526370
105.4207, 9.060547
105.9028, 17.72607
106.3849, 24.15308
106.8670, 27.75024
107.3491, 28.17859
107.8312, 23.62183
108.3134, 14.12012
108.7955, 6.587036
109.2776, 2.773438
109.7597, 1.453003
110.2418, 1.830566
110.7239, 4.492676
111.2061, 7.584473
111.6882, 9.740234
112.1703, 10.90198
112.6524, 11.31384
113.1345, 10.99280
113.6166, 10.15295
114.0988, 10.13586
114.5809, 11.90881
115.0630, 13.76892
115.5451, 15.15076
116.0272, 15.71802
116.5093, 15.16211
116.9915, 13.51636
117.4736, 10.54358
117.9557, 10.02368
118.4378, 11.44348
118.9199, 14.44299
119.4020, 17.14941
119.8842, 18.62329
120.3663, 20.46509
120.8484, 22.75818
121.3305, 26.20166
121.8126, 30.11292
122.2947, 35.55310
122.7769, 40.46130
123.2590, 42.49585
123.7411, 40.15320
124.2232, 34.62952
124.7053, 31.55603
125.1874, 32.14343
125.6696, 33.36328
126.1517, 34.17896
126.6338, 34.58618
127.1159, 34.80933
127.5980, 35.08130
128.0801, 35.40222
128.5623, 35.54688
129.0444, 35.04321
129.5265, 34.69629
130.0086, 35.87964
130.4907, 39.12256
130.9728, 41.20300
131.4550, 39.19153
131.9371, 34.85791
132.4192, 30.31836
132.9013, 26.14771
133.3834, 22.40942
133.8655, 19.32996
134.3477, 17.18738
134.8298, 15.37708
135.3119, 13.73169
135.7940, 12.20374
136.2761, 10.69678
136.7582, 8.988647
137.2404, 7.072998
137.7225, 6.137207
138.2046, 7.763916
138.6867, 9.049072
139.1688, 9.151978
139.6509, 8.059570
140.1331, 6.119751
140.6152, 3.485962
141.0973, 0.3121340
141.5794, 2.840820
142.0615, 3.365356
142.5436, 3.456299
143.0258, 4.348145
143.5079, 6.148682
143.9900, 7.769775
144.4721, 7.609985
144.9542, 4.554321
145.4363, 2.550415
145.9185, 2.578125
146.4006, 3.421265
146.8827, 3.634521
147.3648, 2.754150
147.8469, 1.451416
148.3290, 0.9389650
148.8112, 1.304932
149.2933, 1.473511
149.7754, 1.237427
150.2575, 0.5343020
150.7396, 0.9464110
151.2217, 3.810425
151.7039, 10.88477
152.1860, 16.35596
152.6681, 20.02588
153.1502, 23.68152
153.6323, 29.05554
154.1144, 36.24023
154.5966, 42.71899
155.0787, 47.87390
155.5608, 51.99011
156.0429, 54.72925
156.5250, 55.96790
157.0071, 57.07495
157.4893, 59.98511
157.9714, 65.15454
158.4535, 71.04834
158.9356, 78.34045
159.4177, 85.61194
159.8998, 91.60706
160.3820, 95.85498
160.8641, 99.09534
161.3462, 103.0358
161.8283, 108.0278
162.3104, 113.2695
162.7925, 118.8744
163.2747, 124.8042
163.7568, 131.0311
164.2389, 137.4971
164.7210, 144.1962
165.2031, 151.1117
165.6852, 158.0182
166.1674, 165.3442
166.6495, 173.4780
167.1316, 182.1021
167.6137, 190.4352
168.0958, 197.9443
168.5779, 205.0649
169.0601, 214.2666
169.5422, 227.3809
170.0243, 240.1702
170.5064, 250.6575
170.9885, 259.2566
171.4706, 267.7156
171.9528, 276.8434
172.4349, 286.8812
172.9170, 298.0052
173.3991, 311.5404
173.8812, 325.1284
174.3633, 336.6748
174.8455, 346.1354
175.3276, 355.7238
175.8097, 367.0216
176.2918, 379.4537
176.7739, 392.0015
177.2560, 404.3364
177.7382, 416.7720
178.2203, 429.3998
178.7024, 441.8654
179.1845, 455.7137
179.6666, 472.2598
180.1487, 490.3971
180.6309, 508.8987
181.1130, 527.5552
181.5951, 546.0625
182.0772, 563.7922
182.5593, 580.3843
183.0414, 596.6948
183.5236, 613.0190
184.0057, 629.2938
184.4878, 645.5149
184.9699, 661.8110
185.4520, 677.9949
185.9341, 692.9486
186.4163, 706.1855
186.8984, 718.5115
187.3805, 730.0330
187.8626, 740.9032
188.3447, 751.3395
188.8268, 761.6025
189.3090, 771.6199
189.7911, 780.4244
190.2732, 790.0988
190.7553, 796.4908
191.2374, 798.8889
191.7195, 797.0959
192.2017, 791.0886
192.6838, 780.9189
193.1659, 766.4988
193.6480, 746.8752
194.1301, 720.3983
194.6122, 691.6741
195.0944, 662.1743
195.5765, 632.1367
196.0586, 601.1892
196.5407, 568.9359
197.0228, 535.2355
197.5049, 502.4968
197.9871, 470.3180
198.4692, 439.0865
198.9513, 409.0087
199.4334, 380.2383
199.9155, 352.6238
200.3976, 325.7021
200.8798, 299.8345
201.3619, 276.8256
201.8440, 258.7960
202.3261, 242.5765
202.8082, 225.3761
203.2903, 206.9659
203.7725, 189.1042
204.2546, 173.4615
204.7367, 159.7323
205.2188, 147.1547
205.7009, 136.0813
206.1830, 125.8081
206.6652, 115.2144
207.1473, 103.9755
207.6294, 93.77124
208.1115, 86.37219
208.5936, 80.75708
209.0757, 75.41858
209.5579, 69.80066
210.0400, 64.09656
210.5221, 58.60303
211.0042, 53.13269
211.4863, 48.31836
211.9685, 44.79468
212.4506, 41.97546
212.9327, 39.01880
213.4148, 35.30090
213.8969, 31.23596
214.3790, 28.25696
214.8612, 27.09705
215.3433, 25.83740
215.8254, 23.68994
216.3075, 21.09033
216.7896, 18.62122
217.2717, 16.63098
217.7539, 15.01184
218.2360, 13.31128
218.7181, 11.09998
219.2002, 9.433594
219.6823, 8.659790
220.1644, 8.508057
220.6466, 8.783936
221.1287, 9.494629
221.6108, 10.37512
222.0929, 9.887817
222.5750, 6.309326
223.0571, 3.162231
223.5393, 0.9395750
224.0214, 0.4560550
224.5035, 1.130249
224.9856, 1.098877
225.4677, 0.4882810
225.9498, 9.2407003E-02
226.4320, 0.4237060
226.9141, 0.4045410
227.3962, 0.5358890
227.8783, 1.888428
228.3604, 2.718628
228.8425, 2.407959
229.3247, 1.322632
229.8068, 1.605591
230.2889, 5.204712
230.7710, 7.855591
231.2531, 8.313599
231.7352, 7.255249
232.2174, 5.757690
232.6995, 4.297485
233.1816, 3.009766
233.6637, 2.594360
234.1458, 3.746216
234.6279, 4.778198
235.1101, 5.055298
235.5922, 4.926636
236.0743, 5.027954
236.5564, 5.636719
237.0385, 6.761597
237.5206, 8.516724
238.0028, 11.52173
238.4849, 13.93750
238.9670, 14.61292
239.4491, 14.23254
239.9312, 14.42822
240.4133, 16.06946
240.8955, 18.39648
241.3776, 19.57703
241.8597, 19.03479
242.3418, 18.96289
242.8239, 20.71594
243.3060, 23.70105
243.7882, 26.33337
244.2703, 28.10632
244.7524, 29.16528
245.2345, 29.71423
245.7166, 29.67407
246.1987, 29.61133
246.6809, 29.86572
247.1630, 30.32959
247.6451, 30.65491
248.1272, 30.78687
248.6093, 30.67505
249.0914, 30.20276
249.5736, 29.36487
250.0557, 28.60901
250.5378, 28.13806
251.0199, 27.94617
251.5020, 27.99158
251.9841, 28.23206
252.4663, 28.78760
252.9484, 29.59888
253.4305, 30.68567
253.9126, 32.29993
254.3947, 35.06848
254.8768, 38.64636
255.3590, 41.41345
255.8411, 43.31116
256.3232, 44.08264
256.8053, 43.41553
257.2874, 41.60400
257.7695, 39.67371
258.2516, 37.71484
258.7338, 35.97351
259.2159, 36.05029
259.6980, 39.19153
260.1801, 42.46619
260.6622, 44.44727
261.1443, 45.37061
261.6265, 45.71680
262.1086, 45.33118
262.5907, 44.55786
263.0728, 45.13257
263.5549, 48.00598
264.0370, 50.80579
264.5192, 52.89709
265.0013, 54.23193
265.4834, 54.66528
265.9655, 53.90308
266.4476, 52.32544
266.9297, 51.19556
267.4119, 50.32068
267.8940, 50.34094
268.3761, 51.56116
268.8582, 53.58215
269.3403, 56.15027
269.8224, 59.32324
270.3046, 62.48792
270.7867, 63.76587
271.2688, 61.86560
271.7509, 60.31982
272.2330, 59.51904
272.7151, 59.54089
273.1973, 60.72803
273.6794, 63.25574
274.1615, 66.27478
274.6436, 67.92786
275.1257, 67.33777
275.6078, 67.04114
276.0900, 67.95630
276.5721, 68.89648
277.0542, 68.68347
277.5363, 67.02930
278.0184, 64.85437
278.5005, 63.83875
278.9827, 64.90393
279.4648, 65.07129
279.9469, 64.04260
280.4290, 62.32544
280.9111, 59.94836
281.3932, 57.07800
281.8754, 54.29285
282.3575, 52.57446
282.8396, 52.86523
283.3217, 51.50757
283.8038, 47.23730
284.2859, 42.68115
284.7681, 39.16040
285.2502, 36.74292
285.7323, 34.77515
286.2144, 32.59143
286.6965, 30.12488
287.1786, 27.91113
287.6608, 26.41333
288.1429, 24.85144
288.6250, 22.56152
289.1071, 19.83801
289.5892, 17.61694
290.0714, 16.83093
290.5535, 17.59839
291.0356, 17.10742
291.5177, 13.98218
291.9998, 10.93311
292.4819, 8.854492
292.9641, 7.396851
293.4462, 5.594238
293.9283, 2.667603
294.4104, 0.9752200
294.8925, 2.538574
295.3746, 0.3411870
295.8568, 2.744873
296.3389, 3.662354
296.8210, 3.756958
297.3031, 3.969727
297.7852, 4.775757
298.2673, 6.088257
298.7495, 7.554932
299.2316, 9.491211
299.7137, 11.10474
300.1958, 11.52576
300.6779, 11.93372
301.1600, 13.84314
301.6422, 17.67200
302.1243, 22.23096
302.6064, 25.23096
303.0885, 25.01196
303.5706, 25.94983
304.0527, 28.77344
304.5349, 32.27319
305.0170, 35.68103
305.4991, 38.80969
305.9812, 41.75940
306.4633, 44.52332
306.9454, 46.77747
307.4276, 49.51587
307.9097, 53.04358
308.3918, 56.87634
308.8739, 60.69031
309.3560, 64.54517
309.8381, 68.70972
310.3203, 73.45020
310.8024, 78.74731
311.2845, 84.58008
311.7666, 90.52710
312.2487, 97.35291
312.7308, 105.5770
313.2130, 114.9291
313.6951, 124.6794
314.1772, 134.2888
314.6593, 143.9971
315.1414, 155.2495
315.6235, 168.1929
316.1057, 182.6012
316.5878, 199.3777
317.0699, 217.3491
317.5520, 235.3606
318.0341, 252.8739
318.5162, 269.4570
318.9984, 283.8333
319.4805, 296.0573
319.9626, 305.5393
320.4447, 314.1080
320.9268, 319.0618
321.4089, 317.5251
321.8911, 308.8745
322.3732, 295.1866
322.8553, 279.2216
323.3374, 260.6483
323.8195, 240.4908
324.3016, 217.6172
324.7838, 194.4142
325.2659, 171.7522
325.7480, 150.0487
326.2301, 130.2839
326.7122, 113.3369
327.1943, 99.47473
327.6765, 86.89038
328.1586, 75.23181
328.6407, 65.02417
329.1228, 56.57849
329.6049, 49.72473
330.0870, 44.13391
330.5692, 39.66125
331.0513, 36.17566
331.5334, 32.77429
332.0155, 29.13586
332.4976, 25.92749
332.9797, 23.41345
333.4619, 21.34351
333.9440, 19.44580
334.4261, 17.59741
334.9082, 15.78516
335.3904, 13.94031
335.8725, 12.05078
336.3546, 10.19824
336.8367, 8.131104
337.3188, 6.260864
337.8009, 5.034912
338.2831, 4.499878
338.7652, 4.253906
339.2473, 3.794922
339.7294, 3.088257
340.2115, 2.242676
340.6936, 1.082275
341.1758, 5.7372998E-02
341.6579, 1.223511
342.1400, 2.273560
342.6221, 2.817139
343.1042, 2.436646
343.5863, 1.140991
344.0685, 0.1613770
344.5506, 0.7275390
345.0327, 0.9891360
345.5148, 0.1737060
345.9969, 1.939209
346.4790, 2.920532
346.9612, 2.300293
347.4433, 0.7127690
347.9254, 0.2714840
348.4075, 2.069214
348.8896, 3.243652
349.3717, 2.902588
349.8539, 2.104980
350.3360, 1.840454
350.8181, 2.393555
351.3002, 3.250610
351.7823, 3.685181
352.2644, 3.629639
352.7466, 3.403320
353.2287, 2.817505
353.7108, 2.122803
354.1929, 1.212891
354.6750, 0.2255860
355.1571, 0.3951420
355.6393, 0.1462400
356.1214, 0.9635010
356.6035, 1.854858
357.0856, 2.612183
357.5677, 2.984375
358.0498, 2.652344
358.5320, 1.933838
359.0141, 1.405884
359.4962, 1.466919
359.9783, 1.786987
360.4604, 1.352417
360.9425, 0.3551030
361.4247, 1.585571
361.9068, 1.649170
362.3889, 1.134155
362.8710, 0.2662350
363.3531, 0.9332280
363.8352, 1.668213
364.3174, 0.6514890
364.7995, 2.345581
365.2816, 4.766235
365.7637, 6.137329
366.2458, 6.770142
366.7279, 6.511719
367.2101, 5.547974
367.6922, 4.853760
368.1743, 5.382202
368.6564, 6.817383
369.1385, 7.671265
369.6206, 7.692993
370.1028, 7.520386
370.5849, 7.269531
371.0670, 7.129639
371.5491, 7.531372
372.0312, 8.953979
372.5133, 10.65845
372.9955, 11.51257
373.4776, 11.42578
373.9597, 11.34570
374.4418, 11.48254
374.9239, 11.96533
375.4060, 13.15674
375.8882, 15.36523
376.3703, 17.10266
376.8524, 16.54785
377.3345, 14.45483
377.8166, 14.23596
378.2987, 17.47888
378.7809, 21.28882
379.2630, 22.06458
379.7451, 20.22339
380.2272, 18.90002
380.7093, 19.45056
381.1914, 20.93030
381.6736, 22.14380
382.1557, 22.98547
382.6378, 23.80591
383.1199, 24.84241
383.6020, 26.06995
384.0841, 27.31543
384.5663, 28.76306
385.0484, 30.03748
385.5305, 30.79016
386.0126, 31.16675
386.4947, 31.57642
386.9768, 32.11414
387.4590, 32.91577
387.9411, 34.42468
388.4232, 36.91968
388.9053, 39.13074
389.3874, 40.60583
389.8695, 41.76099
390.3517, 43.13342
390.8338, 44.81177
391.3159, 46.36548
391.7980, 47.29407
392.2801, 47.48193
392.7622, 48.07703
393.2444, 49.20801
393.7265, 50.57935
394.2086, 52.21301
394.6907, 53.96545
395.1728, 55.56702
395.6549, 56.86487
396.1371, 57.87854
396.6192, 58.63953
397.1013, 59.00085
397.5834, 59.27563
398.0655, 59.66382
398.5476, 59.87952
399.0298, 59.42395
399.5119, 58.22180
399.9940, 56.89673
400.4761, 56.46692
400.9582, 57.68628
401.4403, 57.37500
401.9225, 54.21875
402.4046, 50.95154
402.8867, 48.79016
403.3688, 47.49243
403.8509, 46.24146
404.3330, 44.56348
404.8152, 42.59045
405.2973, 40.59973
405.7794, 38.47559
406.2615, 36.19019
406.7436, 33.59534
407.2257, 31.06641
407.7079, 29.02222
408.1900, 27.52368
408.6721, 26.11816
409.1542, 24.13391
409.6363, 21.41064
410.1184, 19.10413
410.6006, 17.52588
411.0827, 16.27979
411.5648, 15.26160
412.0469, 14.43286
412.5290, 13.71265
413.0111, 13.08960
413.4933, 12.45557
413.9754, 11.42322
414.4575, 9.731323
414.9396, 8.417725
415.4217, 8.208618
415.9038, 8.649780
416.3860, 9.221924
416.8681, 9.725586
417.3502, 10.50342
417.8323, 12.08203
418.3144, 14.39893
418.7965, 16.63916
419.2787, 18.66211
419.7608, 20.23450
420.2429, 21.55115
420.7250, 22.54883
421.2071, 21.79309
421.6892, 17.03271
422.1714, 11.20422
422.6535, 8.309204
423.1356, 8.528320
423.6177, 9.809814
424.0998, 11.13074
424.5819, 12.39087
425.0641, 13.24268
425.5462, 13.06909
426.0283, 13.27710
426.5104, 15.17517
426.9925, 17.78882
427.4746, 18.95544
427.9568, 17.83618
428.4389, 16.01746
428.9210, 15.93408
429.4031, 18.48767
429.8852, 20.36633
430.3673, 20.76147
430.8495, 21.12793
431.3316, 22.65088
431.8137, 25.16602
432.2958, 27.62964
432.7779, 29.25891
433.2600, 30.19958
433.7422, 31.63000
434.2243, 34.38062
434.7064, 36.62170
435.1885, 37.70923
435.6706, 38.35828
436.1527, 39.22913
436.6349, 40.55542
437.1170, 42.32910
437.5991, 44.53528
438.0812, 47.15088
438.5633, 50.27771
439.0454, 55.08728
439.5276, 59.27612
440.0097, 61.39148
440.4918, 62.13928
440.9739, 63.29968
441.4560, 66.11938
441.9381, 69.88794
442.4203, 72.26038
442.9024, 72.21069
443.3845, 73.50769
443.8666, 79.19348
444.3487, 85.56567
444.8308, 89.39941
445.3130, 90.14197
445.7951, 90.32605
446.2772, 92.22290
446.7593, 95.44983
447.2414, 97.80493
447.7235, 98.47009
448.2057, 99.44250
448.6878, 102.5586
449.1699, 107.1503
449.6520, 111.7725
450.1341, 116.7266
450.6162, 120.9700
451.0984, 122.9274
451.5805, 122.9954
452.0626, 123.8271
452.5447, 126.8297
453.0268, 130.6659
453.5089, 132.6821
453.9911, 132.6698
454.4732, 132.4797
454.9553, 132.1180
455.4374, 132.0173
455.9195, 132.8254
456.4016, 134.5146
456.8838, 136.3058
457.3659, 137.6257
457.8480, 138.4805
458.3301, 138.9728
458.8122, 138.7047
459.2943, 138.6071
459.7765, 139.2634
460.2586, 140.0898
460.7407, 140.4120
461.2228, 139.9854
461.7049, 138.8353
462.1870, 136.9640
462.6692, 134.3413
463.1513, 131.2434
463.6334, 127.3976
464.1155, 123.2527
464.5976, 118.6042
465.0797, 113.8696
465.5619, 109.8185
466.0440, 107.0499
466.5261, 105.0403
467.0082, 102.3325
467.4903, 98.62256
467.9724, 95.03064
468.4546, 91.73413
468.9367, 88.71753
469.4188, 86.07776
469.9009, 83.76819
470.3830, 81.52368
470.8651, 79.07019
471.3473, 76.48975
471.8294, 74.24561
472.3115, 72.68311
472.7936, 70.75293
473.2757, 67.00562
473.7578, 62.44128
474.2400, 59.16235
474.7221, 58.11890
475.2042, 57.41284
475.6863, 55.58887
476.1684, 53.03992
476.6505, 50.85376
477.1327, 49.42078
477.6148, 48.17395
478.0969, 46.17566
478.5790, 43.25916
479.0611, 40.67761
479.5432, 38.59937
480.0254, 36.84070
480.5075, 35.51672
480.9896, 34.44348
481.4717, 32.99792
481.9538, 30.80884
482.4359, 28.34912
482.9181, 26.97974
483.4002, 27.71631
483.8823, 28.26990
484.3644, 28.71082
484.8465, 28.73181
485.3286, 27.91467
485.8108, 26.41455
486.2929, 24.95557
486.7750, 24.21411
487.2571, 24.03638
487.7392, 23.12427
488.2213, 20.51831
488.7035, 18.84338
489.1856, 19.82373
489.6677, 21.40063
490.1498, 21.13660
490.6319, 18.45081
491.1140, 15.59814
491.5962, 15.08948
492.0783, 16.66882
492.5604, 18.22400
493.0425, 19.95264
493.5246, 20.88232
494.0067, 19.62146
494.4889, 17.02893
494.9710, 14.82666
495.4531, 12.96887
495.9352, 12.12732
496.4173, 13.91760
496.8994, 17.39783
497.3816, 18.88403
497.8637, 16.88733
498.3458, 13.31580
498.8279, 10.73108
499.3100, 9.263428
499.7921, 8.424438
500.2743, 8.880493
500.7564, 9.267700
501.2385, 8.531372
501.7206, 6.965088
502.2027, 5.463501
502.6848, 4.527222
503.1670, 4.051392
503.6491, 3.751099
504.1312, 3.712402
504.6133, 3.717285
505.0954, 3.597290
505.5775, 3.547729
506.0597, 3.996826
506.5418, 4.791626
507.0239, 5.049805
507.5060, 3.812866
507.9881, 1.571411
508.4702, 0.8818360
508.9524, 2.682373
509.4345, 3.809326
509.9166, 2.524292
510.3987, 0.5926510
510.8808, 0.5028080
511.3629, 0.5224610
511.8451, 6.4208999E-02
512.3271, 1.468140
512.8093, 3.209717
513.2914, 3.710327
513.7735, 2.625854
514.2556, 1.388306
514.7377, 0.9130860
515.2198, 1.009766
515.7020, 1.080688
516.1841, 1.152954
516.6662, 1.176147
517.1483, 1.021851
517.6304, 0.8228760
518.1125, 0.9544680
518.5947, 1.486450
519.0768, 1.754272
519.5589, 0.8889160
520.0410, 1.350586
520.5231, 2.413696
521.0052, 1.834961
521.4874, 0.8206790
521.9695, 0.8895260
522.4516, 2.600464
522.9337, 3.262329
523.4158, 2.525024
523.8979, 1.147461
524.3801, 0.2097170
524.8622, 0.2191160
525.3443, 0.5063480
525.8264, 0.6508790
526.3085, 0.6398930
526.7906, 0.3573000
527.2728, 6.0913000E-02
527.7549, 0.4160160
528.2370, 0.7249760
528.7191, 0.7269290
529.2012, 0.3190920
529.6833, 2.286865
530.1655, 3.119141
530.6476, 1.848389
531.1297, 7.8856997E-02
531.6118, 0.1987300
532.0939, 0.7691650
532.5760, 1.180420
533.0582, 0.1085210
533.5403, 1.394165
534.0224, 1.102905
534.5045, 0.3101810
534.9866, 1.365234
535.4688, 1.404907
535.9509, 0.8454590
536.4330, 0.4147950
536.9151, 9.6557997E-02
537.3972, 4.6021000E-02
537.8793, 0.2619630
538.3615, 0.4678960
538.8436, 5.0048999E-02
539.3257, 0.8985600
539.8078, 1.047119
540.2899, 0.1630860
540.7720, 1.971191
541.2542, 2.492432
541.7363, 1.248413
542.2184, 0.3328860
542.7005, 0.2180180
543.1826, 0.4110110
543.6647, 0.9119870
544.1469, 1.535034
544.6290, 1.690430
545.1111, 0.7247310
545.5932, 0.6190190
546.0753, 1.215210
546.5574, 1.081909
547.0396, 0.6636960
547.5217, 0.1188960
548.0038, 0.7733150
548.4859, 0.1610110
548.9680, 1.936401
549.4501, 3.010132
549.9323, 1.542480
550.4144, 0.2448730
550.8965, 0.5372310
551.3786, 0.4483640
551.8607, 1.630127
552.3428, 2.461304
552.8250, 2.944946
553.3071, 3.034912
553.7892, 2.271240
554.2713, 1.963013
554.7534, 2.793213
555.2355, 3.411743
555.7177, 2.809814
556.1998, 1.330200
556.6819, 2.3314999E-02
557.1640, 0.6976320
557.6461, 0.7845460
558.1282, 0.2717290
558.6104, 1.011719
559.0925, 1.790649
559.5746, 1.536743
560.0567, 0.8640140
560.5388, 0.2685550
561.0209, 0.2447510
561.5031, 0.6795650
561.9852, 1.306763
562.4673, 1.654053
562.9494, 0.9410400
563.4315, 0.5919190
563.9136, 1.791260
564.3958, 2.181519
564.8779, 1.998169
565.3600, 1.537109
565.8421, 0.4342040
566.3242, 0.1942140
566.8063, 1.866943
567.2885, 3.384033
567.7706, 3.337402
568.2527, 2.253052
568.7348, 1.398560
569.2169, 1.406006
569.6990, 1.850952
570.1812, 1.862305
570.6633, 1.299927
571.1454, 0.8654790
571.6275, 0.2301030
572.1096, 0.1623540
572.5917, 1.630493
573.0739, 3.915771
573.5560, 5.311279
574.0381, 4.838135
574.5202, 3.826416
575.0023, 3.816895
575.4844, 4.631836
575.9666, 5.313965
576.4487, 5.651367
576.9308, 5.703125
577.4129, 5.288208
577.8950, 4.377441
578.3771, 4.372314
578.8593, 6.724121
579.3414, 8.627441
579.8235, 8.169922
580.3056, 6.572144
580.7877, 5.919678
581.2698, 6.818481
581.7520, 8.295776
582.2341, 9.200439
582.7162, 9.527344
583.1984, 9.253662
583.6805, 7.528809
584.1626, 6.282104
584.6447, 6.494751
585.1268, 7.266968
585.6089, 7.514160
586.0911, 6.945679
586.5732, 6.015259
587.0553, 4.684570
587.5374, 3.181274
588.0195, 3.120117
588.5016, 5.069214
588.9838, 6.941528
589.4659, 7.173828
589.9480, 6.275757
590.4301, 6.012085
590.9122, 6.962402
591.3943, 7.565552
591.8765, 6.807129
592.3586, 5.787964
592.8407, 5.835693
593.3228, 7.002930
593.8049, 8.349854
594.2870, 9.234619
594.7692, 9.569458
595.2513, 8.871216
595.7334, 5.985962
596.2155, 4.098145
596.6976, 3.789429
597.1797, 4.282593
597.6619, 5.388062
598.1440, 6.860718
598.6261, 8.059204
599.1082, 8.758789
599.5903, 9.130127
600.0724, 9.082642
600.5546, 8.557983
601.0367, 8.364258
601.5188, 8.872192
602.0009, 9.571777
602.4830, 9.760742
602.9651, 9.517822
603.4473, 9.676514
603.9294, 10.75806
604.4115, 11.77417
604.8936, 12.24365
605.3757, 12.15442
605.8578, 11.40576
606.3400, 10.07349
606.8221, 8.671082
607.3042, 7.901794
607.7863, 7.816772
608.2684, 7.968750
608.7505, 8.788025
609.2327, 9.475281
609.7148, 9.569702
610.1969, 9.435303
610.6790, 9.515503
611.1611, 9.936584
611.6432, 10.54651
612.1254, 11.39807
612.6075, 12.34082
613.0896, 12.84949
613.5717, 12.83777
614.0538, 12.62903
614.5359, 12.21912
615.0181, 11.79083
615.5002, 11.99652
615.9823, 13.23657
616.4644, 14.22534
616.9465, 14.64001
617.4286, 14.66016
617.9108, 14.18115
618.3929, 13.40833
618.8750, 12.95038
619.3571, 13.23346
619.8392, 13.92700
620.3214, 14.21490
620.8035, 14.08362
621.2856, 13.90045
621.7677, 13.47589
622.2498, 13.08868
622.7319, 13.11975
623.2141, 13.30591
623.6962, 12.87915
624.1783, 11.16541
624.6604, 9.549377
625.1425, 9.652954
625.6246, 10.92163
626.1068, 11.38043
626.5889, 10.51385
627.0710, 9.548279
627.5531, 9.671082
628.0352, 10.81366
628.5173, 11.59381
628.9995, 11.84479
629.4816, 11.99878
629.9637, 12.03571
630.4458, 12.14685
630.9279, 12.37207
631.4100, 12.76819
631.8922, 13.58575
632.3743, 15.30334
632.8564, 17.39001
633.3385, 17.59076
633.8206, 15.29346
634.3027, 13.53156
634.7849, 13.13000
635.2670, 13.66016
635.7491, 15.16840
636.2312, 17.48602
636.7133, 18.65869
637.1954, 17.04004
637.6776, 14.90436
638.1597, 13.95416
638.6418, 13.98059
639.1239, 14.63544
639.6060, 15.78363
640.0881, 16.56763
640.5703, 15.77661
641.0524, 13.22260
641.5345, 11.60742
642.0166, 11.53149
642.4987, 11.76117
642.9808, 12.44006
643.4630, 13.12354
643.9451, 13.27399
644.4272, 12.78680
644.9093, 12.10590
645.3914, 11.42120
645.8735, 10.86499
646.3557, 10.76447
646.8378, 11.14514
647.3199, 11.84369
647.8020, 12.80914
648.2841, 13.89545
648.7662, 15.15192
649.2484, 16.86395
649.7305, 17.31000
650.2126, 15.13971
650.6947, 12.82770
651.1768, 11.63495
651.6589, 11.29144
652.1411, 11.27649
652.6232, 11.40601
653.1053, 11.73053
653.5874, 12.38708
654.0695, 13.36316
654.5516, 13.84839
655.0338, 13.62445
655.5159, 13.37079
655.9980, 13.37360
656.4801, 13.57373
656.9622, 13.90320
657.4443, 14.27246
657.9265, 14.38971
658.4086, 14.08765
658.8907, 13.58868
659.3728, 12.92963
659.8549, 12.26965
660.3370, 12.11298
660.8192, 12.71973
661.3013, 13.79633
661.7834, 14.89343
662.2655, 16.19897
662.7476, 16.56207
663.2297, 14.27350
663.7119, 13.01770
664.1940, 15.28223
664.6761, 18.71185
665.1582, 19.81970
665.6403, 17.68646
666.1224, 15.31128
666.6046, 15.64044
667.0867, 17.45349
667.5688, 17.54944
668.0509, 15.72821
668.5330, 14.43994
669.0151, 15.07739
669.4973, 16.65442
669.9794, 17.16589
670.4615, 16.16150
670.9436, 15.38831
671.4257, 15.05237
671.9078, 14.69470
672.3900, 13.69843
672.8721, 12.68561
673.3542, 12.93207
673.8363, 14.82660
674.3184, 16.75592
674.8005, 16.53717
675.2827, 14.57410
675.7648, 13.62592
676.2469, 13.96460
676.7290, 14.64191
677.2111, 15.64465
677.6932, 16.58179
678.1754, 16.63409
678.6575, 15.51837
679.1396, 14.78156
679.6217, 15.22266
680.1038, 15.87079
680.5859, 16.23187
681.0681, 16.15356
681.5502, 15.27203
682.0323, 13.51202
682.5144, 11.64911
682.9965, 10.83173
683.4786, 11.09717
683.9608, 11.37183
684.4429, 11.58875
684.9250, 12.02460
685.4071, 13.54346
685.8892, 14.99561
686.3713, 14.69971
686.8535, 12.38184
687.3356, 10.43439
687.8177, 10.31873
688.2998, 10.81580
688.7819, 10.68225
689.2640, 10.05481
689.7462, 9.526123
690.2283, 9.319275
690.7104, 9.472168
691.1925, 10.13873
691.6746, 11.44836
692.1567, 12.14484
692.6389, 12.28333
693.1210, 11.69464
693.6031, 9.469910
694.0852, 7.083313
694.5673, 6.186707
695.0494, 6.911255
695.5316, 7.798035
696.0137, 7.826904
696.4958, 7.644104
696.9779, 8.435547
697.4600, 9.884705
697.9421, 10.39056
698.4243, 9.338013
698.9064, 7.637451
699.3885, 6.399536
699.8706, 5.666748
700.3527, 4.846252
700.8348, 3.387329
701.3170, 2.535767
701.7991, 2.919312
702.2812, 3.739868
702.7633, 4.428284
703.2454, 4.839661
703.7275, 4.828796
704.2097, 3.886475
704.6918, 2.827393
705.1739, 3.223572
705.6560, 4.797485
706.1381, 5.659302
706.6202, 5.192566
707.1024, 4.412781
707.5845, 4.342590
708.0666, 4.964417
708.5487, 5.513062
709.0308, 6.315125
709.5129, 6.602356
709.9951, 5.468567
710.4772, 4.366455
710.9593, 4.792969
711.4414, 6.491760
711.9235, 8.033936
712.4056, 8.798279
712.8878, 8.598572
713.3699, 6.435730
713.8520, 2.728455
714.3341, 0.7312010
714.8162, 1.289795
715.2983, 2.425049
715.7805, 2.682129
716.2626, 2.162048
716.7447, 1.416687
717.2268, 0.2705080
717.7089, 0.8193970
718.1910, 2.232422
718.6732, 3.216064
719.1553, 2.974365
719.6374, 1.868347
720.1195, 0.7976070
720.6016, 0.1670530
721.0837, 9.8145001E-02
721.5659, 3.7229999E-03
722.0480, 0.3973390
722.5301, 0.8397220
723.0122, 1.325378
723.4943, 1.715027
723.9764, 1.959656
724.4586, 2.036377
724.9407, 1.873657
725.4228, 1.437317
725.9049, 0.8613890
726.3870, 0.3189090
726.8691, 1.160156
727.3513, 0.8807370
727.8334, 1.5991000E-02
728.3155, 0.6288450
728.7976, 0.6676640
729.2797, 0.6166380
729.7618, 1.120483
730.2440, 1.952087
730.7261, 2.539246
731.2082, 2.932190
731.6903, 1.621765
732.1724, 2.956299
732.6545, 7.840210
733.1367, 8.449402
733.6188, 3.797363
734.1009, 8.5510001E-02
734.5830, 3.081543
735.0651, 4.884705
735.5472, 4.175232
736.0294, 2.450256
736.5115, 1.341736
736.9936, 1.108093
737.4757, 1.038147
737.9578, 0.4988400
738.4399, 0.1098630
738.9221, 0.2463990
739.4042, 1.479797
739.8863, 2.218018
740.3684, 2.100464
740.8505, 1.474792
741.3326, 0.3953250
741.8148, 1.012573
742.2969, 1.266113
742.7790, 1.031677
743.2611, 2.444885
743.7432, 2.158569
744.2253, 1.212646
744.7075, 6.7199998E-02
745.1896, 1.031799
745.6717, 1.758911
746.1538, 1.940796
746.6359, 1.790466
747.1180, 1.384338
747.6002, 0.8547360
748.0823, 0.7032470
748.5644, 0.9989620
749.0465, 1.561951
749.5286, 2.442932
750.0107, 3.276489
750.4929, 3.116272
750.9750, 1.049866
751.4571, 0.2481690
751.9392, 1.176941
752.4213, 2.719543
752.9034, 5.299561
753.3856, 7.873901
753.8677, 8.908936
754.3498, 8.112793
754.8319, 6.984863
755.3140, 6.008911
755.7961, 5.712891
756.2783, 7.675903
756.7604, 11.38300
757.2425, 13.79578
757.7246, 13.80975
758.2067, 13.11591
758.6888, 13.66980
759.1710, 15.47144
759.6531, 16.84552
760.1352, 17.15588
760.6173, 18.02850
761.0994, 20.25439
761.5815, 22.59259
762.0637, 24.07343
762.5458, 24.81482
763.0279, 25.55481
763.5100, 26.53918
763.9921, 27.69635
764.4742, 29.13422
764.9564, 30.62714
765.4385, 31.57471
765.9206, 32.05151
766.4027, 32.98724
766.8848, 35.00696
767.3669, 37.69006
767.8491, 40.04132
768.3312, 41.96674
768.8133, 43.92688
769.2954, 45.85156
769.7775, 47.93335
770.2596, 50.33069
770.7418, 52.90717
771.2239, 55.39294
771.7060, 57.64691
772.1881, 60.28821
772.6702, 64.16290
773.1523, 68.17731
773.6345, 71.21985
774.1166, 73.66974
774.5987, 76.26489
775.0808, 79.24573
775.5629, 82.75769
776.0450, 87.03516
776.5272, 91.92737
777.0093, 96.68518
777.4914, 101.3811
777.9735, 105.8390
778.4556, 109.4952
778.9377, 113.6802
779.4199, 119.4634
779.9020, 126.7784
780.3841, 135.4480
780.8662, 147.3075
781.3483, 157.7739
781.8304, 163.5095
782.3126, 169.3651
782.7947, 180.5187
783.2768, 195.2145
783.7589, 207.4766
784.2410, 214.5140
784.7231, 221.5505
785.2053, 236.3754
785.6874, 256.6130
786.1695, 272.4381
786.6516, 283.1311
787.1337, 294.8395
787.6158, 310.0818
788.0980, 327.7728
788.5801, 346.5432
789.0622, 366.3275
789.5443, 387.1852
790.0264, 408.3412
790.5085, 431.4238
790.9907, 457.0281
791.4728, 484.6281
791.9549, 513.2332
792.4370, 542.8746
792.9191, 575.3295
793.4012, 611.3492
793.8834, 650.5990
794.3655, 692.8808
794.8476, 737.9490
795.3297, 785.1066
795.8118, 834.5510
796.2939, 887.0564
796.7761, 943.1256
797.2582, 1002.653
797.7403, 1064.996
798.2224, 1130.623
798.7045, 1198.782
799.1866, 1268.715
799.6688, 1342.415
800.1509, 1419.522
800.6330, 1502.004
801.1151, 1592.502
801.5972, 1690.877
802.0793, 1797.917
802.5615, 1914.235
803.0436, 2038.474
803.5257, 2168.551
804.0078, 2306.179
804.4899, 2453.100
804.9720, 2609.282
805.4542, 2774.464
805.9363, 2948.718
806.4184, 3129.566
806.9005, 3313.919
807.3826, 3501.323
807.8647, 3684.950
808.3469, 3867.126
808.8290, 4030.645
809.3111, 4167.080
809.7932, 4273.890
810.2753, 4342.591
810.7574, 4370.573
811.2396, 4363.778
811.7217, 4308.994
812.2038, 4235.333
812.6859, 4146.746
813.1680, 4050.605
813.6501, 3952.781
814.1323, 3854.897
814.6144, 3765.803
815.0965, 3690.114
815.5786, 3626.520
816.0607, 3579.382
816.5428, 3542.924
817.0250, 3506.490
817.5071, 3466.150
817.9892, 3412.564
818.4713, 3338.292
818.9534, 3242.793
819.4355, 3124.362
819.9177, 2981.675
820.3998, 2820.040
820.8819, 2633.631
821.3640, 2438.731
821.8461, 2237.998
822.3282, 2037.982
822.8104, 1849.141
823.2925, 1670.939
823.7746, 1506.112
824.2567, 1354.500
824.7388, 1216.067
825.2209, 1091.328
825.7031, 979.1673
826.1852, 879.8043
826.6673, 792.8461
827.1494, 715.5515
827.6315, 647.0561
828.1136, 586.4504
828.5958, 531.8622
829.0779, 483.1353
829.5600, 439.0756
830.0421, 399.4509
830.5242, 364.4371
831.0063, 334.4678
831.4885, 308.6350
831.9706, 284.3369
832.4527, 260.9465
832.9348, 240.5874
833.4169, 224.2313
833.8990, 209.7765
834.3812, 196.9677
834.8633, 185.1145
835.3454, 173.1676
835.8275, 161.0656
836.3096, 149.7033
836.7917, 138.9408
837.2739, 129.5610
837.7560, 122.8251
838.2381, 117.3437
838.7202, 110.9881
839.2023, 103.6545
839.6844, 96.91394
840.1666, 92.00635
840.6487, 87.77960
841.1308, 82.02753
841.6129, 75.05597
842.0950, 69.13068
842.5771, 64.51105
843.0593, 60.48730
843.5414, 56.74188
844.0235, 53.23279
844.5056, 49.84814
844.9877, 46.61224
845.4698, 43.47186
845.9520, 40.54413
846.4341, 37.55896
846.9162, 34.24792
847.3983, 31.02539
847.8804, 28.21667
848.3625, 25.82825
848.8447, 23.70624
849.3268, 21.86658
849.8089, 20.18451
850.2910, 18.60321
850.7731, 17.11676
851.2552, 15.71436
851.7374, 14.39398
852.2195, 13.17053
852.7016, 12.05023
853.1837, 10.89117
853.6658, 9.481262
854.1479, 7.871277
854.6301, 6.203064
855.1122, 4.482910
855.5943, 3.079041
856.0764, 2.217957
856.5585, 1.376282
857.0406, 8.4412001E-02
857.5228, 2.065613
858.0049, 3.546509
858.4870, 4.812561
858.9691, 5.031250
859.4512, 2.812866
859.9333, 0.8907470
860.4155, 1.066589
860.8976, 2.439209
861.3797, 3.309814
861.8618, 3.368591
862.3439, 2.982788
862.8260, 1.800964
863.3082, 0.7098390
863.7903, 0.7936400
864.2724, 1.327515
864.7545, 0.8022460
865.2366, 0.9401250
865.7188, 2.437195
866.2009, 2.294739
866.6830, 1.496887
867.1651, 1.858643
867.6472, 3.318481
868.1293, 5.411926
868.6115, 8.124023
869.0936, 11.05847
869.5757, 13.90869
870.0578, 16.83228
870.5399, 20.24451
871.0220, 24.30255
871.5042, 27.95410
871.9863, 31.17157
872.4684, 34.05640
872.9505, 35.95312
873.4326, 38.10486
873.9147, 41.73108
874.3969, 46.64526
874.8790, 51.58820
875.3611, 56.35376
875.8432, 61.12402
876.3253, 65.12421
876.8074, 69.69855
877.2896, 76.22211
877.7717, 84.36743
878.2538, 93.07397
878.7359, 101.9987
879.2180, 111.6573
879.7001, 122.8730
880.1823, 134.9796
880.6644, 146.7742
881.1465, 158.3828
881.6286, 170.5247
882.1107, 183.3248
882.5928, 196.0434
883.0750, 208.1511
883.5571, 219.1031
884.0392, 226.7760
884.5213, 230.7686
885.0034, 233.9324
885.4855, 237.1647
885.9677, 237.9759
886.4498, 234.3745
886.9319, 228.1154
887.4140, 221.9008
887.8961, 215.7169
888.3782, 210.0416
888.8604, 204.4237
889.3425, 199.9943
889.8246, 197.0581
890.3067, 195.4098
890.7888, 195.3803
891.2709, 196.4747
891.7531, 197.2331
892.2352, 196.8759
892.7173, 196.9340
893.1994, 198.3762
893.6815, 200.8855
894.1636, 204.5420
894.6458, 208.8666
895.1279, 212.8340
895.6100, 216.1179
896.0921, 218.7612
896.5742, 220.4926
897.0563, 221.9218
897.5385, 224.8857
898.0206, 229.2767
898.5027, 233.7939
898.9848, 238.2625
899.4669, 242.3796
899.9490, 246.0713
900.4312, 249.0967
900.9133, 251.0031
901.3954, 251.8796
901.8775, 251.2621
902.3596, 250.0421
902.8417, 245.8312
903.3239, 236.8230
903.8060, 225.2758
904.2881, 213.0607
904.7702, 200.2177
905.2523, 186.7573
905.7344, 171.8360
906.2166, 157.4894
906.6987, 143.7699
907.1808, 131.1708
907.6629, 120.3834
908.1450, 110.8549
908.6271, 101.6716
909.1093, 92.60693
909.5914, 83.52136
910.0735, 73.56500
910.5556, 64.30713
911.0377, 58.22607
911.5198, 53.91992
912.0020, 48.25439
912.4841, 41.02570
912.9662, 34.55060
913.4483, 30.29938
913.9304, 27.53882
914.4125, 25.24957
914.8947, 23.33783
915.3768, 20.99347
915.8589, 18.17548
916.3410, 15.37305
916.8231, 12.71619
917.3052, 10.52679
917.7874, 9.188354
918.2695, 8.555237
918.7516, 7.575745
919.2337, 5.997253
919.7158, 4.711243
920.1979, 3.880859
920.6801, 3.277161
921.1622, 2.997253
921.6443, 2.734497
922.1264, 1.886658
922.6085, 0.2947390
923.0906, 0.7385250
923.5728, 0.9611210
924.0549, 0.7180180
924.5370, 0.5493160
925.0191, 1.699646
925.5012, 1.425476
925.9833, 5.5663999E-02
926.4655, 1.127197
926.9476, 1.681580
927.4297, 1.837708
927.9118, 1.603149
928.3939, 1.179932
928.8760, 0.5797120
929.3582, 2.5818000E-02
929.8403, 9.5825002E-02
930.3224, 0.8460080
930.8045, 1.519775
931.2866, 1.367737
931.7687, 1.056335
932.2509, 2.263489
932.7330, 4.469971
933.2151, 5.189697
933.6972, 4.190918
934.1793, 2.755493
934.6614, 1.429260
935.1436, 0.5649410
935.6257, 0.8638920
936.1078, 2.221619
936.5899, 2.381714
937.0720, 0.8998410
937.5541, 5.0841998E-02
938.0363, 0.5067750
938.5184, 1.282349
939.0005, 1.806030
939.4826, 2.064209
939.9647, 2.006592
940.4468, 1.548889
940.9290, 1.017029
941.4111, 0.1434330
941.8932, 0.4543460
942.3753, 0.4398190
942.8574, 0.1910400
943.3395, 7.4219003E-02
943.8217, 0.2716670
944.3038, 9.7594999E-02
944.7859, 0.8282470
945.2680, 1.545715
945.7501, 1.572937
946.2322, 1.393005
946.7144, 1.237305
947.1965, 1.200623
947.6786, 1.444092
948.1607, 1.955444
948.6428, 2.373535
949.1249, 2.346680
949.6071, 2.293213
950.0892, 2.841370
950.5713, 3.552368
951.0534, 3.437927
951.5355, 2.709106
952.0176, 2.697327
952.4998, 3.976379
952.9819, 5.340759
953.4640, 5.142273
953.9461, 3.996948
954.4282, 3.850098
954.9103, 4.573853
955.3925, 5.288635
955.8746, 5.809082
956.3567, 5.838806
956.8388, 5.090454
957.3209, 4.010803
957.8030, 3.538269
958.2852, 3.703369
958.7673, 4.235657
959.2494, 5.370850
959.7315, 5.853210
960.2136, 4.960083
960.6957, 3.990845
961.1779, 4.315369
961.6600, 5.632446
962.1421, 6.277222
962.6242, 5.557190
963.1063, 5.562866
963.5884, 7.039551
964.0706, 8.331848
964.5527, 8.674988
965.0348, 8.628174
965.5169, 8.855530
965.9990, 9.334167
966.4811, 9.490479
966.9633, 9.001648
967.4454, 8.526428
967.9275, 7.986572
968.4096, 7.717896
968.8917, 7.988770
969.3738, 8.662598
969.8560, 9.696777
970.3381, 11.04047
970.8202, 11.82117
971.3023, 11.01123
971.7844, 10.20599
972.2665, 10.63959
972.7487, 11.54938
973.2308, 12.01202
973.7129, 12.09875
974.1950, 12.25397
974.6771, 12.65088
975.1592, 13.49628
975.6414, 15.40308
976.1235, 17.55383
976.6056, 18.67255
977.0877, 19.13184
977.5698, 19.88489
978.0519, 21.03241
978.5341, 21.94208
979.0162, 22.19702
979.4983, 22.51575
979.9804, 24.13263
980.4625, 26.67780
980.9446, 28.83911
981.4268, 30.62866
981.9089, 31.93524
982.3910, 32.75781
982.8731, 34.21545
983.3552, 37.26721
983.8373, 41.39661
984.3195, 45.47437
984.8016, 49.52924
985.2837, 53.24591
985.7658, 56.32788
986.2479, 61.16846
986.7300, 69.33423
987.2122, 77.53198
987.6943, 82.74554
988.1764, 84.98682
988.6585, 84.60651
989.1406, 81.46991
989.6227, 76.14362
990.1049, 67.26953
990.5870, 58.31152
991.0691, 50.43915
991.5512, 43.74304
992.0333, 38.34387
992.5154, 34.22632
992.9976, 30.34943
993.4797, 26.38898
993.9618, 22.91449
994.4439, 19.83899
994.9260, 17.63245
995.4081, 16.79108
995.8903, 16.59906
996.3724, 16.26971
996.8545, 15.75824
997.3366, 15.13623
997.8187, 14.47528
998.3008, 13.68579
998.7830, 12.39136
999.2651, 11.31335
999.7472, 11.08801
1000.229, 11.32355
1000.711, 11.45953
1001.194, 11.37158
1001.676, 10.81293
1002.158, 9.101013
1002.640, 7.669373
1003.122, 7.613831
1003.604, 7.950317
1004.086, 7.591736
1004.568, 6.772705
1005.050, 6.364258
1005.533, 6.642395
1006.015, 6.895569
1006.497, 6.327454
1006.979, 5.767700
1007.461, 6.389160
1007.943, 7.398438
1008.425, 7.287476
1008.907, 6.261658
1009.390, 5.800781
1009.872, 6.560059
1010.354, 7.492676
1010.836, 7.465576
1011.318, 6.928467
1011.800, 6.463074
1012.282, 6.174622
1012.764, 6.248474
1013.246, 6.719055
1013.729, 7.755249
1014.211, 9.467896
1014.693, 11.01727
1015.175, 11.25098
1015.657, 10.48120
1016.139, 9.325378
1016.621, 7.966064
1017.103, 7.336487
1017.586, 7.573486
1018.068, 8.167053
1018.550, 8.847595
1019.032, 9.408203
1019.514, 9.314758
1019.996, 8.702087
1020.478, 8.598694
1020.960, 9.009521
1021.442, 9.832703
1021.925, 11.04987
1022.407, 12.44513
1022.889, 13.94409
1023.371, 15.23901
1023.853, 15.66290
1024.335, 15.20233
1024.817, 14.46021
1025.299, 13.30829
1025.781, 12.92786
1026.264, 13.78009
1026.746, 14.68604
1027.228, 14.71075
1027.710, 14.29437
1028.192, 14.53418
1028.674, 15.53894
1029.156, 16.28168
1029.638, 16.78455
1030.120, 16.91107
1030.603, 16.53882
1031.085, 15.91931
1031.567, 15.10919
1032.049, 14.33057
1032.531, 14.16736
1033.013, 14.68030
1033.495, 15.65741
1033.977, 17.83527
1034.460, 18.86969
1034.942, 17.76776
1035.424, 15.93555
1035.906, 14.09723
1036.388, 12.51465
1036.870, 12.04114
1037.352, 13.28162
1037.834, 13.48755
1038.317, 11.53998
1038.799, 10.29120
1039.281, 11.08862
1039.763, 12.10553
1040.245, 11.74121
1040.727, 10.54639
1041.209, 10.14752
1041.691, 10.95209
1042.173, 11.24737
1042.656, 10.70160
1043.138, 10.04846
1043.620, 9.394653
1044.102, 8.767883
1044.584, 8.019897
1045.066, 7.322632
1045.548, 7.189148
1046.030, 7.749390
1046.512, 8.483582
1046.995, 10.10657
1047.477, 10.88300
1047.959, 9.376831
1048.441, 7.671936
1048.923, 7.736328
1049.405, 8.828552
1049.887, 8.944946
1050.369, 7.616211
1050.852, 6.550110
1051.334, 5.775757
1051.816, 5.703186
1052.298, 7.372864
1052.780, 8.967041
1053.262, 8.721069
1053.744, 7.343872
1054.226, 6.662598
1054.708, 7.026428
1055.191, 7.160278
1055.673, 6.266907
1056.155, 5.673889
1056.637, 6.014771
1057.119, 6.822205
1057.601, 7.996704
1058.083, 9.125854
1058.565, 9.211426
1059.047, 7.971802
1059.530, 7.627563
1060.012, 10.22351
1060.494, 12.20282
1060.976, 11.65485
1061.458, 10.24432
1061.940, 8.893127
1062.422, 7.896667
1062.904, 7.598816
1063.387, 8.054626
1063.869, 8.286621
1064.351, 8.039673
1064.833, 7.351501
1065.315, 5.577271
1065.797, 3.998718
1066.279, 3.980713
1066.761, 4.812378
1067.244, 5.102417
1067.726, 4.639587
1068.208, 4.357178
1068.690, 4.815674
1069.172, 5.268677
1069.654, 5.435303
1070.136, 5.409119
1070.618, 5.206909
1071.100, 4.891907
1071.583, 4.406982
1072.065, 3.832153
1072.547, 3.745239
1073.029, 4.782532
1073.511, 5.655396
1073.993, 5.705872
1074.475, 5.402161
1074.957, 4.890198
1075.439, 4.390015
1075.922, 4.227966
1076.404, 4.375732
1076.886, 4.402100
1077.368, 4.022156
1077.850, 3.803345
1078.332, 4.352478
1078.814, 4.799622
1079.297, 4.277039
1079.779, 3.411560
1080.261, 3.058838
1080.743, 3.227112
1081.225, 3.449829
1081.707, 3.599976
1082.189, 3.689331
1082.671, 3.525269
1083.153, 3.523926
1083.635, 4.082703
1084.118, 4.873840
1084.600, 5.825256
1085.082, 6.637085
1085.564, 6.436829
1086.046, 4.779480
1086.528, 3.237793
1087.010, 2.051697
1087.492, 1.674927
1087.975, 3.243042
1088.457, 5.038452
1088.939, 5.155823
1089.421, 4.079102
1089.903, 3.363342
1090.385, 3.386475
1090.867, 3.458679
1091.349, 3.574402
1091.832, 3.353088
1092.314, 2.328247
1092.796, 1.158813
1093.278, 0.1804200
1093.760, 0.4256590
1094.242, 0.3303220
1094.724, 0.5111080
1095.206, 1.467224
1095.688, 2.646973
1096.171, 3.460083
1096.653, 3.643372
1097.135, 3.466370
1097.617, 2.810669
1098.099, 2.072632
1098.581, 1.831726
1099.063, 2.114502
1099.545, 2.468750
1100.027, 3.228882
1100.510, 3.297302
1100.992, 1.597961
1101.474, 4.8705999E-02
1101.956, 0.3858640
1102.438, 5.9997998E-02
1102.920, 0.8897090
1103.402, 2.225525
1103.884, 3.019775
1104.367, 2.892883
1104.849, 2.805969
1105.331, 3.148071
1105.813, 3.272278
1106.295, 2.731506
1106.777, 2.034424
1107.259, 1.681213
1107.741, 1.550049
1108.224, 1.147339
1108.706, 0.1905520
1109.188, 5.3162001E-02
1109.670, 1.649109
1110.152, 2.516907
1110.634, 1.226868
1111.116, 0.3961180
1111.598, 1.447449
1112.080, 1.891113
1112.563, 1.407898
1113.045, 0.2206420
1113.527, 0.7446290
1114.009, 0.7734990
1114.491, 1.869202
1114.973, 2.251221
1115.455, 2.229309
1115.937, 1.657166
1116.419, 1.001465
1116.902, 0.8880000
1117.384, 1.269653
1117.866, 1.657166
1118.348, 2.410034
1118.830, 2.276917
1119.312, 0.7521970
1119.794, 0.7546390
1120.276, 1.864075
1120.759, 2.566772
1121.241, 2.791992
1121.723, 2.630615
1122.205, 2.403015
1122.687, 2.080444
1123.169, 1.794922
1123.651, 1.532898
1124.133, 1.332153
1124.615, 1.242493
1125.098, 1.060547
1125.580, 0.5515750
1126.062, 5.0048999E-02
1126.544, 0.2719120
1127.026, 0.4982300
1127.508, 0.9880370
1127.990, 1.963013
1128.472, 2.607117
1128.954, 3.961060
1129.437, 5.007141
1129.919, 5.244385
1130.401, 4.950989
1130.883, 4.376404
1131.365, 3.663086
1131.847, 3.510742
1132.329, 3.868469
1132.811, 3.607788
1133.294, 2.673462
1133.776, 2.565979
1134.258, 3.788269
1134.740, 4.812744
1135.222, 4.290466
1135.704, 3.071045
1136.186, 2.863220
1136.668, 3.401123
1137.151, 3.560791
1137.633, 3.436462
1138.115, 3.821960
1138.597, 4.756958
1139.079, 5.090149
1139.561, 4.159912
1140.043, 3.217773
1140.525, 4.223328
1141.007, 3.572754
1141.490, 3.639282
1141.972, 4.015869
1142.454, 3.655701
1142.936, 4.329407
1143.418, 4.486023
1143.900, 3.674133
1144.382, 3.116089
1144.864, 3.908142
1145.346, 5.027283
1145.829, 5.581055
1146.311, 5.663086
1146.793, 5.101074
1147.275, 4.273438
1147.757, 3.808411
1148.239, 3.825806
1148.721, 4.354614
1149.203, 5.707764
1149.686, 6.179016
1150.168, 3.568237
1150.650, 0.9201050
1151.132, 0.6871950
1151.614, 1.481750
1152.096, 1.675598
1152.578, 1.486206
1153.060, 2.111694
1153.542, 3.866699
1154.025, 4.752197
1154.507, 3.069519
1154.989, 1.798279
1155.471, 2.298767
1155.953, 3.180420
1156.435, 3.686462
1156.917, 3.913208
1157.399, 4.073486
1157.881, 4.164429
1158.364, 4.031677
1158.846, 3.370667
1159.328, 3.006348
1159.810, 3.198120
1160.292, 3.427307
1160.774, 3.584412
1161.256, 3.664856
1161.738, 3.595154
1162.221, 3.477600
1162.703, 3.592773
1163.185, 3.984131
1163.667, 4.321655
1164.149, 4.732605
1164.631, 4.603271
1165.113, 3.460510
1165.595, 2.969482
1166.078, 4.230896
1166.560, 5.841431
1167.042, 5.989197
1167.524, 5.066528
1168.006, 4.886963
1168.488, 5.394226
1168.970, 5.797058
1169.452, 6.076111
1169.934, 6.248657
1170.417, 6.366943
1170.899, 6.541199
1171.381, 6.892212
1171.863, 6.944092
1172.345, 5.435974
1172.827, 3.103333
1173.309, 2.732605
1173.791, 3.815125
1174.273, 4.295044
1174.756, 3.928284
1175.238, 3.297241
1175.720, 2.667358
1176.202, 2.127930
1176.684, 1.771729
1177.166, 1.813110
1177.648, 2.680664
1178.130, 3.718628
1178.613, 3.981873
1179.095, 3.689758
1179.577, 2.941772
1180.059, 2.178711
1180.541, 3.205383
1181.023, 7.309326
1181.505, 10.03461
1181.987, 7.373352
1182.469, 4.002319
1182.952, 2.576599
1183.434, 2.353760
1183.916, 3.124695
1184.398, 4.217957
1184.880, 4.457520
1185.362, 3.699402
1185.844, 3.023315
1186.326, 2.479553
1186.808, 2.340942
1187.291, 3.052795
1187.773, 3.676453
1188.255, 3.715332
1188.737, 3.554443
1189.219, 3.705933
1189.701, 3.923157
1190.183, 3.285156
1190.665, 3.477417
1191.148, 3.732849
1191.630, 3.047607
1192.112, 4.292664
1192.594, 3.787476
1193.076, 3.373352
1193.558, 4.156372
1194.040, 5.349915
1194.522, 6.039917
1195.005, 6.177307
1195.487, 5.319946
1195.969, 3.566101
1196.451, 2.576538
1196.933, 2.372559
1197.415, 2.731079
1197.897, 3.545837
1198.379, 4.065918
1198.861, 3.741211
1199.344, 3.708679
1199.826, 6.289551
1200.308, 9.730713
1200.790, 10.03925
1201.272, 8.543396
1201.754, 8.280579
1202.236, 9.038635
1202.718, 8.752502
1203.200, 7.068542
1203.683, 6.269531
1204.165, 8.232483
1204.647, 10.03821
1205.129, 9.377075
1205.611, 7.753540
1206.093, 5.867920
1206.575, 4.211792
1207.057, 3.297974
1207.540, 3.057678
1208.022, 3.278320
1208.504, 3.972351
1208.986, 4.271484
1209.468, 3.833618
1209.950, 3.190735
1210.432, 2.141907
1210.914, 1.282227
1211.396, 1.078552
1211.879, 1.064148
1212.361, 0.7103880
1212.843, 0.5932010
1213.325, 0.5145260
1213.807, 0.2483520
1214.289, 0.3745730
1214.771, 0.2905270
1215.253, 0.1820680
1215.735, 3.6132999E-02
1216.218, 0.2032470
1216.700, 0.3865360
1217.182, 1.598206
1217.664, 1.023804
1218.146, 1.572449
1218.628, 1.870483
1219.110, 1.677795
1219.592, 2.512268
1220.075, 2.674927
1220.557, 2.539734
1221.039, 2.254395
1221.521, 1.812378
1222.003, 1.195557
1222.485, 0.7729490
1222.967, 1.194397
1223.449, 1.723999
1223.932, 1.565552
1224.414, 0.9666750
1224.896, 0.1447750
1225.378, 1.241760
1225.860, 1.232056
1226.342, 0.1648560
1226.824, 0.4005130
1227.306, 0.3549800
1227.788, 0.8365480
1228.271, 0.1873780
1228.753, 0.4257200
1229.235, 0.4190670
1229.717, 0.2524410
1230.199, 0.1845090
1230.681, 0.2791140
1231.163, 0.6896970
1231.645, 1.400879
1232.127, 1.858765
1232.610, 1.935364
1233.092, 2.148315
1233.574, 2.565308
1234.056, 3.025269
1234.538, 3.568115
1235.020, 3.716614
1235.502, 3.068054
1235.984, 2.049805
1236.467, 1.379578
1236.949, 0.9985960
1237.431, 0.4119870
1237.913, 1.108643
1238.395, 0.8638310
1238.877, 3.173401
1239.359, 5.551270
1239.841, 7.474365
1240.323, 8.419800
1240.806, 7.953003
1241.288, 6.862122
1241.770, 5.527771
1242.252, 4.317566
1242.734, 3.451782
1243.216, 3.025940
1243.698, 2.951172
1244.180, 3.466858
1244.662, 5.504883
1245.145, 9.008667
1245.627, 11.29315
1246.109, 11.46259
1246.591, 10.74884
1247.073, 8.807678
1247.555, 6.736023
1248.037, 4.775024
1248.519, 2.965210
1249.002, 1.115845
1249.484, 0.3405760
1249.966, 0.4620360
1250.448, 0.6390380
1250.930, 1.092102
1251.412, 0.8197630
1251.894, 0.7358400
1252.376, 0.9121700
1252.859, 0.6815190
1253.341, 0.1309810
1253.823, 0.2714840
1254.305, 0.9581910
1254.787, 2.843689
1255.269, 3.104736
1255.751, 2.669556
1256.233, 2.500610
1256.715, 2.518677
1257.198, 2.704651
1257.680, 2.990234
1258.162, 3.365479
1258.644, 3.721619
1259.126, 3.504639
1259.608, 2.283325
1260.090, 1.205017
1260.572, 0.7985230
1261.054, 0.7604980
1261.537, 1.051331
1262.019, 1.504211
1262.501, 2.104675
1262.983, 2.727661
1263.465, 3.057495
1263.947, 3.192383
1264.429, 3.899597
1264.911, 5.111511
1265.394, 7.480164
1265.876, 11.78448
1266.358, 13.01538
1266.840, 10.45837
1267.322, 7.326538
1267.804, 5.501526
1268.286, 4.207581
1268.768, 3.594055
1269.250, 3.258789
1269.733, 2.839355
1270.215, 2.567505
1270.697, 2.700500
1271.179, 3.590942
1271.661, 7.286316
1272.143, 12.67908
1272.625, 14.32996
1273.107, 10.16925
1273.589, 5.473633
1274.072, 2.817200
1274.554, 1.253235
1275.036, 0.7238160
1275.518, 0.6702880
1276.000, 1.056580
1276.482, 1.423767
1276.964, 0.7294920
1277.446, 0.1699220
1277.929, 1.516724
1278.411, 6.325623
1278.893, 8.051270
1279.375, 5.739014
1279.857, 3.976135
1280.339, 2.769287
1280.821, 1.966492
1281.303, 0.6461790
1281.786, 3.1740000E-03
1282.268, 0.0000000E+00
##END=



