##NAMES=Mikenewite
##RRUFFID=R210021
##IDEAL CHEMISTRY=Mn^2+^(S^4+^O_3_)&#183;3H_2_O
##LOCALITY=Ojuela mine, Mapimí, Municipio de Mapimí, Durango, Mexico
##OWNER=RRUFF
##SOURCE=Bob Jenkins
##DESCRIPTION=Yellowish spheres, associated with adamite and lotharmeyerite, type sample
##STATUS=The identification of this mineral is confirmed by single-crystal X-ray diffraction and chemical analysis.
##URL=rruff.info/R210021
##MEASURED CHEMISTRY=(Mn_0.85_Zn_0.11_Fe_0.04_Ca_0.02_)S_0.99_O_3_·3H_2_O ;  The sample is prone to the electron beam damage, but it did not seem to affect the relative proportions of cations. 
8.758203e+001, 7.270782e+002
8.806415e+001, 7.262719e+002
8.854626e+001, 7.261732e+002
8.902838e+001, 7.268575e+002
8.951050e+001, 7.279708e+002
8.999261e+001, 7.295710e+002
9.047473e+001, 7.315734e+002
9.095685e+001, 7.336205e+002
9.143896e+001, 7.355529e+002
9.192108e+001, 7.373107e+002
9.240320e+001, 7.381755e+002
9.288531e+001, 7.282060e+002
9.336743e+001, 7.050974e+002
9.384955e+001, 6.755773e+002
9.433167e+001, 6.512268e+002
9.481378e+001, 6.273073e+002
9.529590e+001, 6.045680e+002
9.577802e+001, 5.831137e+002
9.626013e+001, 5.632882e+002
9.674225e+001, 5.445363e+002
9.722437e+001, 5.266646e+002
9.770648e+001, 5.115659e+002
9.818860e+001, 5.004033e+002
9.867072e+001, 4.907871e+002
9.915283e+001, 4.816969e+002
9.963495e+001, 4.728856e+002
1.001171e+002, 4.643826e+002
1.005992e+002, 4.562116e+002
1.010813e+002, 4.478604e+002
1.015634e+002, 4.407029e+002
1.020455e+002, 4.346122e+002
1.025277e+002, 4.292166e+002
1.030098e+002, 4.243919e+002
1.034919e+002, 4.200381e+002
1.039740e+002, 4.158896e+002
1.044561e+002, 4.111977e+002
1.049382e+002, 4.051618e+002
1.054204e+002, 3.993587e+002
1.059025e+002, 3.937186e+002
1.063846e+002, 3.883956e+002
1.068667e+002, 3.837824e+002
1.073488e+002, 3.802184e+002
1.078309e+002, 3.775265e+002
1.083131e+002, 3.742401e+002
1.087952e+002, 3.692218e+002
1.092773e+002, 3.646268e+002
1.097594e+002, 3.620227e+002
1.102415e+002, 3.613448e+002
1.107236e+002, 3.609263e+002
1.112058e+002, 3.592365e+002
1.116879e+002, 3.567547e+002
1.121700e+002, 3.550520e+002
1.126521e+002, 3.547857e+002
1.131342e+002, 3.553880e+002
1.136163e+002, 3.558645e+002
1.140985e+002, 3.559280e+002
1.145806e+002, 3.564258e+002
1.150627e+002, 3.582594e+002
1.155448e+002, 3.609491e+002
1.160269e+002, 3.633744e+002
1.165090e+002, 3.645590e+002
1.169912e+002, 3.645341e+002
1.174733e+002, 3.650031e+002
1.179554e+002, 3.668490e+002
1.184375e+002, 3.684945e+002
1.189196e+002, 3.688047e+002
1.194017e+002, 3.680545e+002
1.198839e+002, 3.675821e+002
1.203660e+002, 3.691515e+002
1.208481e+002, 3.739831e+002
1.213302e+002, 3.778373e+002
1.218123e+002, 3.805687e+002
1.222944e+002, 3.826485e+002
1.227766e+002, 3.845148e+002
1.232587e+002, 3.862366e+002
1.237408e+002, 3.874520e+002
1.242229e+002, 3.874635e+002
1.247050e+002, 3.851517e+002
1.251871e+002, 3.829592e+002
1.256693e+002, 3.811667e+002
1.261514e+002, 3.794419e+002
1.266335e+002, 3.773732e+002
1.271156e+002, 3.747618e+002
1.275977e+002, 3.717239e+002
1.280798e+002, 3.686521e+002
1.285620e+002, 3.662160e+002
1.290441e+002, 3.628068e+002
1.295262e+002, 3.577650e+002
1.300083e+002, 3.511967e+002
1.304904e+002, 3.434536e+002
1.309725e+002, 3.339475e+002
1.314547e+002, 3.237496e+002
1.319368e+002, 3.150782e+002
1.324189e+002, 3.082891e+002
1.329010e+002, 3.027529e+002
1.333831e+002, 2.982892e+002
1.338652e+002, 2.951900e+002
1.343474e+002, 2.916297e+002
1.348295e+002, 2.854305e+002
1.353116e+002, 2.786172e+002
1.357937e+002, 2.734815e+002
1.362758e+002, 2.712649e+002
1.367579e+002, 2.710137e+002
1.372401e+002, 2.702602e+002
1.377222e+002, 2.687298e+002
1.382043e+002, 2.670641e+002
1.386864e+002, 2.656221e+002
1.391685e+002, 2.641883e+002
1.396507e+002, 2.623879e+002
1.401328e+002, 2.598799e+002
1.406149e+002, 2.566924e+002
1.410970e+002, 2.540556e+002
1.415791e+002, 2.526745e+002
1.420612e+002, 2.512133e+002
1.425434e+002, 2.490550e+002
1.430255e+002, 2.464621e+002
1.435076e+002, 2.441598e+002
1.439897e+002, 2.428611e+002
1.444718e+002, 2.428022e+002
1.449539e+002, 2.424616e+002
1.454361e+002, 2.416874e+002
1.459182e+002, 2.408204e+002
1.464003e+002, 2.400177e+002
1.468824e+002, 2.393082e+002
1.473645e+002, 2.386497e+002
1.478466e+002, 2.379583e+002
1.483288e+002, 2.371417e+002
1.488109e+002, 2.367524e+002
1.492930e+002, 2.371038e+002
1.497751e+002, 2.377473e+002
1.502572e+002, 2.383604e+002
1.507393e+002, 2.389241e+002
1.512215e+002, 2.391277e+002
1.517036e+002, 2.380116e+002
1.521857e+002, 2.355754e+002
1.526678e+002, 2.340101e+002
1.531499e+002, 2.350268e+002
1.536320e+002, 2.374761e+002
1.541142e+002, 2.383882e+002
1.545963e+002, 2.365350e+002
1.550784e+002, 2.336121e+002
1.555605e+002, 2.314557e+002
1.560426e+002, 2.300657e+002
1.565247e+002, 2.288520e+002
1.570069e+002, 2.271884e+002
1.574890e+002, 2.250981e+002
1.579711e+002, 2.238034e+002
1.584532e+002, 2.242080e+002
1.589353e+002, 2.250789e+002
1.594174e+002, 2.256567e+002
1.598996e+002, 2.258412e+002
1.603817e+002, 2.259170e+002
1.608638e+002, 2.260500e+002
1.613459e+002, 2.259861e+002
1.618280e+002, 2.268992e+002
1.623102e+002, 2.299947e+002
1.627923e+002, 2.333806e+002
1.632744e+002, 2.355785e+002
1.637565e+002, 2.362214e+002
1.642386e+002, 2.363002e+002
1.647207e+002, 2.377560e+002
1.652029e+002, 2.416213e+002
1.656850e+002, 2.452840e+002
1.661671e+002, 2.479331e+002
1.666492e+002, 2.505761e+002
1.671313e+002, 2.543642e+002
1.676134e+002, 2.597587e+002
1.680956e+002, 2.661054e+002
1.685777e+002, 2.714962e+002
1.690598e+002, 2.752258e+002
1.695419e+002, 2.787254e+002
1.700240e+002, 2.815701e+002
1.705061e+002, 2.843589e+002
1.709883e+002, 2.881292e+002
1.714704e+002, 2.935258e+002
1.719525e+002, 2.999677e+002
1.724346e+002, 3.048929e+002
1.729167e+002, 3.077403e+002
1.733988e+002, 3.101443e+002
1.738810e+002, 3.123409e+002
1.743631e+002, 3.144258e+002
1.748452e+002, 3.167761e+002
1.753273e+002, 3.198772e+002
1.758094e+002, 3.231518e+002
1.762915e+002, 3.247336e+002
1.767737e+002, 3.240959e+002
1.772558e+002, 3.225435e+002
1.777379e+002, 3.209362e+002
1.782200e+002, 3.192179e+002
1.787021e+002, 3.166209e+002
1.791842e+002, 3.121567e+002
1.796664e+002, 3.066661e+002
1.801485e+002, 3.018673e+002
1.806306e+002, 2.984038e+002
1.811127e+002, 2.951828e+002
1.815948e+002, 2.907434e+002
1.820769e+002, 2.847479e+002
1.825591e+002, 2.794508e+002
1.830412e+002, 2.762216e+002
1.835233e+002, 2.743188e+002
1.840054e+002, 2.732853e+002
1.844875e+002, 2.733455e+002
1.849696e+002, 2.737921e+002
1.854518e+002, 2.732191e+002
1.859339e+002, 2.711271e+002
1.864160e+002, 2.691208e+002
1.868981e+002, 2.676582e+002
1.873802e+002, 2.666328e+002
1.878623e+002, 2.659590e+002
1.883445e+002, 2.656165e+002
1.888266e+002, 2.655788e+002
1.893087e+002, 2.658091e+002
1.897908e+002, 2.667096e+002
1.902729e+002, 2.673035e+002
1.907550e+002, 2.666375e+002
1.912372e+002, 2.657085e+002
1.917193e+002, 2.660394e+002
1.922014e+002, 2.687171e+002
1.926835e+002, 2.732272e+002
1.931656e+002, 2.760346e+002
1.936477e+002, 2.750090e+002
1.941299e+002, 2.742820e+002
1.946120e+002, 2.746646e+002
1.950941e+002, 2.758054e+002
1.955762e+002, 2.770862e+002
1.960583e+002, 2.781241e+002
1.965404e+002, 2.789144e+002
1.970226e+002, 2.793390e+002
1.975047e+002, 2.796767e+002
1.979868e+002, 2.794027e+002
1.984689e+002, 2.779107e+002
1.989510e+002, 2.756363e+002
1.994331e+002, 2.735445e+002
1.999153e+002, 2.723183e+002
2.003974e+002, 2.719389e+002
2.008795e+002, 2.715014e+002
2.013616e+002, 2.710578e+002
2.018437e+002, 2.705208e+002
2.023258e+002, 2.701390e+002
2.028080e+002, 2.697195e+002
2.032901e+002, 2.685840e+002
2.037722e+002, 2.661192e+002
2.042543e+002, 2.623764e+002
2.047364e+002, 2.587897e+002
2.052185e+002, 2.553380e+002
2.057007e+002, 2.520429e+002
2.061828e+002, 2.491111e+002
2.066649e+002, 2.464890e+002
2.071470e+002, 2.436888e+002
2.076291e+002, 2.403178e+002
2.081112e+002, 2.364591e+002
2.085934e+002, 2.326502e+002
2.090755e+002, 2.286313e+002
2.095576e+002, 2.248645e+002
2.100397e+002, 2.219943e+002
2.105218e+002, 2.200571e+002
2.110039e+002, 2.180143e+002
2.114861e+002, 2.148997e+002
2.119682e+002, 2.112248e+002
2.124503e+002, 2.080047e+002
2.129324e+002, 2.056091e+002
2.134145e+002, 2.036355e+002
2.138967e+002, 2.013842e+002
2.143788e+002, 1.986220e+002
2.148609e+002, 1.966803e+002
2.153430e+002, 1.975217e+002
2.158251e+002, 1.993900e+002
2.163072e+002, 2.000369e+002
2.167894e+002, 1.982961e+002
2.172715e+002, 1.954077e+002
2.177536e+002, 1.934493e+002
2.182357e+002, 1.925819e+002
2.187178e+002, 1.922421e+002
2.191999e+002, 1.926799e+002
2.196821e+002, 1.933111e+002
2.201642e+002, 1.933759e+002
2.206463e+002, 1.923858e+002
2.211284e+002, 1.909082e+002
2.216105e+002, 1.903520e+002
2.220926e+002, 1.914414e+002
2.225748e+002, 1.919859e+002
2.230569e+002, 1.906659e+002
2.235390e+002, 1.887592e+002
2.240211e+002, 1.877693e+002
2.245032e+002, 1.884974e+002
2.249853e+002, 1.902785e+002
2.254675e+002, 1.912067e+002
2.259496e+002, 1.904725e+002
2.264317e+002, 1.901611e+002
2.269138e+002, 1.904127e+002
2.273959e+002, 1.913521e+002
2.278780e+002, 1.932530e+002
2.283602e+002, 1.963018e+002
2.288423e+002, 2.001163e+002
2.293244e+002, 2.034992e+002
2.298065e+002, 2.063976e+002
2.302886e+002, 2.088326e+002
2.307707e+002, 2.107432e+002
2.312529e+002, 2.122699e+002
2.317350e+002, 2.135338e+002
2.322171e+002, 2.145882e+002
2.326992e+002, 2.154856e+002
2.331813e+002, 2.163852e+002
2.336634e+002, 2.168566e+002
2.341456e+002, 2.179009e+002
2.346277e+002, 2.202263e+002
2.351098e+002, 2.229351e+002
2.355919e+002, 2.250478e+002
2.360740e+002, 2.261175e+002
2.365561e+002, 2.263217e+002
2.370383e+002, 2.261708e+002
2.375204e+002, 2.249754e+002
2.380025e+002, 2.242352e+002
2.384846e+002, 2.245395e+002
2.389667e+002, 2.251838e+002
2.394488e+002, 2.252820e+002
2.399310e+002, 2.244565e+002
2.404131e+002, 2.230262e+002
2.408952e+002, 2.217841e+002
2.413773e+002, 2.207766e+002
2.418594e+002, 2.198883e+002
2.423415e+002, 2.194215e+002
2.428237e+002, 2.189769e+002
2.433058e+002, 2.179518e+002
2.437879e+002, 2.160868e+002
2.442700e+002, 2.138027e+002
2.447521e+002, 2.119980e+002
2.452342e+002, 2.109772e+002
2.457164e+002, 2.097879e+002
2.461985e+002, 2.082878e+002
2.466806e+002, 2.065324e+002
2.471627e+002, 2.046278e+002
2.476448e+002, 2.026062e+002
2.481269e+002, 2.003637e+002
2.486091e+002, 1.974624e+002
2.490912e+002, 1.934299e+002
2.495733e+002, 1.903993e+002
2.500554e+002, 1.895157e+002
2.505375e+002, 1.896703e+002
2.510196e+002, 1.891960e+002
2.515018e+002, 1.876083e+002
2.519839e+002, 1.855413e+002
2.524660e+002, 1.838854e+002
2.529481e+002, 1.826435e+002
2.534302e+002, 1.814147e+002
2.539123e+002, 1.801310e+002
2.543945e+002, 1.787965e+002
2.548766e+002, 1.773077e+002
2.553587e+002, 1.755556e+002
2.558408e+002, 1.739747e+002
2.563229e+002, 1.732144e+002
2.568051e+002, 1.731558e+002
2.572872e+002, 1.732328e+002
2.577693e+002, 1.738037e+002
2.582514e+002, 1.742709e+002
2.587335e+002, 1.734319e+002
2.592156e+002, 1.708503e+002
2.596978e+002, 1.679769e+002
2.601799e+002, 1.662365e+002
2.606620e+002, 1.653452e+002
2.611441e+002, 1.646159e+002
2.616262e+002, 1.638391e+002
2.621083e+002, 1.630887e+002
2.625905e+002, 1.625006e+002
2.630726e+002, 1.621183e+002
2.635547e+002, 1.617776e+002
2.640368e+002, 1.615880e+002
2.645189e+002, 1.613643e+002
2.650010e+002, 1.606342e+002
2.654832e+002, 1.589830e+002
2.659653e+002, 1.568450e+002
2.664474e+002, 1.547269e+002
2.669295e+002, 1.524863e+002
2.674116e+002, 1.508302e+002
2.678937e+002, 1.507523e+002
2.683759e+002, 1.514412e+002
2.688580e+002, 1.518277e+002
2.693401e+002, 1.515775e+002
2.698222e+002, 1.508830e+002
2.703043e+002, 1.497695e+002
2.707864e+002, 1.479911e+002
2.712686e+002, 1.468633e+002
2.717507e+002, 1.477854e+002
2.722328e+002, 1.494567e+002
2.727149e+002, 1.505529e+002
2.731970e+002, 1.506608e+002
2.736791e+002, 1.502103e+002
2.741613e+002, 1.497140e+002
2.746434e+002, 1.491644e+002
2.751255e+002, 1.485839e+002
2.756076e+002, 1.477862e+002
2.760897e+002, 1.470573e+002
2.765718e+002, 1.467215e+002
2.770540e+002, 1.469031e+002
2.775361e+002, 1.471544e+002
2.780182e+002, 1.468541e+002
2.785003e+002, 1.458919e+002
2.789824e+002, 1.451551e+002
2.794645e+002, 1.451280e+002
2.799467e+002, 1.452495e+002
2.804288e+002, 1.453084e+002
2.809109e+002, 1.452563e+002
2.813930e+002, 1.447856e+002
2.818751e+002, 1.433422e+002
2.823572e+002, 1.408170e+002
2.828394e+002, 1.387061e+002
2.833215e+002, 1.376462e+002
2.838036e+002, 1.367606e+002
2.842857e+002, 1.354645e+002
2.847678e+002, 1.337970e+002
2.852499e+002, 1.322541e+002
2.857321e+002, 1.314761e+002
2.862142e+002, 1.314953e+002
2.866963e+002, 1.309902e+002
2.871784e+002, 1.296057e+002
2.876605e+002, 1.279276e+002
2.881426e+002, 1.259032e+002
2.886248e+002, 1.237596e+002
2.891069e+002, 1.221212e+002
2.895890e+002, 1.217088e+002
2.900711e+002, 1.223886e+002
2.905532e+002, 1.224426e+002
2.910353e+002, 1.214064e+002
2.915175e+002, 1.202685e+002
2.919996e+002, 1.194659e+002
2.924817e+002, 1.188498e+002
2.929638e+002, 1.181133e+002
2.934459e+002, 1.170229e+002
2.939280e+002, 1.156794e+002
2.944102e+002, 1.145685e+002
2.948923e+002, 1.137804e+002
2.953744e+002, 1.131037e+002
2.958565e+002, 1.125698e+002
2.963386e+002, 1.120633e+002
2.968207e+002, 1.113865e+002
2.973029e+002, 1.103977e+002
2.977850e+002, 1.093253e+002
2.982671e+002, 1.087888e+002
2.987492e+002, 1.090921e+002
2.992313e+002, 1.093394e+002
2.997134e+002, 1.093708e+002
3.001956e+002, 1.092415e+002
3.006777e+002, 1.089171e+002
3.011598e+002, 1.083801e+002
3.016419e+002, 1.078583e+002
3.021240e+002, 1.078589e+002
3.026061e+002, 1.087517e+002
3.030883e+002, 1.091031e+002
3.035704e+002, 1.080868e+002
3.040525e+002, 1.069081e+002
3.045346e+002, 1.064637e+002
3.050167e+002, 1.068831e+002
3.054988e+002, 1.075218e+002
3.059810e+002, 1.074335e+002
3.064631e+002, 1.062923e+002
3.069452e+002, 1.059337e+002
3.074273e+002, 1.076008e+002
3.079094e+002, 1.091748e+002
3.083915e+002, 1.095033e+002
3.088737e+002, 1.087034e+002
3.093558e+002, 1.077211e+002
3.098379e+002, 1.073758e+002
3.103200e+002, 1.076846e+002
3.108021e+002, 1.082720e+002
3.112842e+002, 1.095191e+002
3.117664e+002, 1.106717e+002
3.122485e+002, 1.116302e+002
3.127306e+002, 1.122878e+002
3.132127e+002, 1.124506e+002
3.136948e+002, 1.118785e+002
3.141769e+002, 1.107116e+002
3.146591e+002, 1.097621e+002
3.151412e+002, 1.088192e+002
3.156233e+002, 1.084605e+002
3.161054e+002, 1.091449e+002
3.165875e+002, 1.103581e+002
3.170696e+002, 1.115302e+002
3.175518e+002, 1.124538e+002
3.180339e+002, 1.129716e+002
3.185160e+002, 1.124735e+002
3.189981e+002, 1.100470e+002
3.194802e+002, 1.085089e+002
3.199623e+002, 1.089662e+002
3.204445e+002, 1.101611e+002
3.209266e+002, 1.111602e+002
3.214087e+002, 1.116695e+002
3.218908e+002, 1.116470e+002
3.223729e+002, 1.108074e+002
3.228550e+002, 1.087302e+002
3.233372e+002, 1.073279e+002
3.238193e+002, 1.074688e+002
3.243014e+002, 1.078942e+002
3.247835e+002, 1.079986e+002
3.252656e+002, 1.076711e+002
3.257477e+002, 1.070207e+002
3.262299e+002, 1.060021e+002
3.267120e+002, 1.045462e+002
3.271941e+002, 1.034762e+002
3.276762e+002, 1.031988e+002
3.281583e+002, 1.029581e+002
3.286404e+002, 1.024840e+002
3.291226e+002, 1.017767e+002
3.296047e+002, 1.008927e+002
3.300868e+002, 9.976744e+001
3.305689e+002, 9.847741e+001
3.310510e+002, 9.756098e+001
3.315331e+002, 9.723088e+001
3.320153e+002, 9.698372e+001
3.324974e+002, 9.669792e+001
3.329795e+002, 9.635109e+001
3.334616e+002, 9.587923e+001
3.339437e+002, 9.519969e+001
3.344258e+002, 9.447618e+001
3.349080e+002, 9.413036e+001
3.353901e+002, 9.434083e+001
3.358722e+002, 9.446755e+001
3.363543e+002, 9.423516e+001
3.368365e+002, 9.388944e+001
3.373186e+002, 9.366306e+001
3.378007e+002, 9.362743e+001
3.382828e+002, 9.360156e+001
3.387649e+002, 9.327588e+001
3.392470e+002, 9.257615e+001
3.397292e+002, 9.214351e+001
3.402113e+002, 9.224319e+001
3.406934e+002, 9.255823e+001
3.411755e+002, 9.295949e+001
3.416576e+002, 9.341514e+001
3.421397e+002, 9.383804e+001
3.426219e+002, 9.428571e+001
3.431040e+002, 9.471249e+001
3.435861e+002, 9.454130e+001
3.440682e+002, 9.310353e+001
3.445503e+002, 9.194450e+001
3.450324e+002, 9.204424e+001
3.455146e+002, 9.307993e+001
3.459967e+002, 9.425856e+001
3.464788e+002, 9.528555e+001
3.469609e+002, 9.613236e+001
3.474430e+002, 9.673026e+001
3.479251e+002, 9.708467e+001
3.484073e+002, 9.716747e+001
3.488894e+002, 9.660912e+001
3.493715e+002, 9.589128e+001
3.498536e+002, 9.565240e+001
3.503357e+002, 9.621291e+001
3.508178e+002, 9.700793e+001
3.513000e+002, 9.743401e+001
3.517821e+002, 9.748864e+001
3.522642e+002, 9.722362e+001
3.527463e+002, 9.632183e+001
3.532284e+002, 9.535358e+001
3.537105e+002, 9.496014e+001
3.541927e+002, 9.522720e+001
3.546748e+002, 9.556789e+001
3.551569e+002, 9.566074e+001
3.556390e+002, 9.551099e+001
3.561211e+002, 9.512675e+001
3.566032e+002, 9.446032e+001
3.570854e+002, 9.363267e+001
3.575675e+002, 9.260611e+001
3.580496e+002, 9.144836e+001
3.585317e+002, 9.059255e+001
3.590138e+002, 9.046392e+001
3.594959e+002, 9.064399e+001
3.599781e+002, 9.044258e+001
3.604602e+002, 8.978712e+001
3.609423e+002, 8.900259e+001
3.614244e+002, 8.831614e+001
3.619065e+002, 8.766904e+001
3.623886e+002, 8.690652e+001
3.628708e+002, 8.592886e+001
3.633529e+002, 8.491347e+001
3.638350e+002, 8.396161e+001
3.643171e+002, 8.308394e+001
3.647992e+002, 8.233809e+001
3.652813e+002, 8.174230e+001
3.657635e+002, 8.131740e+001
3.662456e+002, 8.110999e+001
3.667277e+002, 8.120094e+001
3.672098e+002, 8.124436e+001
3.676919e+002, 8.114405e+001
3.681740e+002, 8.089338e+001
3.686562e+002, 8.045047e+001
3.691383e+002, 7.978593e+001
3.696204e+002, 7.902274e+001
3.701025e+002, 7.829323e+001
3.705846e+002, 7.760006e+001
3.710667e+002, 7.693135e+001
3.715489e+002, 7.630773e+001
3.720310e+002, 7.569315e+001
3.725131e+002, 7.499377e+001
3.729952e+002, 7.422707e+001
3.734773e+002, 7.361646e+001
3.739594e+002, 7.335493e+001
3.744416e+002, 7.341328e+001
3.749237e+002, 7.340965e+001
3.754058e+002, 7.337733e+001
3.758879e+002, 7.325783e+001
3.763700e+002, 7.299876e+001
3.768521e+002, 7.263669e+001
3.773343e+002, 7.223168e+001
3.778164e+002, 7.180202e+001
3.782985e+002, 7.138322e+001
3.787806e+002, 7.107436e+001
3.792627e+002, 7.113168e+001
3.797448e+002, 7.085811e+001
3.802270e+002, 6.983563e+001
3.807091e+002, 6.866915e+001
3.811912e+002, 6.793383e+001
3.816733e+002, 6.773299e+001
3.821554e+002, 6.780080e+001
3.826375e+002, 6.785654e+001
3.831197e+002, 6.790388e+001
3.836018e+002, 6.791328e+001
3.840839e+002, 6.808186e+001
3.845660e+002, 6.803487e+001
3.850481e+002, 6.735086e+001
3.855302e+002, 6.629635e+001
3.860124e+002, 6.550385e+001
3.864945e+002, 6.539028e+001
3.869766e+002, 6.586362e+001
3.874587e+002, 6.644422e+001
3.879408e+002, 6.750340e+001
3.884229e+002, 6.820441e+001
3.889051e+002, 6.818114e+001
3.893872e+002, 6.789706e+001
3.898693e+002, 6.790005e+001
3.903514e+002, 6.834844e+001
3.908335e+002, 6.887190e+001
3.913156e+002, 6.886069e+001
3.917978e+002, 6.813048e+001
3.922799e+002, 6.735765e+001
3.927620e+002, 6.602924e+001
3.932441e+002, 6.510300e+001
3.937262e+002, 6.540186e+001
3.942083e+002, 6.664851e+001
3.946905e+002, 6.778130e+001
3.951726e+002, 6.790958e+001
3.956547e+002, 6.713660e+001
3.961368e+002, 6.651704e+001
3.966189e+002, 6.605642e+001
3.971010e+002, 6.576802e+001
3.975832e+002, 6.580722e+001
3.980653e+002, 6.594542e+001
3.985474e+002, 6.583173e+001
3.990295e+002, 6.528136e+001
3.995116e+002, 6.464549e+001
3.999937e+002, 6.456920e+001
4.004759e+002, 6.518833e+001
4.009580e+002, 6.565488e+001
4.014401e+002, 6.546318e+001
4.019222e+002, 6.527742e+001
4.024043e+002, 6.570293e+001
4.028864e+002, 6.672627e+001
4.033686e+002, 6.761208e+001
4.038507e+002, 6.768324e+001
4.043328e+002, 6.713335e+001
4.048149e+002, 6.679723e+001
4.052970e+002, 6.673794e+001
4.057791e+002, 6.689180e+001
4.062613e+002, 6.749471e+001
4.067434e+002, 6.826241e+001
4.072255e+002, 6.856046e+001
4.077076e+002, 6.778634e+001
4.081897e+002, 6.684740e+001
4.086718e+002, 6.692239e+001
4.091540e+002, 6.796866e+001
4.096361e+002, 6.882323e+001
4.101182e+002, 6.892431e+001
4.106003e+002, 6.860185e+001
4.110824e+002, 6.846675e+001
4.115645e+002, 6.856911e+001
4.120467e+002, 6.864775e+001
4.125288e+002, 6.835503e+001
4.130109e+002, 6.801897e+001
4.134930e+002, 6.838644e+001
4.139751e+002, 6.967295e+001
4.144572e+002, 7.100738e+001
4.149394e+002, 7.139751e+001
4.154215e+002, 7.079171e+001
4.159036e+002, 7.059413e+001
4.163857e+002, 7.131346e+001
4.168678e+002, 7.206357e+001
4.173499e+002, 7.216252e+001
4.178321e+002, 7.176176e+001
4.183142e+002, 7.149727e+001
4.187963e+002, 7.175445e+001
4.192784e+002, 7.234084e+001
4.197605e+002, 7.258917e+001
4.202426e+002, 7.212273e+001
4.207248e+002, 7.184956e+001
4.212069e+002, 7.192388e+001
4.216890e+002, 7.220790e+001
4.221711e+002, 7.256149e+001
4.226532e+002, 7.295332e+001
4.231353e+002, 7.345338e+001
4.236175e+002, 7.417212e+001
4.240996e+002, 7.518678e+001
4.245817e+002, 7.601630e+001
4.250638e+002, 7.675949e+001
4.255459e+002, 7.724782e+001
4.260280e+002, 7.714177e+001
4.265102e+002, 7.674955e+001
4.269923e+002, 7.668503e+001
4.274744e+002, 7.732749e+001
4.279565e+002, 7.846065e+001
4.284386e+002, 7.932635e+001
4.289207e+002, 7.964844e+001
4.294029e+002, 8.021333e+001
4.298850e+002, 8.130781e+001
4.303671e+002, 8.252305e+001
4.308492e+002, 8.354773e+001
4.313313e+002, 8.432484e+001
4.318134e+002, 8.495633e+001
4.322956e+002, 8.548230e+001
4.327777e+002, 8.589681e+001
4.332598e+002, 8.649026e+001
4.337419e+002, 8.734824e+001
4.342241e+002, 8.828847e+001
4.347062e+002, 8.931790e+001
4.351883e+002, 9.035124e+001
4.356704e+002, 9.121402e+001
4.361525e+002, 9.178812e+001
4.366346e+002, 9.221578e+001
4.371168e+002, 9.263758e+001
4.375989e+002, 9.302475e+001
4.380810e+002, 9.371870e+001
4.385631e+002, 9.508599e+001
4.390452e+002, 9.662981e+001
4.395273e+002, 9.778142e+001
4.400095e+002, 9.849858e+001
4.404916e+002, 9.912413e+001
4.409737e+002, 9.962559e+001
4.414558e+002, 1.002039e+002
4.419379e+002, 1.013564e+002
4.424200e+002, 1.032158e+002
4.429022e+002, 1.052264e+002
4.433843e+002, 1.069921e+002
4.438664e+002, 1.085329e+002
4.443485e+002, 1.100569e+002
4.448306e+002, 1.114148e+002
4.453127e+002, 1.129164e+002
4.457949e+002, 1.149834e+002
4.462770e+002, 1.173520e+002
4.467591e+002, 1.191717e+002
4.472412e+002, 1.199890e+002
4.477233e+002, 1.205884e+002
4.482054e+002, 1.225680e+002
4.486876e+002, 1.270505e+002
4.491697e+002, 1.303727e+002
4.496518e+002, 1.314709e+002
4.501339e+002, 1.320160e+002
4.506160e+002, 1.331275e+002
4.510981e+002, 1.349231e+002
4.515803e+002, 1.371414e+002
4.520624e+002, 1.396080e+002
4.525445e+002, 1.422904e+002
4.530266e+002, 1.446912e+002
4.535087e+002, 1.460428e+002
4.539908e+002, 1.479995e+002
4.544730e+002, 1.511740e+002
4.549551e+002, 1.548928e+002
4.554372e+002, 1.585010e+002
4.559193e+002, 1.617563e+002
4.564014e+002, 1.646447e+002
4.568835e+002, 1.669857e+002
4.573657e+002, 1.685393e+002
4.578478e+002, 1.706269e+002
4.583299e+002, 1.743162e+002
4.588120e+002, 1.775401e+002
4.592941e+002, 1.789424e+002
4.597762e+002, 1.791894e+002
4.602584e+002, 1.800431e+002
4.607405e+002, 1.829053e+002
4.612226e+002, 1.864586e+002
4.617047e+002, 1.875803e+002
4.621868e+002, 1.856598e+002
4.626689e+002, 1.842784e+002
4.631511e+002, 1.850039e+002
4.636332e+002, 1.866515e+002
4.641153e+002, 1.883334e+002
4.645974e+002, 1.900341e+002
4.650795e+002, 1.910211e+002
4.655616e+002, 1.903918e+002
4.660438e+002, 1.888086e+002
4.665259e+002, 1.877159e+002
4.670080e+002, 1.872972e+002
4.674901e+002, 1.873197e+002
4.679722e+002, 1.879050e+002
4.684543e+002, 1.888306e+002
4.689365e+002, 1.890564e+002
4.694186e+002, 1.881445e+002
4.699007e+002, 1.869275e+002
4.703828e+002, 1.857077e+002
4.708649e+002, 1.845118e+002
4.713470e+002, 1.833477e+002
4.718292e+002, 1.822012e+002
4.723113e+002, 1.812376e+002
4.727934e+002, 1.807278e+002
4.732755e+002, 1.808571e+002
4.737576e+002, 1.809590e+002
4.742397e+002, 1.810312e+002
4.747219e+002, 1.810771e+002
4.752040e+002, 1.807976e+002
4.756861e+002, 1.804668e+002
4.761682e+002, 1.808517e+002
4.766503e+002, 1.824994e+002
4.771324e+002, 1.850534e+002
4.776146e+002, 1.870695e+002
4.780967e+002, 1.879891e+002
4.785788e+002, 1.892971e+002
4.790609e+002, 1.911928e+002
4.795430e+002, 1.934489e+002
4.800251e+002, 1.958800e+002
4.805073e+002, 1.984666e+002
4.809894e+002, 2.013794e+002
4.814715e+002, 2.049893e+002
4.819536e+002, 2.092032e+002
4.824357e+002, 2.127174e+002
4.829178e+002, 2.154164e+002
4.834000e+002, 2.176059e+002
4.838821e+002, 2.186646e+002
4.843642e+002, 2.196037e+002
4.848463e+002, 2.220955e+002
4.853284e+002, 2.270903e+002
4.858105e+002, 2.320081e+002
4.862927e+002, 2.339907e+002
4.867748e+002, 2.335085e+002
4.872569e+002, 2.334371e+002
4.877390e+002, 2.344010e+002
4.882211e+002, 2.358879e+002
4.887032e+002, 2.378423e+002
4.891854e+002, 2.400932e+002
4.896675e+002, 2.411803e+002
4.901496e+002, 2.399884e+002
4.906317e+002, 2.382156e+002
4.911138e+002, 2.373444e+002
4.915959e+002, 2.371229e+002
4.920781e+002, 2.364095e+002
4.925602e+002, 2.346272e+002
4.930423e+002, 2.321661e+002
4.935244e+002, 2.298558e+002
4.940065e+002, 2.278669e+002
4.944886e+002, 2.257065e+002
4.949708e+002, 2.232737e+002
4.954529e+002, 2.207300e+002
4.959350e+002, 2.179347e+002
4.964171e+002, 2.150712e+002
4.968992e+002, 2.127442e+002
4.973813e+002, 2.114907e+002
4.978635e+002, 2.110938e+002
4.983456e+002, 2.102008e+002
4.988277e+002, 2.089367e+002
4.993098e+002, 2.068874e+002
4.997919e+002, 2.030681e+002
5.002740e+002, 1.990930e+002
5.007562e+002, 1.967387e+002
5.012383e+002, 1.961385e+002
5.017204e+002, 1.954291e+002
5.022025e+002, 1.923702e+002
5.026846e+002, 1.872399e+002
5.031667e+002, 1.832850e+002
5.036489e+002, 1.810723e+002
5.041310e+002, 1.790836e+002
5.046131e+002, 1.767788e+002
5.050952e+002, 1.741195e+002
5.055773e+002, 1.708799e+002
5.060594e+002, 1.667164e+002
5.065416e+002, 1.627120e+002
5.070237e+002, 1.599586e+002
5.075058e+002, 1.581382e+002
5.079879e+002, 1.562166e+002
5.084700e+002, 1.540109e+002
5.089521e+002, 1.514444e+002
5.094343e+002, 1.481862e+002
5.099164e+002, 1.442606e+002
5.103985e+002, 1.409901e+002
5.108806e+002, 1.389591e+002
5.113627e+002, 1.371292e+002
5.118448e+002, 1.347654e+002
5.123270e+002, 1.321600e+002
5.128091e+002, 1.300591e+002
5.132912e+002, 1.288074e+002
5.137733e+002, 1.279445e+002
5.142554e+002, 1.266538e+002
5.147375e+002, 1.249820e+002
5.152197e+002, 1.226959e+002
5.157018e+002, 1.189044e+002
5.161839e+002, 1.154235e+002
5.166660e+002, 1.132623e+002
5.171481e+002, 1.121843e+002
5.176302e+002, 1.115338e+002
5.181124e+002, 1.109998e+002
5.185945e+002, 1.103860e+002
5.190766e+002, 1.091014e+002
5.195587e+002, 1.068861e+002
5.200408e+002, 1.048401e+002
5.205229e+002, 1.032439e+002
5.210051e+002, 1.018705e+002
5.214872e+002, 1.007450e+002
5.219693e+002, 9.978851e+001
5.224514e+002, 9.860014e+001
5.229335e+002, 9.675020e+001
5.234156e+002, 9.459074e+001
5.238978e+002, 9.274068e+001
5.243799e+002, 9.120313e+001
5.248620e+002, 8.998579e+001
5.253441e+002, 8.911610e+001
5.258262e+002, 8.857677e+001
5.263083e+002, 8.837735e+001
5.267905e+002, 8.867989e+001
5.272726e+002, 8.877180e+001
5.277547e+002, 8.851752e+001
5.282368e+002, 8.790967e+001
5.287189e+002, 8.662555e+001
5.292010e+002, 8.480562e+001
5.296832e+002, 8.345850e+001
5.301653e+002, 8.343750e+001
5.306474e+002, 8.448763e+001
5.311295e+002, 8.486524e+001
5.316116e+002, 8.383349e+001
5.320938e+002, 8.301897e+001
5.325759e+002, 8.270242e+001
5.330580e+002, 8.255694e+001
5.335401e+002, 8.235534e+001
5.340222e+002, 8.202068e+001
5.345043e+002, 8.148633e+001
5.349865e+002, 8.060898e+001
5.354686e+002, 7.943663e+001
5.359507e+002, 7.854503e+001
5.364328e+002, 7.795657e+001
5.369149e+002, 7.761317e+001
5.373970e+002, 7.764068e+001
5.378792e+002, 7.781322e+001
5.383613e+002, 7.793839e+001
5.388434e+002, 7.798882e+001
5.393255e+002, 7.788810e+001
5.398076e+002, 7.753579e+001
5.402897e+002, 7.699359e+001
5.407719e+002, 7.634399e+001
5.412540e+002, 7.555344e+001
5.417361e+002, 7.497142e+001
5.422182e+002, 7.493576e+001
5.427003e+002, 7.533340e+001
5.431824e+002, 7.555044e+001
5.436646e+002, 7.561911e+001
5.441467e+002, 7.546965e+001
5.446288e+002, 7.480803e+001
5.451109e+002, 7.402755e+001
5.455930e+002, 7.368978e+001
5.460751e+002, 7.389602e+001
5.465573e+002, 7.431908e+001
5.470394e+002, 7.465101e+001
5.475215e+002, 7.489105e+001
5.480036e+002, 7.500930e+001
5.484857e+002, 7.486997e+001
5.489678e+002, 7.475829e+001
5.494500e+002, 7.493279e+001
5.499321e+002, 7.505583e+001
5.504142e+002, 7.459184e+001
5.508963e+002, 7.345630e+001
5.513784e+002, 7.237636e+001
5.518605e+002, 7.235167e+001
5.523427e+002, 7.328062e+001
5.528248e+002, 7.353831e+001
5.533069e+002, 7.268267e+001
5.537890e+002, 7.196269e+001
5.542711e+002, 7.226787e+001
5.547532e+002, 7.310634e+001
5.552354e+002, 7.381819e+001
5.557175e+002, 7.429573e+001
5.561996e+002, 7.463724e+001
5.566817e+002, 7.504523e+001
5.571638e+002, 7.533301e+001
5.576459e+002, 7.495041e+001
5.581281e+002, 7.378538e+001
5.586102e+002, 7.265048e+001
5.590923e+002, 7.223382e+001
5.595744e+002, 7.251386e+001
5.600565e+002, 7.299301e+001
5.605386e+002, 7.427114e+001
5.610208e+002, 7.497746e+001
5.615029e+002, 7.435506e+001
5.619850e+002, 7.321931e+001
5.624671e+002, 7.248924e+001
5.629492e+002, 7.235892e+001
5.634313e+002, 7.243179e+001
5.639135e+002, 7.226268e+001
5.643956e+002, 7.186187e+001
5.648777e+002, 7.185752e+001
5.653598e+002, 7.269160e+001
5.658419e+002, 7.321313e+001
5.663240e+002, 7.286943e+001
5.668062e+002, 7.218023e+001
5.672883e+002, 7.163414e+001
5.677704e+002, 7.133422e+001
5.682525e+002, 7.125813e+001
5.687346e+002, 7.153934e+001
5.692167e+002, 7.202276e+001
5.696989e+002, 7.220913e+001
5.701810e+002, 7.200897e+001
5.706631e+002, 7.193681e+001
5.711452e+002, 7.252286e+001
5.716273e+002, 7.341631e+001
5.721094e+002, 7.340719e+001
5.725916e+002, 7.191191e+001
5.730737e+002, 7.063618e+001
5.735558e+002, 7.024693e+001
5.740379e+002, 7.018099e+001
5.745200e+002, 6.977922e+001
5.750021e+002, 6.902046e+001
5.754843e+002, 6.840720e+001
5.759664e+002, 6.838304e+001
5.764485e+002, 6.881665e+001
5.769306e+002, 6.885103e+001
5.774127e+002, 6.782580e+001
5.778948e+002, 6.748830e+001
5.783770e+002, 6.886046e+001
5.788591e+002, 7.034309e+001
5.793412e+002, 7.043340e+001
5.798233e+002, 6.923290e+001
5.803054e+002, 6.829756e+001
5.807875e+002, 6.910695e+001
5.812697e+002, 7.085121e+001
5.817518e+002, 7.134653e+001
5.822339e+002, 7.044707e+001
5.827161e+002, 6.966466e+001
5.831982e+002, 6.970453e+001
5.836803e+002, 7.006937e+001
5.841624e+002, 6.994724e+001
5.846445e+002, 6.927049e+001
5.851266e+002, 6.880466e+001
5.856088e+002, 6.902485e+001
5.860909e+002, 6.932816e+001
5.865730e+002, 6.914838e+001
5.870551e+002, 6.856499e+001
5.875372e+002, 6.792750e+001
5.880193e+002, 6.740527e+001
5.885015e+002, 6.704052e+001
5.889836e+002, 6.695158e+001
5.894657e+002, 6.731886e+001
5.899478e+002, 6.757273e+001
5.904299e+002, 6.787248e+001
5.909120e+002, 6.792022e+001
5.913942e+002, 6.719561e+001
5.918763e+002, 6.615055e+001
5.923584e+002, 6.578905e+001
5.928405e+002, 6.670921e+001
5.933226e+002, 6.804597e+001
5.938047e+002, 6.845361e+001
5.942869e+002, 6.794894e+001
5.947690e+002, 6.746133e+001
5.952511e+002, 6.711918e+001
5.957332e+002, 6.688581e+001
5.962153e+002, 6.674606e+001
5.966974e+002, 6.668996e+001
5.971796e+002, 6.670457e+001
5.976617e+002, 6.672505e+001
5.981438e+002, 6.688293e+001
5.986259e+002, 6.747921e+001
5.991080e+002, 6.819868e+001
5.995901e+002, 6.844899e+001
6.000723e+002, 6.809573e+001
6.005544e+002, 6.749367e+001
6.010365e+002, 6.700351e+001
6.015186e+002, 6.662741e+001
6.020007e+002, 6.625632e+001
6.024828e+002, 6.559256e+001
6.029650e+002, 6.531688e+001
6.034471e+002, 6.593037e+001
6.039292e+002, 6.675817e+001
6.044113e+002, 6.707973e+001
6.048934e+002, 6.679624e+001
6.053755e+002, 6.642775e+001
6.058577e+002, 6.627344e+001
6.063398e+002, 6.639354e+001
6.068219e+002, 6.730131e+001
6.073040e+002, 6.927248e+001
6.077861e+002, 7.038264e+001
6.082682e+002, 6.927055e+001
6.087504e+002, 6.714293e+001
6.092325e+002, 6.608374e+001
6.097146e+002, 6.622202e+001
6.101967e+002, 6.661055e+001
6.106788e+002, 6.728362e+001
6.111609e+002, 6.788960e+001
6.116431e+002, 6.793023e+001
6.121252e+002, 6.759235e+001
6.126073e+002, 6.766011e+001
6.130894e+002, 6.858956e+001
6.135715e+002, 6.977625e+001
6.140536e+002, 6.975755e+001
6.145358e+002, 6.761913e+001
6.150179e+002, 6.654311e+001
6.155000e+002, 6.759959e+001
6.159821e+002, 6.866048e+001
6.164642e+002, 6.868037e+001
6.169464e+002, 6.808680e+001
6.174285e+002, 6.782497e+001
6.179106e+002, 6.833270e+001
6.183927e+002, 6.899817e+001
6.188748e+002, 6.903153e+001
6.193569e+002, 6.857565e+001
6.198391e+002, 6.840121e+001
6.203212e+002, 6.865429e+001
6.208033e+002, 6.910044e+001
6.212854e+002, 6.958089e+001
6.217675e+002, 7.010101e+001
6.222496e+002, 7.067645e+001
6.227318e+002, 7.178454e+001
6.232139e+002, 7.232885e+001
6.236960e+002, 7.142772e+001
6.241781e+002, 7.015209e+001
6.246602e+002, 6.969660e+001
6.251423e+002, 7.013963e+001
6.256245e+002, 7.082039e+001
6.261066e+002, 7.125543e+001
6.265887e+002, 7.144304e+001
6.270708e+002, 7.130897e+001
6.275529e+002, 7.057670e+001
6.280350e+002, 7.019732e+001
6.285172e+002, 7.068415e+001
6.289993e+002, 7.134705e+001
6.294814e+002, 7.178546e+001
6.299635e+002, 7.200095e+001
6.304456e+002, 7.215401e+001
6.309277e+002, 7.245658e+001
6.314099e+002, 7.261253e+001
6.318920e+002, 7.206387e+001
6.323741e+002, 7.103069e+001
6.328562e+002, 7.049384e+001
6.333383e+002, 7.081403e+001
6.338204e+002, 7.135523e+001
6.343026e+002, 7.135249e+001
6.347847e+002, 7.073442e+001
6.352668e+002, 7.022990e+001
6.357489e+002, 6.991299e+001
6.362310e+002, 6.960053e+001
6.367131e+002, 6.907909e+001
6.371953e+002, 6.861767e+001
6.376774e+002, 6.867064e+001
6.381595e+002, 6.925562e+001
6.386416e+002, 6.977343e+001
6.391237e+002, 6.956326e+001
6.396058e+002, 6.878503e+001
6.400880e+002, 6.830688e+001
6.405701e+002, 6.823927e+001
6.410522e+002, 6.801049e+001
6.415343e+002, 6.714415e+001
6.420164e+002, 6.620761e+001
6.424985e+002, 6.595522e+001
6.429807e+002, 6.641956e+001
6.434628e+002, 6.705719e+001
6.439449e+002, 6.814941e+001
6.444270e+002, 6.899437e+001
6.449091e+002, 6.882110e+001
6.453912e+002, 6.793276e+001
6.458734e+002, 6.715454e+001
6.463555e+002, 6.682591e+001
6.468376e+002, 6.672884e+001
6.473197e+002, 6.654619e+001
6.478018e+002, 6.626449e+001
6.482839e+002, 6.597237e+001
6.487661e+002, 6.577731e+001
6.492482e+002, 6.542992e+001
6.497303e+002, 6.442133e+001
6.502124e+002, 6.342457e+001
6.506945e+002, 6.349628e+001
6.511766e+002, 6.489027e+001
6.516588e+002, 6.613151e+001
6.521409e+002, 6.574076e+001
6.526230e+002, 6.451543e+001
6.531051e+002, 6.419269e+001
6.535872e+002, 6.484651e+001
6.540693e+002, 6.544749e+001
6.545515e+002, 6.546669e+001
6.550336e+002, 6.510497e+001
6.555157e+002, 6.476183e+001
6.559978e+002, 6.438966e+001
6.564799e+002, 6.416557e+001
6.569620e+002, 6.416389e+001
6.574442e+002, 6.424014e+001
6.579263e+002, 6.434691e+001
6.584084e+002, 6.446838e+001
6.588905e+002, 6.465450e+001
6.593726e+002, 6.492233e+001
6.598547e+002, 6.504072e+001
6.603369e+002, 6.454112e+001
6.608190e+002, 6.349052e+001
6.613011e+002, 6.295860e+001
6.617832e+002, 6.323166e+001
6.622653e+002, 6.335719e+001
6.627474e+002, 6.257500e+001
6.632296e+002, 6.140195e+001
6.637117e+002, 6.087627e+001
6.641938e+002, 6.116919e+001
6.646759e+002, 6.158538e+001
6.651580e+002, 6.217510e+001
6.656401e+002, 6.259630e+001
6.661223e+002, 6.246710e+001
6.666044e+002, 6.187545e+001
6.670865e+002, 6.110393e+001
6.675686e+002, 6.028362e+001
6.680507e+002, 5.954958e+001
6.685328e+002, 5.912811e+001
6.690150e+002, 5.900274e+001
6.694971e+002, 5.930380e+001
6.699792e+002, 6.065057e+001
6.704613e+002, 6.162567e+001
6.709434e+002, 6.144357e+001
6.714255e+002, 6.060362e+001
6.719077e+002, 5.980909e+001
6.723898e+002, 5.918148e+001
6.728719e+002, 5.873368e+001
6.733540e+002, 5.850270e+001
6.738361e+002, 5.844266e+001
6.743182e+002, 5.862175e+001
6.748004e+002, 5.897590e+001
6.752825e+002, 5.900038e+001
6.757646e+002, 5.835314e+001
6.762467e+002, 5.737023e+001
6.767288e+002, 5.683028e+001
6.772109e+002, 5.695546e+001
6.776931e+002, 5.700700e+001
6.781752e+002, 5.692678e+001
6.786573e+002, 5.684004e+001
6.791394e+002, 5.678837e+001
6.796215e+002, 5.676932e+001
6.801036e+002, 5.678491e+001
6.805858e+002, 5.683886e+001
6.810679e+002, 5.687795e+001
6.815500e+002, 5.689623e+001
6.820321e+002, 5.685540e+001
6.825142e+002, 5.652637e+001
6.829963e+002, 5.586681e+001
6.834785e+002, 5.554939e+001
6.839606e+002, 5.613646e+001
6.844427e+002, 5.707493e+001
6.849248e+002, 5.696929e+001
6.854069e+002, 5.488044e+001
6.858890e+002, 5.398668e+001
6.863712e+002, 5.551873e+001
6.868533e+002, 5.710538e+001
6.873354e+002, 5.736957e+001
6.878175e+002, 5.679683e+001
6.882996e+002, 5.650231e+001
6.887817e+002, 5.689820e+001
6.892639e+002, 5.721080e+001
6.897460e+002, 5.610132e+001
6.902281e+002, 5.390701e+001
6.907102e+002, 5.324710e+001
6.911923e+002, 5.461525e+001
6.916744e+002, 5.571481e+001
6.921566e+002, 5.517919e+001
6.926387e+002, 5.383438e+001
6.931208e+002, 5.336874e+001
6.936029e+002, 5.400407e+001
6.940850e+002, 5.438525e+001
6.945671e+002, 5.404814e+001
6.950493e+002, 5.362475e+001
6.955314e+002, 5.353711e+001
6.960135e+002, 5.366618e+001
6.964956e+002, 5.369805e+001
6.969777e+002, 5.352683e+001
6.974598e+002, 5.337099e+001
6.979420e+002, 5.362012e+001
6.984241e+002, 5.424205e+001
6.989062e+002, 5.434306e+001
6.993883e+002, 5.372764e+001
6.998704e+002, 5.312997e+001
7.003525e+002, 5.276557e+001
7.008347e+002, 5.265479e+001
7.013168e+002, 5.297442e+001
7.017989e+002, 5.379906e+001
7.022810e+002, 5.408472e+001
7.027631e+002, 5.298290e+001
7.032452e+002, 5.177854e+001
7.037274e+002, 5.123826e+001
7.042095e+002, 5.132375e+001
7.046916e+002, 5.216528e+001
7.051737e+002, 5.370194e+001
7.056558e+002, 5.493993e+001
7.061379e+002, 5.450818e+001
7.066201e+002, 5.254014e+001
7.071022e+002, 5.160619e+001
7.075843e+002, 5.212725e+001
7.080664e+002, 5.268320e+001
7.085485e+002, 5.279517e+001
7.090306e+002, 5.278169e+001
7.095128e+002, 5.296809e+001
7.099949e+002, 5.334159e+001
7.104770e+002, 5.359265e+001
7.109591e+002, 5.362756e+001
7.114412e+002, 5.350219e+001
7.119233e+002, 5.324873e+001
7.124055e+002, 5.286758e+001
7.128876e+002, 5.214756e+001
7.133697e+002, 5.112528e+001
7.138518e+002, 5.058915e+001
7.143339e+002, 5.145863e+001
7.148160e+002, 5.344847e+001
7.152982e+002, 5.440133e+001
7.157803e+002, 5.392949e+001
7.162624e+002, 5.332040e+001
7.167445e+002, 5.261317e+001
7.172266e+002, 5.204499e+001
7.177087e+002, 5.184773e+001
7.181909e+002, 5.194613e+001
7.186730e+002, 5.201411e+001
7.191551e+002, 5.183790e+001
7.196372e+002, 5.175294e+001
7.201193e+002, 5.231554e+001
7.206014e+002, 5.300455e+001
7.210836e+002, 5.267490e+001
7.215657e+002, 5.129850e+001
7.220478e+002, 5.015334e+001
7.225299e+002, 5.023882e+001
7.230120e+002, 5.121221e+001
7.234941e+002, 5.188277e+001
7.239763e+002, 5.228399e+001
7.244584e+002, 5.227786e+001
7.249405e+002, 5.133671e+001
7.254226e+002, 5.053279e+001
7.259047e+002, 5.056413e+001
7.263868e+002, 5.112460e+001
7.268690e+002, 5.157481e+001
7.273511e+002, 5.179201e+001
7.278332e+002, 5.180178e+001
7.283153e+002, 5.143129e+001
7.287974e+002, 5.096448e+001
7.292795e+002, 5.085384e+001
7.297617e+002, 5.106099e+001
7.302438e+002, 5.116597e+001
7.307259e+002, 5.093037e+001
7.312080e+002, 5.053464e+001
7.316901e+002, 5.032159e+001
7.321722e+002, 5.028693e+001
7.326544e+002, 5.047626e+001
7.331365e+002, 5.117064e+001
7.336186e+002, 5.169895e+001
7.341007e+002, 5.152190e+001
7.345828e+002, 5.116349e+001
7.350649e+002, 5.140228e+001
7.355471e+002, 5.240363e+001
7.360292e+002, 5.316398e+001
7.365113e+002, 5.296439e+001
7.369934e+002, 5.250322e+001
7.374755e+002, 5.261478e+001
7.379576e+002, 5.305622e+001
7.384398e+002, 5.293244e+001
7.389219e+002, 5.194477e+001
7.394040e+002, 5.089653e+001
7.398861e+002, 5.086710e+001
7.403682e+002, 5.183112e+001
7.408503e+002, 5.216972e+001
7.413325e+002, 5.145225e+001
7.418146e+002, 5.101677e+001
7.422967e+002, 5.157792e+001
7.427788e+002, 5.231685e+001
7.432609e+002, 5.252065e+001
7.437430e+002, 5.223148e+001
7.442252e+002, 5.198544e+001
7.447073e+002, 5.195682e+001
7.451894e+002, 5.200649e+001
7.456715e+002, 5.196954e+001
7.461536e+002, 5.198362e+001
7.466357e+002, 5.248957e+001
7.471179e+002, 5.342098e+001
7.476000e+002, 5.389367e+001
7.480821e+002, 5.313872e+001
7.485642e+002, 5.160008e+001
7.490463e+002, 5.070302e+001
7.495284e+002, 5.051997e+001
7.500106e+002, 5.069767e+001
7.504927e+002, 5.162499e+001
7.509748e+002, 5.230690e+001
7.514569e+002, 5.152314e+001
7.519390e+002, 5.007977e+001
7.524211e+002, 4.988699e+001
7.529033e+002, 5.197847e+001
7.533854e+002, 5.334989e+001
7.538675e+002, 5.215969e+001
7.543496e+002, 5.033849e+001
7.548317e+002, 4.957224e+001
7.553138e+002, 4.979446e+001
7.557960e+002, 5.039286e+001
7.562781e+002, 5.108782e+001
7.567602e+002, 5.173756e+001
7.572423e+002, 5.217054e+001
7.577244e+002, 5.238389e+001
7.582065e+002, 5.224321e+001
7.586887e+002, 5.154461e+001
7.591708e+002, 5.120306e+001
7.596529e+002, 5.177807e+001
7.601350e+002, 5.277258e+001
7.606171e+002, 5.351398e+001
7.610992e+002, 5.401622e+001
7.615814e+002, 5.425652e+001
7.620635e+002, 5.389520e+001
7.625456e+002, 5.365168e+001
7.630277e+002, 5.404224e+001
7.635098e+002, 5.464820e+001
7.639919e+002, 5.493626e+001
7.644741e+002, 5.481670e+001
7.649562e+002, 5.450084e+001
7.654383e+002, 5.408664e+001
7.659204e+002, 5.367421e+001
7.664025e+002, 5.352390e+001
7.668846e+002, 5.362792e+001
7.673668e+002, 5.378220e+001
7.678489e+002, 5.400439e+001
7.683310e+002, 5.403334e+001
7.688131e+002, 5.353538e+001
7.692952e+002, 5.265441e+001
7.697773e+002, 5.221575e+001
7.702595e+002, 5.221282e+001
7.707416e+002, 5.263726e+001
7.712237e+002, 5.425105e+001
7.717058e+002, 5.558192e+001
7.721879e+002, 5.529877e+001
7.726700e+002, 5.408717e+001
7.731522e+002, 5.350805e+001
7.736343e+002, 5.418322e+001
7.741164e+002, 5.501646e+001
7.745985e+002, 5.475173e+001
7.750806e+002, 5.393682e+001
7.755627e+002, 5.395057e+001
7.760449e+002, 5.478533e+001
7.765270e+002, 5.538773e+001
7.770091e+002, 5.526765e+001
7.774912e+002, 5.485863e+001
7.779733e+002, 5.482351e+001
7.784554e+002, 5.523100e+001
7.789376e+002, 5.544118e+001
7.794197e+002, 5.520215e+001
7.799019e+002, 5.511232e+001
7.803840e+002, 5.521098e+001
7.808661e+002, 5.556519e+001
7.813482e+002, 5.647572e+001
7.818303e+002, 5.778876e+001
7.823124e+002, 5.862349e+001
7.827946e+002, 5.821226e+001
7.832767e+002, 5.768793e+001
7.837588e+002, 5.816058e+001
7.842409e+002, 5.909414e+001
7.847230e+002, 5.958749e+001
7.852051e+002, 5.949202e+001
7.856873e+002, 5.892625e+001
7.861694e+002, 5.789263e+001
7.866515e+002, 5.675792e+001
7.871336e+002, 5.654572e+001
7.876157e+002, 5.744147e+001
7.880978e+002, 5.825338e+001
7.885800e+002, 5.895063e+001
7.890621e+002, 5.947978e+001
7.895442e+002, 5.981359e+001
7.900263e+002, 5.995815e+001
7.905084e+002, 5.982241e+001
7.909905e+002, 5.927000e+001
7.914727e+002, 5.913560e+001
7.919548e+002, 6.012812e+001
7.924369e+002, 6.109428e+001
7.929190e+002, 6.125422e+001
7.934011e+002, 6.090606e+001
7.938832e+002, 6.047794e+001
7.943654e+002, 6.013865e+001
7.948475e+002, 6.007381e+001
7.953296e+002, 6.054535e+001
7.958117e+002, 6.133410e+001
7.962938e+002, 6.185240e+001
7.967759e+002, 6.210335e+001
7.972581e+002, 6.229141e+001
7.977402e+002, 6.243581e+001
7.982223e+002, 6.264217e+001
7.987044e+002, 6.307394e+001
7.991865e+002, 6.364430e+001
7.996686e+002, 6.383813e+001
8.001508e+002, 6.323576e+001
8.006329e+002, 6.285675e+001
8.011150e+002, 6.291009e+001
8.015971e+002, 6.300021e+001
8.020792e+002, 6.276564e+001
8.025613e+002, 6.244637e+001
8.030435e+002, 6.254804e+001
8.035256e+002, 6.324666e+001
8.040077e+002, 6.399584e+001
8.044898e+002, 6.451003e+001
8.049719e+002, 6.476117e+001
8.054540e+002, 6.443910e+001
8.059362e+002, 6.377324e+001
8.064183e+002, 6.377216e+001
8.069004e+002, 6.479027e+001
8.073825e+002, 6.599669e+001
8.078646e+002, 6.637791e+001
8.083467e+002, 6.602559e+001
8.088289e+002, 6.617070e+001
8.093110e+002, 6.710060e+001
8.097931e+002, 6.774202e+001
8.102752e+002, 6.770921e+001
8.107573e+002, 6.748775e+001
8.112394e+002, 6.737099e+001
8.117216e+002, 6.737654e+001
8.122037e+002, 6.759339e+001
8.126858e+002, 6.822791e+001
8.131679e+002, 6.871814e+001
8.136500e+002, 6.896381e+001
8.141321e+002, 6.891387e+001
8.146143e+002, 6.820378e+001
8.150964e+002, 6.720433e+001
8.155785e+002, 6.681930e+001
8.160606e+002, 6.740762e+001
8.165427e+002, 6.821663e+001
8.170248e+002, 6.828322e+001
8.175070e+002, 6.786768e+001
8.179891e+002, 6.793563e+001
8.184712e+002, 6.850090e+001
8.189533e+002, 6.908268e+001
8.194354e+002, 6.954681e+001
8.199175e+002, 6.982472e+001
8.203997e+002, 6.979617e+001
8.208818e+002, 6.946804e+001
8.213639e+002, 6.926322e+001
8.218460e+002, 6.948457e+001
8.223281e+002, 6.937114e+001
8.228102e+002, 6.841586e+001
8.232924e+002, 6.750741e+001
8.237745e+002, 6.727914e+001
8.242566e+002, 6.756458e+001
8.247387e+002, 6.790175e+001
8.252208e+002, 6.822138e+001
8.257029e+002, 6.837295e+001
8.261851e+002, 6.808672e+001
8.266672e+002, 6.770868e+001
8.271493e+002, 6.768489e+001
8.276314e+002, 6.793988e+001
8.281135e+002, 6.811641e+001
8.285956e+002, 6.808187e+001
8.290778e+002, 6.806578e+001
8.295599e+002, 6.839057e+001
8.300420e+002, 6.898680e+001
8.305241e+002, 6.936193e+001
8.310062e+002, 6.947160e+001
8.314883e+002, 6.967168e+001
8.319705e+002, 7.017483e+001
8.324526e+002, 7.054548e+001
8.329347e+002, 7.019195e+001
8.334168e+002, 6.924838e+001
8.338989e+002, 6.901994e+001
8.343810e+002, 7.012711e+001
8.348632e+002, 7.097755e+001
8.353453e+002, 7.117792e+001
8.358274e+002, 7.132699e+001
8.363095e+002, 7.190543e+001
8.367916e+002, 7.268472e+001
8.372737e+002, 7.318030e+001
8.377559e+002, 7.324297e+001
8.382380e+002, 7.316090e+001
8.387201e+002, 7.301805e+001
8.392022e+002, 7.293720e+001
8.396843e+002, 7.319590e+001
8.401664e+002, 7.366506e+001
8.406486e+002, 7.392747e+001
8.411307e+002, 7.385923e+001
8.416128e+002, 7.359234e+001
8.420949e+002, 7.316467e+001
8.425770e+002, 7.274064e+001
8.430591e+002, 7.323151e+001
8.435413e+002, 7.489422e+001
8.440234e+002, 7.615147e+001
8.445055e+002, 7.667369e+001
8.449876e+002, 7.691197e+001
8.454697e+002, 7.714688e+001
8.459518e+002, 7.733294e+001
8.464340e+002, 7.733810e+001
8.469161e+002, 7.711761e+001
8.473982e+002, 7.684801e+001
8.478803e+002, 7.603919e+001
8.483624e+002, 7.573858e+001
8.488445e+002, 7.698988e+001
8.493267e+002, 7.880849e+001
8.498088e+002, 7.979329e+001
8.502909e+002, 7.976036e+001
8.507730e+002, 7.968287e+001
8.512551e+002, 8.028622e+001
8.517372e+002, 8.107156e+001
8.522194e+002, 8.130885e+001
8.527015e+002, 8.127777e+001
8.531836e+002, 8.168696e+001
8.536657e+002, 8.264021e+001
8.541478e+002, 8.386044e+001
8.546299e+002, 8.521750e+001
8.551121e+002, 8.648888e+001
8.555942e+002, 8.707866e+001
8.560763e+002, 8.685765e+001
8.565584e+002, 8.707601e+001
8.570405e+002, 8.802901e+001
8.575226e+002, 8.869294e+001
8.580048e+002, 8.817969e+001
8.584869e+002, 8.754183e+001
8.589690e+002, 8.858503e+001
8.594511e+002, 9.145481e+001
8.599332e+002, 9.339096e+001
8.604153e+002, 9.375919e+001
8.608975e+002, 9.387506e+001
8.613796e+002, 9.374995e+001
8.618617e+002, 9.380390e+001
8.623438e+002, 9.448651e+001
8.628259e+002, 9.566603e+001
8.633080e+002, 9.690103e+001
8.637902e+002, 9.806928e+001
8.642723e+002, 9.902501e+001
8.647544e+002, 9.976806e+001
8.652365e+002, 1.001622e+002
8.657186e+002, 9.961284e+001
8.662007e+002, 9.846335e+001
8.666829e+002, 9.811077e+001
8.671650e+002, 9.906294e+001
8.676471e+002, 1.005097e+002
8.681292e+002, 1.015860e+002
8.686113e+002, 1.022866e+002
8.690934e+002, 1.024253e+002
8.695756e+002, 1.018590e+002
8.700577e+002, 1.018398e+002
8.705398e+002, 1.028645e+002
8.710219e+002, 1.039367e+002
8.715040e+002, 1.041886e+002
8.719861e+002, 1.038876e+002
8.724683e+002, 1.040348e+002
8.729504e+002, 1.047900e+002
8.734325e+002, 1.057148e+002
8.739146e+002, 1.076272e+002
8.743967e+002, 1.087807e+002
8.748788e+002, 1.078839e+002
8.753610e+002, 1.060978e+002
8.758431e+002, 1.047563e+002
8.763252e+002, 1.040853e+002
8.768073e+002, 1.039545e+002
8.772894e+002, 1.046190e+002
8.777715e+002, 1.054688e+002
8.782537e+002, 1.060676e+002
8.787358e+002, 1.065280e+002
8.792179e+002, 1.071608e+002
8.797000e+002, 1.078721e+002
8.801821e+002, 1.080266e+002
8.806642e+002, 1.072132e+002
8.811464e+002, 1.061926e+002
8.816285e+002, 1.062271e+002
8.821106e+002, 1.071171e+002
8.825927e+002, 1.077444e+002
8.830748e+002, 1.080530e+002
8.835569e+002, 1.082888e+002
8.840391e+002, 1.085232e+002
8.845212e+002, 1.088115e+002
8.850033e+002, 1.092734e+002
8.854854e+002, 1.098807e+002
8.859675e+002, 1.101073e+002
8.864496e+002, 1.097595e+002
8.869318e+002, 1.094025e+002
8.874139e+002, 1.085238e+002
8.878960e+002, 1.082788e+002
8.883781e+002, 1.098688e+002
8.888602e+002, 1.123843e+002
8.893423e+002, 1.139839e+002
8.898245e+002, 1.142847e+002
8.903066e+002, 1.145569e+002
8.907887e+002, 1.152056e+002
8.912708e+002, 1.158656e+002
8.917529e+002, 1.159516e+002
8.922350e+002, 1.161160e+002
8.927172e+002, 1.175761e+002
8.931993e+002, 1.202033e+002
8.936814e+002, 1.223607e+002
8.941635e+002, 1.229097e+002
8.946456e+002, 1.228601e+002
8.951277e+002, 1.229714e+002
8.956099e+002, 1.235275e+002
8.960920e+002, 1.257355e+002
8.965741e+002, 1.293140e+002
8.970562e+002, 1.317870e+002
8.975383e+002, 1.319491e+002
8.980204e+002, 1.311208e+002
8.985026e+002, 1.310618e+002
8.989847e+002, 1.317599e+002
8.994668e+002, 1.332771e+002
8.999489e+002, 1.358888e+002
9.004310e+002, 1.377087e+002
9.009131e+002, 1.378600e+002
9.013953e+002, 1.380315e+002
9.018774e+002, 1.398469e+002
9.023595e+002, 1.428645e+002
9.028416e+002, 1.450123e+002
9.033237e+002, 1.458123e+002
9.038058e+002, 1.466165e+002
9.042880e+002, 1.472208e+002
9.047701e+002, 1.480681e+002
9.052522e+002, 1.496771e+002
9.057343e+002, 1.514364e+002
9.062164e+002, 1.525291e+002
9.066985e+002, 1.529090e+002
9.071807e+002, 1.532671e+002
9.076628e+002, 1.537488e+002
9.081449e+002, 1.543885e+002
9.086270e+002, 1.551677e+002
9.091091e+002, 1.561374e+002
9.095912e+002, 1.576049e+002
9.100734e+002, 1.593114e+002
9.105555e+002, 1.604977e+002
9.110376e+002, 1.608168e+002
9.115197e+002, 1.607739e+002
9.120018e+002, 1.607537e+002
9.124839e+002, 1.608138e+002
9.129661e+002, 1.610985e+002
9.134482e+002, 1.615836e+002
9.139303e+002, 1.621057e+002
9.144124e+002, 1.626273e+002
9.148945e+002, 1.633634e+002
9.153766e+002, 1.645907e+002
9.158588e+002, 1.659962e+002
9.163409e+002, 1.664650e+002
9.168230e+002, 1.658552e+002
9.173051e+002, 1.656764e+002
9.177872e+002, 1.660944e+002
9.182693e+002, 1.668577e+002
9.187515e+002, 1.680563e+002
9.192336e+002, 1.692466e+002
9.197157e+002, 1.696002e+002
9.201978e+002, 1.689558e+002
9.206799e+002, 1.690882e+002
9.211620e+002, 1.705222e+002
9.216442e+002, 1.720148e+002
9.221263e+002, 1.737029e+002
9.226084e+002, 1.751143e+002
9.230905e+002, 1.755711e+002
9.235726e+002, 1.755713e+002
9.240547e+002, 1.764277e+002
9.245369e+002, 1.787111e+002
9.250190e+002, 1.804329e+002
9.255011e+002, 1.800482e+002
9.259832e+002, 1.797500e+002
9.264653e+002, 1.814359e+002
9.269474e+002, 1.839120e+002
9.274296e+002, 1.854254e+002
9.279117e+002, 1.857661e+002
9.283938e+002, 1.857868e+002
9.288759e+002, 1.859460e+002
9.293580e+002, 1.860684e+002
9.298401e+002, 1.856850e+002
9.303223e+002, 1.852435e+002
9.308044e+002, 1.859762e+002
9.312865e+002, 1.875679e+002
9.317686e+002, 1.883139e+002
9.322507e+002, 1.875350e+002
9.327328e+002, 1.859922e+002
9.332150e+002, 1.842422e+002
9.336971e+002, 1.826376e+002
9.341792e+002, 1.829066e+002
9.346613e+002, 1.850437e+002
9.351434e+002, 1.864689e+002
9.356255e+002, 1.866518e+002
9.361077e+002, 1.864464e+002
9.365898e+002, 1.863529e+002
9.370719e+002, 1.863347e+002
9.375540e+002, 1.862628e+002
9.380361e+002, 1.860301e+002
9.385182e+002, 1.864011e+002
9.390004e+002, 1.879454e+002
9.394825e+002, 1.889604e+002
9.399646e+002, 1.884730e+002
9.404467e+002, 1.877716e+002
9.409288e+002, 1.879760e+002
9.414109e+002, 1.889699e+002
9.418931e+002, 1.902914e+002
9.423752e+002, 1.921006e+002
9.428573e+002, 1.939128e+002
9.433394e+002, 1.957369e+002
9.438215e+002, 1.974788e+002
9.443036e+002, 1.990152e+002
9.447858e+002, 2.004748e+002
9.452679e+002, 2.018696e+002
9.457500e+002, 2.032792e+002
9.462321e+002, 2.052612e+002
9.467142e+002, 2.087881e+002
9.471964e+002, 2.119983e+002
9.476785e+002, 2.128540e+002
9.481606e+002, 2.134845e+002
9.486427e+002, 2.165709e+002
9.491248e+002, 2.215269e+002
9.496069e+002, 2.263035e+002
9.500891e+002, 2.301232e+002
9.505712e+002, 2.336247e+002
9.510533e+002, 2.372245e+002
9.515354e+002, 2.409797e+002
9.520175e+002, 2.449154e+002
9.524996e+002, 2.491017e+002
9.529818e+002, 2.539080e+002
9.534639e+002, 2.593107e+002
9.539460e+002, 2.644826e+002
9.544281e+002, 2.688807e+002
9.549102e+002, 2.730328e+002
9.553923e+002, 2.776843e+002
9.558745e+002, 2.828742e+002
9.563566e+002, 2.889729e+002
9.568387e+002, 2.960532e+002
9.573208e+002, 3.023897e+002
9.578029e+002, 3.071735e+002
9.582850e+002, 3.129257e+002
9.587672e+002, 3.224581e+002
9.592493e+002, 3.343917e+002
9.597314e+002, 3.427898e+002
9.602135e+002, 3.459833e+002
9.606956e+002, 3.518826e+002
9.611777e+002, 3.616019e+002
9.616599e+002, 3.723272e+002
9.621420e+002, 3.832361e+002
9.626241e+002, 3.941736e+002
9.631062e+002, 4.050075e+002
9.635883e+002, 4.157133e+002
9.640704e+002, 4.264114e+002
9.645526e+002, 4.362979e+002
9.650347e+002, 4.473507e+002
9.655168e+002, 4.609435e+002
9.659989e+002, 4.744628e+002
9.664810e+002, 4.861824e+002
9.669631e+002, 4.970506e+002
9.674453e+002, 5.088229e+002
9.679274e+002, 5.218109e+002
9.684095e+002, 5.342432e+002
9.688916e+002, 5.446777e+002
9.693737e+002, 5.557191e+002
9.698558e+002, 5.698677e+002
9.703380e+002, 5.841504e+002
9.708201e+002, 5.955181e+002
9.713022e+002, 6.045316e+002
9.717843e+002, 6.134536e+002
9.722664e+002, 6.230286e+002
9.727485e+002, 6.317997e+002
9.732307e+002, 6.384323e+002
9.737128e+002, 6.440815e+002
9.741949e+002, 6.504135e+002
9.746770e+002, 6.563295e+002
9.751591e+002, 6.601835e+002
9.756412e+002, 6.616286e+002
9.761234e+002, 6.608502e+002
9.766055e+002, 6.579266e+002
9.770876e+002, 6.530172e+002
9.775698e+002, 6.460599e+002
9.780519e+002, 6.373510e+002
9.785340e+002, 6.273806e+002
9.790161e+002, 6.162438e+002
9.794982e+002, 6.040846e+002
9.799803e+002, 5.909510e+002
9.804625e+002, 5.773268e+002
9.809446e+002, 5.637376e+002
9.814267e+002, 5.493096e+002
9.819088e+002, 5.316740e+002
9.823909e+002, 5.111855e+002
9.828730e+002, 4.906129e+002
9.833552e+002, 4.701434e+002
9.838373e+002, 4.506283e+002
9.843194e+002, 4.323621e+002
9.848015e+002, 4.153915e+002
9.852836e+002, 3.998065e+002
9.857657e+002, 3.854014e+002
9.862479e+002, 3.710212e+002
9.867300e+002, 3.566334e+002
9.872121e+002, 3.422989e+002
9.876942e+002, 3.277055e+002
9.881763e+002, 3.137723e+002
9.886584e+002, 3.008907e+002
9.891406e+002, 2.890111e+002
9.896227e+002, 2.782709e+002
9.901048e+002, 2.685905e+002
9.905869e+002, 2.592927e+002
9.910690e+002, 2.507216e+002
9.915511e+002, 2.418438e+002
9.920333e+002, 2.312442e+002
9.925154e+002, 2.218304e+002
9.929975e+002, 2.162180e+002
9.934796e+002, 2.122097e+002
9.939617e+002, 2.061595e+002
9.944438e+002, 1.977474e+002
9.949260e+002, 1.904081e+002
9.954081e+002, 1.848408e+002
9.958902e+002, 1.796869e+002
9.963723e+002, 1.746064e+002
9.968544e+002, 1.699082e+002
9.973365e+002, 1.656720e+002
9.978187e+002, 1.620120e+002
9.983008e+002, 1.595925e+002
9.987829e+002, 1.587536e+002
9.992650e+002, 1.562796e+002
9.997471e+002, 1.493416e+002
1.000229e+003, 1.428518e+002
1.000711e+003, 1.389899e+002
1.001193e+003, 1.366936e+002
1.001676e+003, 1.358702e+002
1.002158e+003, 1.354804e+002
1.002640e+003, 1.331242e+002
1.003122e+003, 1.278776e+002
1.003604e+003, 1.229298e+002
1.004086e+003, 1.202220e+002
1.004568e+003, 1.183501e+002
1.005050e+003, 1.163289e+002
1.005533e+003, 1.143415e+002
1.006015e+003, 1.129314e+002
1.006497e+003, 1.118761e+002
1.006979e+003, 1.102105e+002
1.007461e+003, 1.074580e+002
1.007943e+003, 1.045316e+002
1.008425e+003, 1.020610e+002
1.008907e+003, 1.000199e+002
1.009389e+003, 9.869238e+001
1.009872e+003, 9.769974e+001
1.010354e+003, 9.614902e+001
1.010836e+003, 9.403200e+001
1.011318e+003, 9.216788e+001
1.011800e+003, 9.104384e+001
1.012282e+003, 9.029091e+001
1.012764e+003, 8.963988e+001
1.013246e+003, 8.893537e+001
1.013729e+003, 8.784277e+001
1.014211e+003, 8.638206e+001
1.014693e+003, 8.444172e+001
1.015175e+003, 8.212357e+001
1.015657e+003, 8.045240e+001
1.016139e+003, 8.020860e+001
1.016621e+003, 8.059710e+001
1.017103e+003, 8.030576e+001
1.017585e+003, 7.945634e+001
1.018068e+003, 7.854285e+001
1.018550e+003, 7.759513e+001
1.019032e+003, 7.663173e+001
1.019514e+003, 7.566541e+001
1.019996e+003, 7.484274e+001
1.020478e+003, 7.430162e+001
1.020960e+003, 7.393554e+001
1.021442e+003, 7.352670e+001
1.021924e+003, 7.307477e+001
1.022407e+003, 7.247551e+001
1.022889e+003, 7.170792e+001
1.023371e+003, 7.120247e+001
1.023853e+003, 7.115322e+001
1.024335e+003, 7.098103e+001
1.024817e+003, 7.012764e+001
1.025299e+003, 6.882869e+001
1.025781e+003, 6.773695e+001
1.026264e+003, 6.680209e+001
1.026746e+003, 6.660294e+001
1.027228e+003, 6.739323e+001
1.027710e+003, 6.775873e+001
1.028192e+003, 6.704002e+001
1.028674e+003, 6.629521e+001
1.029156e+003, 6.666429e+001
1.029638e+003, 6.775430e+001
1.030120e+003, 6.791656e+001
1.030603e+003, 6.684299e+001
1.031085e+003, 6.599062e+001
1.031567e+003, 6.544851e+001
1.032049e+003, 6.498348e+001
1.032531e+003, 6.455431e+001
1.033013e+003, 6.410321e+001
1.033495e+003, 6.354143e+001
1.033977e+003, 6.291303e+001
1.034459e+003, 6.244062e+001
1.034942e+003, 6.214718e+001
1.035424e+003, 6.195338e+001
1.035906e+003, 6.183677e+001
1.036388e+003, 6.188054e+001
1.036870e+003, 6.245836e+001
1.037352e+003, 6.283537e+001
1.037834e+003, 6.193117e+001
1.038316e+003, 6.010098e+001
1.038799e+003, 5.950729e+001
1.039281e+003, 6.133700e+001
1.039763e+003, 6.208799e+001
1.040245e+003, 6.116068e+001
1.040727e+003, 5.992747e+001
1.041209e+003, 5.843638e+001
1.041691e+003, 5.713522e+001
1.042173e+003, 5.651810e+001
1.042656e+003, 5.647874e+001
1.043138e+003, 5.651241e+001
1.043620e+003, 5.685012e+001
1.044102e+003, 5.675751e+001
1.044584e+003, 5.584502e+001
1.045066e+003, 5.492627e+001
1.045548e+003, 5.406536e+001
1.046030e+003, 5.351467e+001
1.046512e+003, 5.381532e+001
1.046995e+003, 5.468893e+001
1.047477e+003, 5.484180e+001
1.047959e+003, 5.368450e+001
1.048441e+003, 5.284663e+001
1.048923e+003, 5.287474e+001
1.049405e+003, 5.289619e+001
1.049887e+003, 5.243370e+001
1.050369e+003, 5.188651e+001
1.050851e+003, 5.173525e+001
1.051334e+003, 5.188052e+001
1.051816e+003, 5.180515e+001
1.052298e+003, 5.127105e+001
1.052780e+003, 5.093601e+001
1.053262e+003, 5.117888e+001
1.053744e+003, 5.137280e+001
1.054226e+003, 5.113655e+001
1.054708e+003, 5.078108e+001
1.055191e+003, 5.063462e+001
1.055673e+003, 5.066346e+001
1.056155e+003, 5.064310e+001
1.056637e+003, 5.049152e+001
1.057119e+003, 5.040799e+001
1.057601e+003, 5.070643e+001
1.058083e+003, 5.078171e+001
1.058565e+003, 5.018141e+001
1.059047e+003, 4.932936e+001
1.059530e+003, 4.858220e+001
1.060012e+003, 4.797827e+001
1.060494e+003, 4.742314e+001
1.060976e+003, 4.682520e+001
1.061458e+003, 4.662067e+001
1.061940e+003, 4.730227e+001
1.062422e+003, 4.800687e+001
1.062904e+003, 4.836497e+001
1.063386e+003, 4.845621e+001
1.063869e+003, 4.818563e+001
1.064351e+003, 4.776368e+001
1.064833e+003, 4.783514e+001
1.065315e+003, 4.870262e+001
1.065797e+003, 4.895625e+001
1.066279e+003, 4.725146e+001
1.066761e+003, 4.573095e+001
1.067243e+003, 4.577413e+001
1.067726e+003, 4.636052e+001
1.068208e+003, 4.656685e+001
1.068690e+003, 4.642208e+001
1.069172e+003, 4.621488e+001
1.069654e+003, 4.600453e+001
1.070136e+003, 4.596365e+001
1.070618e+003, 4.628005e+001
1.071100e+003, 4.664476e+001
1.071583e+003, 4.688157e+001
1.072065e+003, 4.710163e+001
1.072547e+003, 4.751658e+001
1.073029e+003, 4.796950e+001
1.073511e+003, 4.815299e+001
1.073993e+003, 4.799445e+001
1.074475e+003, 4.756917e+001
1.074957e+003, 4.645385e+001
1.075439e+003, 4.566299e+001
1.075922e+003, 4.610587e+001
1.076404e+003, 4.673674e+001
1.076886e+003, 4.646264e+001
1.077368e+003, 4.573655e+001
1.077850e+003, 4.568866e+001
1.078332e+003, 4.644579e+001
1.078814e+003, 4.668839e+001
1.079296e+003, 4.544981e+001
1.079779e+003, 4.413211e+001
1.080261e+003, 4.309214e+001
1.080743e+003, 4.254958e+001
1.081225e+003, 4.303772e+001
1.081707e+003, 4.398370e+001
1.082189e+003, 4.446520e+001
1.082671e+003, 4.439798e+001
1.083153e+003, 4.445513e+001
1.083635e+003, 4.507034e+001
1.084118e+003, 4.552007e+001
1.084600e+003, 4.551862e+001
1.085082e+003, 4.519084e+001
1.085564e+003, 4.409461e+001
1.086046e+003, 4.304871e+001
1.086528e+003, 4.351357e+001
1.087010e+003, 4.523660e+001
1.087492e+003, 4.611330e+001
1.087974e+003, 4.510618e+001
1.088457e+003, 4.413437e+001
1.088939e+003, 4.427193e+001
1.089421e+003, 4.438436e+001
1.089903e+003, 4.331087e+001
1.090385e+003, 4.213498e+001
1.090867e+003, 4.232228e+001
1.091349e+003, 4.362415e+001
1.091831e+003, 4.468736e+001
1.092314e+003, 4.514488e+001
1.092796e+003, 4.537331e+001
1.093278e+003, 4.588306e+001
1.093760e+003, 4.573885e+001
1.094242e+003, 4.344978e+001
1.094724e+003, 4.111642e+001
1.095206e+003, 4.095501e+001
1.095688e+003, 4.242469e+001
1.096171e+003, 4.383042e+001
1.096653e+003, 4.487737e+001
1.097135e+003, 4.550738e+001
1.097617e+003, 4.555582e+001
1.098099e+003, 4.538140e+001
1.098581e+003, 4.495432e+001
1.099063e+003, 4.452206e+001
1.099545e+003, 4.439109e+001
1.100027e+003, 4.435436e+001
1.100510e+003, 4.386700e+001
1.100992e+003, 4.283755e+001
1.101474e+003, 4.237918e+001
1.101956e+003, 4.342715e+001
1.102438e+003, 4.409888e+001
1.102920e+003, 4.351846e+001
1.103402e+003, 4.282824e+001
1.103884e+003, 4.272752e+001
1.104366e+003, 4.296356e+001
1.104849e+003, 4.321713e+001
1.105331e+003, 4.344247e+001
1.105813e+003, 4.347307e+001
1.106295e+003, 4.314339e+001
1.106777e+003, 4.283989e+001
1.107259e+003, 4.271094e+001
1.107741e+003, 4.250202e+001
1.108223e+003, 4.169201e+001
1.108706e+003, 4.104643e+001
1.109188e+003, 4.181509e+001
1.109670e+003, 4.359100e+001
1.110152e+003, 4.408037e+001
1.110634e+003, 4.228406e+001
1.111116e+003, 4.116160e+001
1.111598e+003, 4.114992e+001
1.112080e+003, 4.143799e+001
1.112563e+003, 4.226767e+001
1.113045e+003, 4.288193e+001
1.113527e+003, 4.242652e+001
1.114009e+003, 4.135536e+001
1.114491e+003, 4.089524e+001
1.114973e+003, 4.118432e+001
1.115455e+003, 4.150706e+001
1.115937e+003, 4.209444e+001
1.116419e+003, 4.229457e+001
1.116901e+003, 4.167133e+001
1.117384e+003, 4.109281e+001
1.117866e+003, 4.117349e+001
1.118348e+003, 4.153627e+001
1.118830e+003, 4.154185e+001
1.119312e+003, 4.117930e+001
1.119794e+003, 4.082282e+001
1.120276e+003, 4.035612e+001
1.120758e+003, 4.025776e+001
1.121241e+003, 4.089803e+001
1.121723e+003, 4.112490e+001
1.122205e+003, 4.012562e+001
1.122687e+003, 3.902212e+001
1.123169e+003, 3.931219e+001
1.123651e+003, 4.063243e+001
1.124133e+003, 4.071833e+001
1.124615e+003, 3.910331e+001
1.125098e+003, 3.861276e+001
1.125580e+003, 3.963628e+001
1.126062e+003, 4.058699e+001
1.126544e+003, 4.097283e+001
1.127026e+003, 4.108012e+001
1.127508e+003, 4.114005e+001
1.127990e+003, 4.111901e+001
1.128472e+003, 4.089007e+001
1.128954e+003, 4.044302e+001
1.129437e+003, 4.023703e+001
1.129919e+003, 4.030144e+001
1.130401e+003, 4.002946e+001
1.130883e+003, 3.924217e+001
1.131365e+003, 3.875751e+001
1.131847e+003, 3.908404e+001
1.132329e+003, 3.984336e+001
1.132811e+003, 4.055276e+001
1.133293e+003, 4.116287e+001
1.133776e+003, 4.150780e+001
1.134258e+003, 4.155451e+001
1.134740e+003, 4.074416e+001
1.135222e+003, 3.912250e+001
1.135704e+003, 3.813013e+001
1.136186e+003, 3.834977e+001
1.136668e+003, 3.887098e+001
1.137150e+003, 3.878988e+001
1.137633e+003, 3.846936e+001
1.138115e+003, 3.874743e+001
1.138597e+003, 3.937133e+001
1.139079e+003, 3.949207e+001
1.139561e+003, 3.920182e+001
1.140043e+003, 3.912499e+001
1.140525e+003, 3.937915e+001
1.141007e+003, 3.958258e+001
1.141490e+003, 3.949943e+001
1.141972e+003, 3.920789e+001
1.142454e+003, 3.854773e+001
1.142936e+003, 3.791893e+001
1.143418e+003, 3.807526e+001
1.143900e+003, 3.873230e+001
1.144382e+003, 3.951617e+001
1.144864e+003, 4.017837e+001
1.145346e+003, 4.005053e+001
1.145828e+003, 3.890337e+001
1.146311e+003, 3.794810e+001
1.146793e+003, 3.833109e+001
1.147275e+003, 3.907661e+001
1.147757e+003, 3.956319e+001
1.148239e+003, 3.968432e+001
1.148721e+003, 3.895321e+001
1.149203e+003, 3.789468e+001
1.149685e+003, 3.761216e+001
1.150168e+003, 3.821103e+001
1.150650e+003, 3.866282e+001
1.151132e+003, 3.845999e+001
1.151614e+003, 3.815738e+001
1.152096e+003, 3.796097e+001
1.152578e+003, 3.785075e+001
1.153060e+003, 3.781601e+001
1.153542e+003, 3.785592e+001
1.154025e+003, 3.805071e+001
1.154507e+003, 3.831567e+001
1.154989e+003, 3.834325e+001
1.155471e+003, 3.797823e+001
1.155953e+003, 3.785898e+001
1.156435e+003, 3.840084e+001
1.156917e+003, 3.884480e+001
1.157399e+003, 3.904819e+001
1.157881e+003, 3.897250e+001
1.158364e+003, 3.817879e+001
1.158846e+003, 3.729215e+001
1.159328e+003, 3.755051e+001
1.159810e+003, 3.902555e+001
1.160292e+003, 3.977932e+001
1.160774e+003, 3.937529e+001
1.161256e+003, 3.900597e+001
1.161738e+003, 3.863027e+001
1.162220e+003, 3.845256e+001
1.162703e+003, 3.866040e+001
1.163185e+003, 3.893918e+001
1.163667e+003, 3.899809e+001
1.164149e+003, 3.888670e+001
1.164631e+003, 3.874397e+001
1.165113e+003, 3.852468e+001
1.165595e+003, 3.860268e+001
1.166077e+003, 3.909620e+001
1.166560e+003, 3.937321e+001
1.167042e+003, 3.930218e+001
1.167524e+003, 3.896505e+001
1.168006e+003, 3.835828e+001
1.168488e+003, 3.771378e+001
1.168970e+003, 3.736468e+001
1.169452e+003, 3.729847e+001
1.169934e+003, 3.750726e+001
1.170417e+003, 3.797273e+001
1.170899e+003, 3.846893e+001
1.171381e+003, 3.896366e+001
1.171863e+003, 3.944258e+001
1.172345e+003, 3.988145e+001
1.172827e+003, 3.971636e+001
1.173309e+003, 3.835305e+001
1.173791e+003, 3.673876e+001
1.174273e+003, 3.657700e+001
1.174755e+003, 3.730980e+001
1.175238e+003, 3.770033e+001
1.175720e+003, 3.780280e+001
1.176202e+003, 3.797076e+001
1.176684e+003, 3.817194e+001
1.177166e+003, 3.781219e+001
1.177648e+003, 3.665120e+001
1.178130e+003, 3.594697e+001
1.178612e+003, 3.756097e+001
1.179095e+003, 3.919655e+001
1.179577e+003, 3.798895e+001
1.180059e+003, 3.592245e+001
1.180541e+003, 3.518443e+001
1.181023e+003, 3.562369e+001
1.181505e+003, 3.680501e+001
1.181987e+003, 3.841505e+001
1.182469e+003, 3.955496e+001
1.182952e+003, 3.981964e+001
1.183434e+003, 3.969669e+001
1.183916e+003, 3.917555e+001
1.184398e+003, 3.860072e+001
1.184880e+003, 3.795247e+001
1.185362e+003, 3.751994e+001
1.185844e+003, 3.765985e+001
1.186326e+003, 3.820576e+001
1.186808e+003, 3.887565e+001
1.187291e+003, 3.973954e+001
1.187773e+003, 3.981345e+001
1.188255e+003, 3.793452e+001
1.188737e+003, 3.694012e+001
1.189219e+003, 3.765840e+001
1.189701e+003, 3.857456e+001
1.190183e+003, 3.931757e+001
1.190665e+003, 3.961918e+001
1.191147e+003, 3.893996e+001
1.191630e+003, 3.765266e+001
1.192112e+003, 3.747488e+001
1.192594e+003, 3.881297e+001
1.193076e+003, 3.910349e+001
1.193558e+003, 3.808918e+001
1.194040e+003, 3.738084e+001
1.194522e+003, 3.738932e+001
1.195004e+003, 3.740816e+001
1.195487e+003, 3.697614e+001
1.195969e+003, 3.654071e+001
1.196451e+003, 3.674856e+001
1.196933e+003, 3.745843e+001
1.197415e+003, 3.835621e+001
1.197897e+003, 3.929209e+001
1.198379e+003, 3.917638e+001
1.198861e+003, 3.812461e+001
1.199344e+003, 3.737134e+001
1.199826e+003, 3.727650e+001
1.200308e+003, 3.750716e+001
1.200790e+003, 3.786315e+001
1.201272e+003, 3.827467e+001
1.201754e+003, 3.888332e+001
1.202236e+003, 3.931057e+001
1.202718e+003, 3.877328e+001
1.203200e+003, 3.780486e+001
1.203682e+003, 3.721785e+001
1.204165e+003, 3.708669e+001
1.204647e+003, 3.739530e+001
1.205129e+003, 3.807449e+001
1.205611e+003, 3.836661e+001
1.206093e+003, 3.751250e+001
1.206575e+003, 3.677312e+001
1.207057e+003, 3.690453e+001
1.207539e+003, 3.725251e+001
1.208022e+003, 3.723788e+001
1.208504e+003, 3.728224e+001
1.208986e+003, 3.821535e+001
1.209468e+003, 3.967455e+001
1.209950e+003, 4.021592e+001
1.210432e+003, 3.943789e+001
1.210914e+003, 3.876956e+001
1.211396e+003, 3.820788e+001
1.211879e+003, 3.793679e+001
1.212361e+003, 3.816184e+001
1.212843e+003, 3.840495e+001
1.213325e+003, 3.843295e+001
1.213807e+003, 3.833917e+001
1.214289e+003, 3.816710e+001
1.214771e+003, 3.800398e+001
1.215253e+003, 3.833156e+001
1.215735e+003, 3.921855e+001
1.216218e+003, 4.001084e+001
1.216700e+003, 4.071745e+001
1.217182e+003, 4.097490e+001
1.217664e+003, 4.068869e+001
1.218146e+003, 4.018883e+001
1.218628e+003, 3.964520e+001
1.219110e+003, 3.927841e+001
1.219592e+003, 3.946250e+001
1.220074e+003, 3.992851e+001
1.220557e+003, 4.010675e+001
1.221039e+003, 4.002231e+001
1.221521e+003, 3.953469e+001
1.222003e+003, 3.887249e+001
1.222485e+003, 3.888122e+001
1.222967e+003, 3.959743e+001
1.223449e+003, 3.996630e+001
1.223931e+003, 3.934766e+001
1.224414e+003, 3.872395e+001
1.224896e+003, 3.896910e+001
1.225378e+003, 3.939943e+001
1.225860e+003, 3.955882e+001
1.226342e+003, 3.952680e+001
1.226824e+003, 3.918581e+001
1.227306e+003, 3.882546e+001
1.227788e+003, 3.920245e+001
1.228271e+003, 4.030751e+001
1.228753e+003, 4.058752e+001
1.229235e+003, 3.896016e+001
1.229717e+003, 3.787154e+001
1.230199e+003, 3.791431e+001
1.230681e+003, 3.818978e+001
1.231163e+003, 3.864457e+001
1.231645e+003, 3.893356e+001
1.232127e+003, 3.864756e+001
1.232609e+003, 3.818108e+001
1.233092e+003, 3.838363e+001
1.233574e+003, 3.922725e+001
1.234056e+003, 3.930364e+001
1.234538e+003, 3.843669e+001
1.235020e+003, 3.842520e+001
1.235502e+003, 3.950925e+001
1.235984e+003, 4.016994e+001
1.236466e+003, 3.986701e+001
1.236949e+003, 3.958654e+001
1.237431e+003, 4.012362e+001
1.237913e+003, 4.093600e+001
1.238395e+003, 4.116599e+001
1.238877e+003, 4.099895e+001
1.239359e+003, 4.068627e+001
1.239841e+003, 4.041599e+001
1.240323e+003, 4.090915e+001
1.240806e+003, 4.184177e+001
1.241288e+003, 4.183127e+001
1.241770e+003, 4.064473e+001
1.242252e+003, 3.987836e+001
1.242734e+003, 4.073273e+001
1.243216e+003, 4.137856e+001
1.243698e+003, 4.001980e+001
1.244180e+003, 3.875166e+001
1.244662e+003, 3.916659e+001
1.245145e+003, 4.029055e+001
1.245627e+003, 4.135118e+001
1.246109e+003, 4.217949e+001
1.246591e+003, 4.261653e+001
1.247073e+003, 4.263509e+001
1.247555e+003, 4.245042e+001
1.248037e+003, 4.186893e+001
1.248519e+003, 4.147943e+001
1.249001e+003, 4.134321e+001
1.249484e+003, 4.133657e+001
1.249966e+003, 4.147314e+001
1.250448e+003, 4.162565e+001
1.250930e+003, 4.175073e+001
1.251412e+003, 4.167983e+001
1.251894e+003, 4.090360e+001
1.252376e+003, 3.964322e+001
1.252858e+003, 3.992793e+001
1.253341e+003, 4.148690e+001
1.253823e+003, 4.176509e+001
1.254305e+003, 4.068653e+001
1.254787e+003, 3.966234e+001
1.255269e+003, 3.915420e+001
1.255751e+003, 3.900403e+001
1.256233e+003, 3.915501e+001
1.256715e+003, 3.928629e+001
1.257198e+003, 3.871765e+001
1.257680e+003, 3.828126e+001
1.258162e+003, 3.934666e+001
1.258644e+003, 4.078008e+001
1.259126e+003, 4.097318e+001
1.259608e+003, 4.039584e+001
1.260090e+003, 4.033179e+001
1.260572e+003, 4.094666e+001
1.261054e+003, 4.148475e+001
1.261536e+003, 4.180983e+001
1.262019e+003, 4.190382e+001
1.262501e+003, 4.179530e+001
1.262983e+003, 4.139703e+001
1.263465e+003, 4.023772e+001
1.263947e+003, 3.936478e+001
1.264429e+003, 3.957642e+001
1.264911e+003, 4.028080e+001
1.265393e+003, 4.059352e+001
1.265876e+003, 4.058083e+001
1.266358e+003, 4.073861e+001
1.266840e+003, 4.108406e+001
1.267322e+003, 4.117403e+001
1.267804e+003, 4.099733e+001
1.268286e+003, 4.128630e+001
1.268768e+003, 4.218150e+001
1.269250e+003, 4.293845e+001
1.269733e+003, 4.314527e+001
1.270215e+003, 4.311795e+001
1.270697e+003, 4.314732e+001
1.271179e+003, 4.321315e+001
1.271661e+003, 4.329751e+001
1.272143e+003, 4.339027e+001
1.272625e+003, 4.356969e+001
1.273107e+003, 4.369797e+001
1.273589e+003, 4.349960e+001
1.274072e+003, 4.300860e+001
1.274554e+003, 4.245396e+001
1.275036e+003, 4.186825e+001
1.275518e+003, 4.148556e+001
1.276000e+003, 4.141962e+001
1.276482e+003, 4.150480e+001
1.276964e+003, 4.180332e+001
1.277446e+003, 4.212377e+001
1.277929e+003, 4.239191e+001
1.278411e+003, 4.260867e+001
1.278893e+003, 4.281263e+001
1.279375e+003, 4.293402e+001
1.279857e+003, 4.272852e+001
1.280339e+003, 4.218777e+001
1.280821e+003, 4.201289e+001
1.281303e+003, 4.221880e+001
1.281786e+003, 4.219488e+001
1.282268e+003, 4.185586e+001
##END=



