##NAMES=Montgomeryite
##RRUFFID=R140664
##IDEAL CHEMISTRY=Ca_4_MgAl_4_(PO_4_)_6_(OH)_4_&#183;12H_2_O
##LOCALITY=Foote Mineral Company mine, Kings Mountain, North Carolina, USA
##OWNER=RRUFF
##SOURCE=Rock Currier
##DESCRIPTION=Radial aggregates of colorless, bladed to platy crystals
##STATUS=The identification of this mineral has been confirmed only by single crystal X-ray diffraction.
##URL=rruff.info/R140664
131.5272, 0.0000000E+00
132.0093, 0.2484740
132.4915, 0.2976680
132.9736, 0.1019290
133.4557, 1.100037
133.9378, 2.106934
134.4199, 3.021362
134.9020, 5.217041
135.3842, 9.307251
135.8663, 14.81079
136.3484, 20.00665
136.8305, 24.76514
137.3126, 29.37439
137.7947, 34.13623
138.2769, 39.13519
138.7590, 43.86206
139.2411, 48.32562
139.7232, 52.57751
140.2053, 55.17548
140.6874, 55.62225
141.1696, 55.13678
141.6517, 55.34808
142.1338, 56.57410
142.6159, 57.88287
143.0980, 59.13440
143.5801, 60.44092
144.0623, 61.14441
144.5444, 60.78815
145.0265, 60.12970
145.5086, 60.46533
145.9907, 62.31793
146.4728, 64.51898
146.9550, 66.81476
147.4371, 69.48871
147.9192, 71.57025
148.4013, 72.48157
148.8834, 72.85461
149.3655, 74.10535
149.8477, 76.84576
150.3298, 79.92535
150.8119, 82.97479
151.2940, 86.50348
151.7761, 89.21899
152.2583, 90.67444
152.7404, 91.22784
153.2225, 91.89886
153.7046, 93.02740
154.1867, 94.06238
154.6688, 94.78638
155.1510, 96.14154
155.6331, 96.00763
156.1152, 93.30463
156.5973, 88.62195
157.0794, 84.33563
157.5615, 81.40533
158.0437, 78.71985
158.5258, 75.58563
159.0079, 71.77869
159.4900, 67.59155
159.9721, 62.62915
160.4542, 57.12280
160.9364, 52.41412
161.4185, 49.44012
161.9006, 47.24634
162.3827, 45.06482
162.8648, 42.82111
163.3469, 40.40778
163.8291, 37.76672
164.3112, 34.92279
164.7933, 31.88678
165.2754, 28.17694
165.7575, 24.44897
166.2396, 21.39185
166.7218, 19.96533
167.2039, 18.74982
167.6860, 16.66211
168.1681, 13.74231
168.6502, 11.03442
169.1323, 8.762634
169.6145, 7.615051
170.0966, 7.668884
170.5787, 10.27368
171.0608, 13.07324
171.5429, 13.38281
172.0250, 11.14478
172.5072, 9.590576
172.9893, 9.862732
173.4714, 11.42169
173.9535, 14.12225
174.4356, 19.80188
174.9177, 25.73071
175.3999, 28.21912
175.8820, 27.30865
176.3641, 24.88666
176.8462, 22.03821
177.3283, 19.39484
177.8104, 17.67596
178.2926, 16.94812
178.7747, 16.82721
179.2568, 17.48798
179.7389, 19.19263
180.2210, 20.70087
180.7031, 20.53790
181.1853, 19.16107
181.6674, 17.85443
182.1495, 17.16705
182.6316, 17.06207
183.1137, 17.67279
183.5958, 19.18176
184.0780, 20.73553
184.5601, 21.06750
185.0422, 20.34637
185.5243, 19.67340
186.0064, 19.76947
186.4885, 20.42395
186.9707, 20.81982
187.4528, 20.87177
187.9349, 20.84216
188.4170, 21.06244
188.8991, 21.55212
189.3812, 22.20642
189.8634, 23.22870
190.3455, 24.52618
190.8276, 25.68347
191.3097, 26.71967
191.7918, 27.52930
192.2739, 27.79065
192.7561, 27.47070
193.2382, 27.19855
193.7203, 27.31683
194.2024, 27.80341
194.6845, 28.56201
195.1666, 29.80786
195.6488, 30.94086
196.1309, 30.56097
196.6130, 28.49103
197.0951, 26.33887
197.5772, 25.08826
198.0593, 24.75708
198.5415, 24.20160
199.0236, 23.33984
199.5057, 22.22003
199.9878, 20.96344
200.4699, 19.56757
200.9520, 18.06616
201.4342, 16.41730
201.9163, 14.57953
202.3984, 13.01025
202.8805, 11.81622
203.3626, 10.82141
203.8447, 9.578674
204.3269, 8.025818
204.8090, 6.454102
205.2911, 5.099976
205.7732, 4.019775
206.2553, 2.636169
206.7374, 0.6661380
207.2196, 1.464417
207.7017, 2.580078
208.1838, 2.557983
208.6659, 1.864258
209.1480, 0.6054690
209.6301, 1.408997
210.1123, 3.318787
210.5944, 5.476563
211.0765, 7.313904
211.5586, 6.877563
212.0407, 3.264709
212.5228, 0.5891720
213.0050, 3.063965
213.4871, 3.923035
213.9692, 4.216980
214.4513, 3.765442
214.9334, 2.876038
215.4155, 2.468262
215.8977, 2.680847
216.3798, 3.123535
216.8619, 3.708435
217.3440, 4.689026
217.8261, 4.988220
218.3082, 4.284973
218.7904, 2.958801
219.2725, 2.232971
219.7546, 2.491882
220.2367, 2.677795
220.7188, 2.124084
221.2009, 0.2852170
221.6831, 0.8372800
222.1652, 1.027344
222.6473, 0.5272830
223.1294, 4.8950002E-02
223.6115, 0.9296260
224.0936, 1.489319
224.5758, 1.334534
225.0579, 1.9835999E-02
225.5400, 0.9387210
226.0221, 1.482361
226.5042, 1.672424
226.9863, 1.566589
227.4685, 0.7700200
227.9506, 0.2855830
228.4327, 0.6885380
228.9148, 2.683594
229.3969, 3.874817
229.8790, 3.817749
230.3612, 3.060608
230.8433, 3.053040
231.3254, 4.239075
231.8075, 5.487305
232.2896, 6.280151
232.7717, 6.339294
233.2539, 6.613220
233.7360, 7.221558
234.2181, 7.985107
234.7002, 8.475891
235.1823, 8.469482
235.6644, 8.503296
236.1466, 8.819580
236.6287, 9.588928
237.1108, 10.17389
237.5929, 10.59076
238.0750, 10.80615
238.5571, 10.70660
239.0393, 10.07532
239.5214, 9.483521
240.0035, 9.181641
240.4856, 9.342346
240.9677, 9.312561
241.4498, 9.193909
241.9320, 8.854309
242.4141, 7.935974
242.8962, 5.813721
243.3783, 4.166809
243.8604, 3.724304
244.3425, 4.982666
244.8247, 5.638672
245.3068, 5.513123
245.7889, 4.905762
246.2710, 4.180603
246.7531, 2.894470
247.2352, 2.259521
247.7174, 2.898926
248.1995, 5.242004
248.6816, 6.572937
249.1637, 6.436462
249.6458, 5.617004
250.1279, 5.263489
250.6101, 5.741455
251.0922, 5.963196
251.5743, 5.464661
252.0564, 4.055664
252.5385, 3.397461
253.0206, 3.800842
253.5028, 4.673035
253.9849, 5.325317
254.4670, 5.817627
254.9491, 5.981995
255.4312, 5.638062
255.9133, 4.737976
256.3955, 4.337585
256.8776, 4.754456
257.3597, 5.315369
257.8418, 5.250610
258.3239, 4.229004
258.8061, 3.347717
259.2882, 2.793518
259.7703, 2.563538
260.2524, 2.617371
260.7345, 3.088257
261.2166, 3.657532
261.6988, 4.046204
262.1809, 4.189575
262.6630, 4.316406
263.1451, 4.460510
263.6272, 4.624023
264.1093, 4.747375
264.5915, 4.729248
265.0736, 4.771179
265.5557, 5.279541
266.0378, 6.617188
266.5199, 7.428955
267.0020, 7.348877
267.4842, 6.603882
267.9663, 6.426758
268.4484, 6.967529
268.9305, 7.718872
269.4126, 8.319031
269.8947, 8.719116
270.3769, 9.133667
270.8590, 9.521973
271.3411, 9.952637
271.8232, 10.37561
272.3053, 10.88556
272.7874, 11.30573
273.2696, 11.38354
273.7517, 10.97205
274.2338, 10.88495
274.7159, 11.22156
275.1980, 11.82227
275.6801, 12.57410
276.1623, 13.69672
276.6444, 14.39435
277.1265, 13.71918
277.6086, 11.39764
278.0907, 10.87927
278.5728, 12.82275
279.0550, 15.87476
279.5371, 17.35657
280.0192, 17.03046
280.5013, 16.53888
280.9834, 16.60699
281.4655, 17.19391
281.9477, 17.67938
282.4298, 18.07288
282.9119, 18.52960
283.3940, 19.03424
283.8761, 19.53992
284.3582, 20.38440
284.8404, 22.00250
285.3225, 24.11676
285.8046, 25.05719
286.2867, 24.67584
286.7688, 24.04303
287.2509, 24.24127
287.7331, 25.22253
288.2152, 26.44934
288.6973, 27.97900
289.1794, 29.60406
289.6615, 30.51050
290.1436, 30.67377
290.6258, 30.58044
291.1079, 30.81110
291.5900, 31.25262
292.0721, 31.19177
292.5542, 30.24139
293.0363, 28.89404
293.5185, 28.17133
294.0006, 28.06885
294.4827, 28.17023
294.9648, 28.22040
295.4469, 28.22455
295.9290, 28.22565
296.4112, 28.30695
296.8933, 28.24365
297.3754, 27.64856
297.8575, 26.56305
298.3396, 25.24890
298.8217, 23.75201
299.3039, 22.16467
299.7860, 20.72400
300.2681, 19.48328
300.7502, 18.35059
301.2323, 17.06799
301.7144, 15.66980
302.1966, 14.42426
302.6787, 13.92743
303.1608, 13.60577
303.6429, 12.47498
304.1250, 10.35815
304.6071, 8.259705
305.0893, 7.091675
305.5714, 6.655090
306.0535, 6.521790
306.5356, 6.587585
307.0177, 6.767212
307.4998, 7.045776
307.9820, 7.431519
308.4641, 7.733215
308.9462, 7.942139
309.4283, 7.958435
309.9104, 7.636780
310.3925, 6.544434
310.8747, 5.419861
311.3568, 4.751953
311.8389, 4.513550
312.3210, 4.489624
312.8031, 4.676331
313.2852, 4.970215
313.7674, 5.262024
314.2495, 5.385742
314.7316, 5.682678
315.2137, 6.687988
315.6958, 8.078979
316.1779, 8.789429
316.6601, 7.434753
317.1422, 5.851135
317.6243, 5.369812
318.1064, 6.884460
318.5885, 8.122681
319.0706, 8.226318
319.5528, 7.525513
320.0349, 6.669312
320.5170, 5.318054
320.9991, 4.276001
321.4812, 4.034241
321.9633, 4.920288
322.4455, 5.530518
322.9276, 5.406982
323.4097, 4.927429
323.8918, 4.557556
324.3739, 4.557251
324.8560, 4.486023
325.3382, 4.151184
325.8203, 3.500366
326.3024, 3.117737
326.7845, 3.209961
327.2666, 3.499329
327.7487, 3.768433
328.2309, 4.110352
328.7130, 4.312195
329.1951, 4.070923
329.6772, 3.500671
330.1593, 3.814026
330.6414, 6.132935
331.1236, 8.254150
331.6057, 8.883545
332.0878, 6.616516
332.5699, 5.367798
333.0520, 5.531189
333.5341, 6.729492
334.0163, 8.070435
334.4984, 10.01154
334.9805, 11.28369
335.4626, 11.06488
335.9447, 8.610107
336.4268, 7.777893
336.9090, 9.468262
337.3911, 11.86249
337.8732, 11.75610
338.3553, 8.350586
338.8374, 5.256470
339.3195, 3.587341
339.8017, 3.320862
340.2838, 3.443726
340.7659, 4.064270
341.2480, 4.820313
341.7301, 5.423157
342.2122, 5.879456
342.6944, 5.950928
343.1765, 5.349182
343.6586, 4.429077
344.1407, 4.646301
344.6228, 6.100952
345.1049, 7.455750
345.5871, 7.501160
346.0692, 6.429260
346.5513, 5.588928
347.0334, 5.226074
347.5155, 5.017517
347.9977, 4.287354
348.4798, 3.116333
348.9619, 2.213074
349.4440, 2.186096
349.9261, 2.697205
350.4082, 3.031494
350.8904, 3.168152
351.3725, 3.158691
351.8546, 2.814514
352.3367, 2.221130
352.8188, 1.720154
353.3009, 1.575989
353.7831, 1.625977
354.2652, 1.597473
354.7473, 1.475037
355.2294, 1.498230
355.7115, 2.428467
356.1936, 3.492920
356.6758, 3.581787
357.1579, 1.673828
357.6400, 0.4859010
358.1221, 1.889404
358.6042, 2.485229
359.0863, 2.339966
359.5685, 0.6672970
360.0506, 1.044495
360.5327, 1.705383
361.0148, 0.7808230
361.4969, 9.3200997E-02
361.9790, 0.2026980
362.4612, 0.1621090
362.9433, 0.5307620
363.4254, 0.4298100
363.9075, 0.5517580
364.3896, 1.348328
364.8717, 2.983704
365.3539, 4.229309
365.8360, 4.693726
366.3181, 4.630920
366.8002, 4.387756
367.2823, 3.478333
367.7644, 3.107544
368.2466, 3.651428
368.7287, 4.974854
369.2108, 5.917603
369.6929, 6.322632
370.1750, 6.465881
370.6571, 6.479004
371.1393, 6.369141
371.6214, 6.103516
372.1035, 5.369995
372.5856, 4.590515
373.0677, 4.799744
373.5498, 6.484192
374.0320, 8.255005
374.5141, 9.670288
374.9962, 10.73169
375.4783, 11.32709
375.9604, 11.23053
376.4425, 11.02600
376.9247, 11.50250
377.4068, 12.78381
377.8889, 13.93713
378.3710, 14.71185
378.8531, 15.17096
379.3352, 15.53937
379.8174, 15.78510
380.2995, 16.11993
380.7816, 16.77722
381.2637, 17.71777
381.7458, 18.48798
382.2279, 18.95026
382.7101, 19.40948
383.1922, 20.43854
383.6743, 21.98535
384.1564, 23.59528
384.6385, 25.23450
385.1206, 26.74182
385.6028, 27.66284
386.0849, 27.92969
386.5670, 28.19910
387.0491, 29.16388
387.5312, 30.57538
388.0133, 31.95251
388.4955, 33.19373
388.9776, 34.25897
389.4597, 35.05499
389.9418, 35.60236
390.4239, 36.03253
390.9060, 36.49005
391.3882, 36.83209
391.8703, 36.95288
392.3524, 36.90234
392.8345, 36.48016
393.3166, 35.23065
393.7987, 33.55365
394.2809, 32.26770
394.7630, 32.11713
395.2451, 31.99384
395.7272, 31.38770
396.2093, 30.18701
396.6914, 28.94666
397.1736, 27.78680
397.6557, 26.62189
398.1378, 25.36810
398.6199, 24.42719
399.1020, 22.92407
399.5841, 20.24274
400.0663, 16.67151
400.5484, 14.18671
401.0305, 13.48871
401.5126, 13.12524
401.9947, 12.41846
402.4768, 11.28430
402.9590, 10.01593
403.4411, 8.486267
403.9232, 6.936279
404.4053, 5.855896
404.8874, 5.442200
405.3695, 4.926086
405.8517, 3.971008
406.3338, 2.638977
406.8159, 1.746643
407.2980, 1.394958
407.7801, 1.145508
408.2622, 0.4155270
408.7444, 0.7589110
409.2265, 1.365417
409.7086, 1.065063
410.1907, 0.3072510
410.6728, 2.8870000E-02
411.1549, 0.1927490
411.6371, 0.3469240
412.1192, 9.5275998E-02
412.6013, 0.3356320
413.0834, 0.3907470
413.5655, 1.8066000E-02
414.0476, 0.4768070
414.5298, 0.4940800
415.0119, 0.2806400
415.4940, 0.2568360
415.9761, 1.105774
416.4582, 1.877136
416.9403, 1.338928
417.4225, 0.3458860
417.9046, 1.580566
418.3867, 1.094177
418.8688, 5.0354000E-02
419.3509, 1.003235
419.8330, 1.591675
420.3152, 1.954834
420.7973, 2.062561
421.2794, 1.993103
421.7615, 1.882813
422.2436, 1.901855
422.7257, 1.737122
423.2079, 1.058411
423.6900, 0.2861940
424.1721, 0.9177250
424.6542, 2.1240000E-02
425.1363, 1.248779
425.6184, 1.852966
426.1006, 1.780029
426.5827, 1.132690
427.0648, 0.3435060
427.5469, 2.365173
428.0290, 3.974487
428.5111, 5.250366
428.9933, 5.918091
429.4754, 5.643311
429.9575, 4.217529
430.4396, 3.257751
430.9217, 2.752319
431.4038, 2.712646
431.8860, 3.265869
432.3681, 4.433594
432.8502, 5.660828
433.3323, 6.881409
433.8144, 8.027283
434.2965, 8.865906
434.7787, 9.411560
435.2608, 9.871887
435.7429, 10.21271
436.2250, 10.60358
436.7071, 11.56964
437.1892, 13.29474
437.6714, 15.11273
438.1535, 16.22540
438.6356, 16.87610
439.1177, 17.58063
439.5998, 18.31647
440.0819, 19.37164
440.5641, 21.12921
441.0462, 23.52362
441.5283, 25.95447
442.0104, 28.06238
442.4925, 30.04327
442.9746, 32.01306
443.4568, 33.97632
443.9389, 35.97607
444.4210, 38.04431
444.9031, 40.15021
445.3852, 42.25037
445.8673, 44.36133
446.3495, 46.41577
446.8316, 48.30872
447.3137, 49.97015
447.7958, 52.10040
448.2779, 55.10492
448.7600, 58.23077
449.2422, 60.93457
449.7243, 63.20062
450.2064, 65.09686
450.6885, 66.56799
451.1706, 67.74335
451.6527, 68.85608
452.1349, 69.80450
452.6170, 71.07892
453.0991, 73.15454
453.5812, 75.98987
454.0633, 77.70630
454.5454, 78.19354
455.0276, 78.18848
455.5097, 78.52118
455.9918, 79.08490
456.4739, 79.25018
456.9560, 78.88861
457.4381, 78.03314
457.9203, 76.53052
458.4024, 74.50763
458.8845, 72.51581
459.3666, 71.22839
459.8488, 70.01929
460.3309, 68.06592
460.8130, 65.26978
461.2951, 62.25024
461.7772, 59.32916
462.2593, 56.51050
462.7415, 53.84851
463.2236, 51.42950
463.7057, 49.09930
464.1878, 46.79633
464.6699, 44.55005
465.1520, 42.42731
465.6342, 40.43555
466.1163, 38.61737
466.5984, 37.03314
467.0805, 36.00415
467.5626, 34.49628
468.0447, 32.06689
468.5269, 29.43945
469.0090, 27.29150
469.4911, 25.58765
469.9732, 24.48651
470.4553, 24.04767
470.9374, 24.19464
471.4196, 24.89014
471.9017, 26.42542
472.3838, 27.55963
472.8659, 27.45441
473.3480, 26.08862
473.8301, 24.69714
474.3123, 23.23010
474.7944, 22.07861
475.2765, 22.01093
475.7586, 22.71204
476.2407, 22.82605
476.7228, 21.59149
477.2050, 19.88989
477.6871, 19.30042
478.1692, 19.61932
478.6513, 19.79120
479.1334, 18.90692
479.6155, 17.68738
480.0977, 16.97974
480.5798, 16.97888
481.0619, 16.93127
481.5440, 16.16547
482.0261, 15.16327
482.5082, 14.49243
482.9904, 14.68121
483.4725, 14.83307
483.9546, 14.87616
484.4367, 14.77454
484.9188, 14.27911
485.4009, 12.62360
485.8831, 11.05219
486.3652, 10.07758
486.8473, 9.898438
487.3294, 9.525757
487.8115, 8.612427
488.2936, 7.803101
488.7758, 7.876770
489.2579, 9.194275
489.7400, 10.20496
490.2221, 10.60785
490.7042, 10.56561
491.1863, 10.43683
491.6685, 10.18805
492.1506, 10.21930
492.6327, 10.84943
493.1148, 11.98834
493.5969, 13.25250
494.0790, 14.70581
494.5612, 15.87427
495.0433, 16.01135
495.5254, 15.55902
496.0075, 15.46185
496.4896, 15.93170
496.9717, 16.95184
497.4539, 18.82587
497.9360, 21.27167
498.4181, 23.46014
498.9002, 24.76874
499.3823, 25.88733
499.8644, 27.11804
500.3466, 28.47351
500.8287, 30.24213
501.3108, 32.91577
501.7929, 35.77576
502.2750, 38.25891
502.7571, 40.07294
503.2393, 41.86188
503.7214, 43.53229
504.2035, 45.16168
504.6856, 47.01093
505.1677, 49.23181
505.6498, 51.41663
506.1320, 53.52808
506.6141, 55.54358
507.0962, 57.00031
507.5783, 57.90430
508.0604, 58.35950
508.5425, 58.31494
509.0247, 57.85449
509.5068, 57.43811
509.9889, 57.00726
510.4710, 56.87030
510.9531, 57.89172
511.4352, 59.66437
511.9174, 60.68378
512.3995, 60.17218
512.8816, 58.65540
513.3637, 56.45526
513.8458, 53.65924
514.3279, 50.83411
514.8101, 47.98419
515.2922, 45.42444
515.7743, 43.47925
516.2564, 42.33978
516.7385, 41.25330
517.2206, 40.13647
517.7028, 38.86597
518.1849, 37.30640
518.6670, 34.62531
519.1491, 32.61591
519.6312, 32.12164
520.1133, 32.62695
520.5955, 31.76758
521.0776, 28.63959
521.5597, 25.72095
522.0418, 24.18158
522.5239, 24.19250
523.0060, 23.79346
523.4882, 22.83942
523.9703, 21.92236
524.4524, 21.76111
524.9345, 22.30353
525.4166, 22.81256
525.8987, 23.24377
526.3809, 23.39508
526.8630, 22.65790
527.3451, 21.26221
527.8272, 20.18945
528.3093, 20.09882
528.7914, 20.46082
529.2736, 20.77765
529.7557, 21.02527
530.2378, 21.14813
530.7199, 20.98737
531.2020, 20.75549
531.6841, 20.69434
532.1663, 21.14172
532.6484, 21.09961
533.1305, 19.78046
533.6126, 17.99219
534.0947, 16.88678
534.5768, 17.46124
535.0590, 17.64276
535.5411, 17.03931
536.0232, 15.77356
536.5053, 14.49396
536.9874, 13.11127
537.4695, 11.97626
537.9517, 11.25470
538.4338, 10.94678
538.9159, 11.09314
539.3980, 11.71326
539.8801, 12.68994
540.3622, 14.51843
540.8444, 16.76294
541.3265, 17.17023
541.8086, 14.52795
542.2907, 11.29218
542.7728, 11.10309
543.2549, 12.99359
543.7371, 14.21069
544.2192, 12.50793
544.7013, 10.21863
545.1834, 9.327820
545.6655, 9.770203
546.1476, 9.737671
546.6298, 7.876770
547.1119, 5.704346
547.5940, 4.266846
548.0761, 4.191467
548.5582, 3.864563
549.0403, 2.851501
549.5225, 1.679382
550.0046, 1.013123
550.4867, 1.161255
550.9688, 1.166260
551.4509, 0.7489010
551.9330, 9.6740998E-02
552.4152, 6.7099999E-04
552.8973, 0.5606080
553.3794, 1.016602
553.8615, 0.8638920
554.3436, 0.2293090
554.8257, 0.1884160
555.3079, 0.3877560
555.7900, 0.4534300
556.2721, 0.3942260
556.7542, 0.2670900
557.2363, 0.1817630
557.7184, 0.1727290
558.2006, 0.1597900
558.6827, 0.1105350
559.1648, 0.4022830
559.6469, 0.3214110
560.1290, 0.7342530
560.6111, 1.730896
561.0933, 2.225281
561.5754, 2.272644
562.0575, 2.291565
562.5396, 2.613525
563.0217, 2.652405
563.5038, 2.064331
563.9860, 0.6011350
564.4681, 0.3207400
564.9502, 0.6110230
565.4323, 0.4968870
565.9144, 3.2593001E-02
566.3965, 1.049316
566.8787, 1.222107
567.3608, 8.1482001E-02
567.8429, 1.600403
568.3250, 2.378784
568.8071, 2.416931
569.2892, 2.526855
569.7714, 2.921692
570.2535, 3.683167
570.7356, 5.230530
571.2177, 7.406250
571.6998, 9.146912
572.1819, 9.261169
572.6641, 9.112366
573.1462, 9.877258
573.6283, 11.90362
574.1104, 13.69183
574.5925, 14.66595
575.0746, 15.26392
575.5568, 15.89575
576.0389, 16.30261
576.5210, 17.15576
577.0031, 18.82648
577.4852, 20.82489
577.9673, 22.07648
578.4495, 22.33582
578.9316, 22.67566
579.4137, 23.33057
579.8958, 24.34381
580.3779, 26.25586
580.8600, 29.11346
581.3422, 31.63245
581.8243, 32.64294
582.3064, 32.72357
582.7885, 32.95526
583.2706, 33.38483
583.7527, 34.51172
584.2349, 37.67511
584.7170, 41.42010
585.1991, 43.80682
585.6812, 43.40466
586.1633, 43.19604
586.6454, 45.00037
587.1276, 47.76447
587.6097, 49.55432
588.0918, 49.30988
588.5739, 48.83386
589.0560, 48.32739
589.5381, 47.84821
590.0203, 47.91376
590.5024, 48.92285
590.9845, 49.70282
591.4666, 49.58722
591.9487, 48.57526
592.4308, 47.73523
592.9130, 47.07263
593.3951, 46.61841
593.8772, 46.36884
594.3593, 46.35596
594.8414, 46.75983
595.3235, 47.71979
595.8057, 48.72699
596.2878, 49.45496
596.7699, 49.83124
597.2520, 49.71417
597.7341, 48.58514
598.2162, 47.38824
598.6984, 46.59906
599.1805, 46.12506
599.6626, 45.57977
600.1447, 44.90625
600.6268, 44.09491
601.1089, 43.11304
601.5911, 41.93848
602.0732, 40.78088
602.5553, 39.56744
603.0374, 38.50452
603.5195, 37.87012
604.0016, 37.73236
604.4838, 37.21021
604.9659, 36.24664
605.4480, 34.96350
605.9301, 33.22076
606.4122, 31.22473
606.8943, 29.84143
607.3765, 29.56549
607.8586, 29.54919
608.3407, 28.82709
608.8228, 27.62347
609.3049, 26.50818
609.7870, 26.05902
610.2692, 25.46442
610.7513, 24.15857
611.2334, 22.19922
611.7155, 20.44189
612.1976, 18.91162
612.6797, 17.63489
613.1619, 16.66425
613.6440, 16.10742
614.1261, 15.53937
614.6082, 15.07782
615.0903, 14.44189
615.5724, 13.33014
616.0546, 11.73254
616.5367, 9.857727
617.0188, 7.549316
617.5009, 5.535339
617.9830, 5.273804
618.4651, 6.132324
618.9473, 6.435425
619.4294, 5.284668
619.9115, 3.814636
620.3936, 2.912292
620.8757, 2.446655
621.3578, 2.211243
621.8400, 2.694519
622.3221, 2.905273
622.8042, 1.956726
623.2863, 0.1580810
623.7684, 1.118469
624.2505, 0.1110840
624.7327, 1.577576
625.2148, 2.371338
625.6969, 2.270508
626.1790, 2.315979
626.6611, 2.590271
627.1432, 2.870728
627.6254, 2.879089
628.1075, 2.623535
628.5896, 2.356384
629.0717, 2.064697
629.5538, 1.959167
630.0359, 2.345642
630.5181, 3.117554
631.0002, 4.075684
631.4823, 5.562073
631.9644, 6.887329
632.4465, 7.333801
632.9286, 7.005371
633.4108, 6.561035
633.8929, 5.984497
634.3750, 5.587585
634.8571, 5.463074
635.3392, 5.619629
635.8214, 6.178040
636.3035, 7.647400
636.7856, 8.921631
637.2677, 9.117676
637.7498, 7.947693
638.2319, 7.637451
638.7141, 8.405518
639.1962, 9.324585
639.6783, 9.335693
640.1604, 8.657471
640.6425, 8.110291
641.1246, 7.877808
641.6068, 7.811707
642.0889, 7.718323
642.5710, 7.538086
643.0531, 7.206421
643.5352, 6.536987
644.0173, 5.880249
644.4995, 5.324158
644.9816, 4.922119
645.4637, 4.721985
645.9458, 4.830872
646.4279, 4.899109
646.9100, 4.845764
647.3922, 4.694214
647.8743, 4.564514
648.3564, 4.382935
648.8385, 4.305542
649.3206, 4.390869
649.8027, 4.655518
650.2849, 5.403748
650.7670, 6.684204
651.2491, 7.625916
651.7312, 6.915710
652.2133, 5.492859
652.6954, 4.962952
653.1776, 5.802979
653.6597, 6.758850
654.1418, 7.046875
654.6239, 7.039612
655.1060, 7.174133
655.5881, 8.252991
656.0703, 8.631714
656.5524, 7.351318
657.0345, 5.434448
657.5166, 4.823364
657.9987, 6.295349
658.4808, 7.042480
658.9630, 6.173523
659.4451, 4.233643
659.9272, 2.979675
660.4093, 2.412903
660.8914, 2.376343
661.3735, 3.160339
661.8557, 4.287415
662.3378, 4.865784
662.8199, 4.941589
663.3020, 4.922302
663.7841, 5.065125
664.2662, 5.236877
664.7484, 5.353394
665.2305, 5.408752
665.7126, 5.348938
666.1947, 5.061157
666.6768, 4.727356
667.1589, 4.525574
667.6411, 4.897339
668.1232, 4.295837
668.6053, 2.173645
669.0874, 0.1929320
669.5695, 1.178772
670.0516, 0.8072510
670.5338, 0.1510620
671.0159, 1.786438
671.4980, 3.373718
671.9801, 3.563782
672.4622, 2.793335
672.9443, 2.260803
673.4265, 3.106262
673.9086, 3.759888
674.3907, 2.684814
674.8728, 0.4988400
675.3549, 0.9025270
675.8370, 0.1178590
676.3192, 0.7093510
676.8013, 0.6502080
677.2834, 0.1835940
677.7655, 0.2994380
678.2476, 0.6992190
678.7297, 1.613586
679.2119, 1.826294
679.6940, 1.364380
680.1761, 0.5665890
680.6582, 0.6215210
681.1403, 1.584229
681.6224, 1.669678
682.1046, 1.136841
682.5867, 0.6841430
683.0688, 0.3919070
683.5509, 0.1730350
684.0330, 9.4237998E-02
684.5151, 6.9579999E-03
684.9973, 0.3289790
685.4794, 1.274170
685.9615, 1.842102
686.4436, 1.618835
686.9257, 1.069092
687.4078, 0.7628780
687.8900, 0.9211430
688.3721, 0.6577760
688.8542, 0.4196170
689.3363, 1.640747
689.8184, 1.353760
690.3005, 0.3086550
690.7827, 1.718079
691.2648, 2.177063
691.7469, 2.111328
692.2290, 2.128601
692.7111, 2.137939
693.1932, 1.837097
693.6754, 0.4744870
694.1575, 0.7212520
694.6396, 1.054871
695.1217, 0.5487060
695.6038, 0.2717900
696.0859, 1.913086
696.5681, 3.211548
697.0502, 3.731079
697.5323, 3.453247
698.0144, 2.568787
698.4965, 0.7974240
698.9786, 0.5379030
699.4608, 9.1735996E-02
699.9429, 2.121521
700.4250, 2.854370
700.9071, 2.108582
701.3892, 0.8959960
701.8713, 0.4843750
702.3535, 1.562683
702.8356, 1.548889
703.3177, 0.1848750
703.7998, 1.509094
704.2819, 1.222107
704.7640, 0.2995610
705.2462, 0.2171020
705.7283, 0.1715090
706.2104, 0.1358030
706.6925, 0.8402100
707.1746, 1.652466
707.6567, 2.105591
708.1389, 2.175720
708.6210, 2.161560
709.1031, 2.128479
709.5852, 2.055725
710.0673, 1.841187
710.5494, 1.553528
711.0316, 1.392517
711.5137, 1.504883
711.9958, 1.720154
712.4779, 2.092468
712.9600, 2.507141
713.4421, 2.599304
713.9243, 1.664307
714.4064, 1.062073
714.8885, 1.355103
715.3706, 2.402100
715.8527, 3.055298
716.3348, 3.247742
716.8170, 3.230591
717.2991, 3.061218
717.7812, 2.770325
718.2633, 2.505188
718.7454, 2.263733
719.2275, 2.054443
719.7097, 1.968689
720.1918, 1.874329
720.6739, 1.574707
721.1560, 1.055603
721.6381, 0.5819700
722.1202, 1.1353000E-02
722.6024, 0.2993160
723.0845, 7.4340999E-02
723.5666, 1.376221
724.0487, 2.644531
724.5308, 4.078552
725.0129, 5.245789
725.4951, 5.716553
725.9772, 5.461731
726.4593, 5.106018
726.9414, 4.588623
727.4235, 4.108582
727.9056, 4.022644
728.3878, 4.254089
728.8699, 4.553589
729.3520, 4.844666
729.8341, 5.120667
730.3162, 5.346863
730.7983, 5.565613
731.2805, 5.843689
731.7626, 6.617493
732.2447, 6.874756
732.7268, 6.215515
733.2089, 5.088989
733.6910, 4.388977
734.1732, 4.103210
734.6553, 4.324036
735.1374, 5.242737
735.6195, 6.363037
736.1016, 6.505920
736.5837, 5.888672
737.0659, 5.594971
737.5480, 6.588867
738.0301, 7.528564
738.5122, 6.699402
738.9943, 4.798157
739.4764, 3.670044
739.9586, 4.656738
740.4407, 5.801086
740.9228, 6.523865
741.4049, 6.865479
741.8870, 7.022644
742.3691, 7.004150
742.8513, 6.757690
743.3334, 6.168152
743.8155, 5.349548
744.2976, 4.795105
744.7797, 4.503174
745.2618, 4.448242
745.7440, 4.913330
746.2261, 5.438232
746.7082, 5.359131
747.1903, 4.698975
747.6724, 4.159546
748.1545, 4.023682
748.6367, 4.148560
749.1188, 4.611511
749.6009, 5.482971
750.0830, 5.803528
750.5651, 5.335449
751.0472, 4.751587
751.5294, 4.510498
752.0115, 4.547058
752.4936, 3.992920
752.9757, 2.864502
753.4578, 1.800903
753.9399, 1.177490
754.4221, 0.9934690
754.9042, 1.542053
755.3863, 2.945740
755.8684, 3.878662
756.3505, 3.196106
756.8326, 2.036377
757.3148, 1.445496
757.7969, 1.841064
758.2790, 1.887146
758.7611, 1.247925
759.2432, 0.6871340
759.7253, 1.072815
760.2075, 2.436279
760.6896, 2.831848
761.1717, 2.058350
761.6538, 1.151001
762.1359, 1.420532
762.6180, 2.325684
763.1002, 2.894958
763.5823, 2.876831
764.0644, 2.814453
764.5465, 3.103821
765.0286, 3.459167
765.5107, 3.568726
765.9929, 3.394897
766.4750, 2.957642
766.9571, 2.094055
767.4392, 1.154236
767.9213, 0.4878540
768.4034, 8.6608998E-02
768.8856, 0.2981570
769.3677, 1.278442
769.8498, 2.537109
770.3319, 3.520325
770.8140, 4.296448
771.2961, 5.080139
771.7783, 6.215942
772.2604, 6.807251
772.7425, 6.014343
773.2246, 4.500305
773.7067, 3.249146
774.1888, 2.236267
774.6710, 1.749817
775.1531, 2.010864
775.6352, 2.655151
776.1173, 3.048523
776.5994, 3.186035
777.0815, 3.245178
777.5637, 3.234009
778.0458, 3.252686
778.5279, 3.281616
779.0100, 3.452759
779.4921, 4.096619
779.9742, 6.291931
780.4564, 7.853455
780.9385, 7.543579
781.4206, 5.985657
781.9027, 4.416199
782.3848, 2.205017
782.8669, 1.335938
783.3491, 2.743591
783.8312, 5.233948
784.3133, 5.650635
784.7954, 4.051392
785.2775, 2.745300
785.7596, 2.501648
786.2418, 2.985962
786.7239, 4.393127
787.2060, 6.159729
787.6881, 6.953003
788.1702, 5.124146
788.6523, 3.310242
789.1345, 2.281616
789.6166, 2.087402
790.0987, 2.813721
790.5808, 5.148682
791.0629, 6.955811
791.5450, 7.661011
792.0272, 7.557800
792.5093, 7.343567
792.9914, 7.025818
793.4735, 6.651489
793.9556, 6.103210
794.4377, 5.655884
794.9199, 5.609314
795.4020, 5.933411
795.8841, 6.527832
796.3662, 8.087830
796.8483, 9.132019
797.3304, 8.790588
797.8126, 7.518738
798.2947, 6.674805
798.7768, 6.363647
799.2589, 6.191895
799.7410, 6.026855
800.2231, 5.955933
800.7053, 6.333435
801.1874, 7.067505
801.6695, 7.644775
802.1516, 7.577393
802.6337, 7.450745
803.1158, 7.841431
803.5980, 8.588867
804.0801, 9.285522
804.5622, 10.19342
805.0443, 10.53198
805.5264, 9.730652
806.0085, 8.281738
806.4907, 7.870544
806.9728, 8.685608
807.4549, 9.556274
807.9370, 10.16278
808.4191, 10.51886
808.9012, 10.65613
809.3834, 10.57086
809.8655, 10.25220
810.3476, 9.223450
810.8297, 8.413696
811.3118, 8.796936
811.7939, 9.887268
812.2761, 10.20453
812.7582, 8.740112
813.2403, 7.620850
813.7224, 7.294250
814.2045, 7.571777
814.6866, 7.898499
815.1688, 8.258179
815.6509, 8.927917
816.1330, 10.26373
816.6151, 11.62695
817.0972, 11.98004
817.5793, 11.59998
818.0615, 11.22864
818.5436, 10.76050
819.0257, 10.86029
819.5078, 12.34430
819.9899, 14.50977
820.4720, 15.45081
820.9542, 14.72925
821.4363, 13.92072
821.9184, 13.21021
822.4005, 12.60913
822.8826, 12.43823
823.3647, 12.74304
823.8469, 13.23126
824.3290, 14.10663
824.8111, 14.70892
825.2932, 14.00403
825.7753, 12.66101
826.2574, 12.02484
826.7396, 13.64459
827.2217, 14.59515
827.7038, 14.05890
828.1859, 12.78943
828.6681, 12.14990
829.1502, 12.15625
829.6323, 12.57520
830.1144, 13.54791
830.5966, 14.63611
831.0787, 15.01562
831.5608, 14.81873
832.0429, 14.47400
832.5250, 14.11603
833.0071, 13.76715
833.4893, 13.24646
833.9714, 12.75903
834.4535, 12.67029
834.9356, 13.17859
835.4177, 13.72522
835.8998, 14.23053
836.3820, 14.84106
836.8641, 15.84412
837.3462, 17.19647
837.8283, 18.76965
838.3104, 20.77191
838.7925, 22.04431
839.2747, 20.74835
839.7568, 18.30579
840.2389, 16.59027
840.7210, 16.09998
841.2031, 16.13092
841.6852, 16.81915
842.1674, 17.76617
842.6495, 18.78223
843.1316, 20.08118
843.6137, 20.38660
844.0958, 19.52551
844.5779, 17.81366
845.0601, 15.01227
845.5422, 11.85217
846.0243, 9.843567
846.5064, 9.320801
846.9885, 9.513977
847.4706, 10.88184
847.9528, 12.19037
848.4349, 12.18396
848.9170, 9.982971
849.3991, 8.881958
849.8812, 9.170715
850.3633, 9.929504
850.8455, 10.43799
851.3276, 10.73755
851.8097, 11.22321
852.2918, 11.93439
852.7739, 12.35077
853.2560, 11.91034
853.7382, 11.10504
854.2203, 10.42645
854.7024, 9.966187
855.1845, 9.308777
855.6666, 7.861206
856.1487, 6.792847
856.6309, 6.927612
857.1130, 8.231445
857.5951, 7.888000
858.0772, 5.675415
858.5593, 4.530151
859.0414, 7.937256
859.5236, 12.91748
860.0057, 14.59833
860.4878, 13.22833
860.9699, 11.44794
861.4520, 9.682739
861.9341, 8.511292
862.4163, 8.510193
862.8984, 9.463745
863.3805, 10.04944
863.8626, 10.29462
864.3447, 10.06213
864.8268, 8.991821
865.3090, 7.647400
865.7911, 7.593506
866.2732, 8.575745
866.7553, 9.542419
867.2374, 10.12836
867.7195, 10.36676
868.2017, 10.12067
868.6838, 9.524780
869.1659, 8.949585
869.6480, 8.333862
870.1301, 7.940247
870.6122, 8.018188
871.0944, 8.141235
871.5765, 7.192078
872.0586, 5.338013
872.5407, 3.789856
873.0228, 2.971985
873.5049, 2.501038
873.9871, 2.262939
874.4692, 2.077637
874.9513, 1.662476
875.4334, 0.7030640
875.9155, 0.1384890
876.3976, 0.8984380
876.8798, 1.434509
877.3619, 1.452393
877.8440, 0.9105830
878.3261, 0.9089970
878.8082, 1.733765
879.2903, 2.323486
879.7725, 1.057800
880.2546, 0.9630130
880.7367, 2.134827
881.2188, 2.052917
881.7009, 1.608032
882.1830, 0.6126100
882.6652, 0.2558590
883.1473, 0.4880980
883.6294, 4.1076999E-02
884.1115, 0.4528200
884.5936, 0.7860110
885.0757, 0.8705440
885.5579, 0.4227290
886.0400, 0.2916870
886.5221, 0.6145020
887.0042, 0.5637210
887.4863, 0.8251950
887.9684, 2.386841
888.4506, 3.750427
888.9327, 3.976868
889.4148, 3.159485
889.8969, 2.593872
890.3790, 2.407349
890.8611, 2.116333
891.3433, 1.473145
891.8254, 0.6301880
892.3075, 5.6580000E-02
892.7896, 0.6096190
893.2717, 1.133362
893.7538, 1.888794
894.2360, 2.415894
894.7181, 2.304626
895.2002, 1.737122
895.6823, 1.189331
896.1644, 0.6622310
896.6465, 0.1428830
897.1287, 0.5700070
897.6108, 0.9836430
898.0929, 0.4345700
898.5750, 3.134521
899.0571, 4.347290
899.5392, 3.000732
900.0214, 1.140869
900.5035, 6.2073000E-02
900.9856, 0.6245730
901.4677, 0.5278930
901.9498, 1.002258
902.4319, 1.766113
902.9141, 1.429749
903.3962, 0.8062130
903.8783, 0.5254520
904.3604, 0.5953980
904.8425, 1.276184
905.3246, 2.629822
905.8068, 3.798218
906.2889, 4.044434
906.7710, 3.809448
907.2531, 3.266296
907.7352, 2.379822
908.2173, 2.285339
908.6995, 3.507629
909.1816, 5.050781
909.6637, 6.856750
910.1458, 8.662598
910.6279, 7.991150
911.1100, 4.992798
911.5922, 2.658081
912.0743, 3.262329
912.5564, 4.893433
913.0385, 5.726563
913.5206, 5.969238
914.0027, 6.321045
914.4849, 7.020630
914.9670, 7.847168
915.4491, 9.061646
915.9312, 10.16589
916.4133, 9.761230
916.8954, 7.889282
917.3776, 6.846436
917.8597, 7.340332
918.3418, 8.321167
918.8239, 8.771118
919.3060, 8.909790
919.7881, 9.059570
920.2703, 9.433228
920.7524, 9.491943
921.2345, 8.649414
921.7166, 7.994019
922.1987, 8.792480
922.6808, 11.15100
923.1630, 11.62354
923.6451, 9.935913
924.1272, 8.378418
924.6093, 9.400757
925.0914, 11.33032
925.5735, 12.21973
926.0557, 11.91821
926.5378, 11.69971
927.0199, 12.16406
927.5020, 12.47864
927.9841, 12.26807
928.4662, 11.65576
928.9484, 11.51318
929.4305, 11.83777
929.9126, 11.85449
930.3947, 11.03528
930.8768, 9.907837
931.3589, 8.930786
931.8411, 8.142700
932.3232, 7.633911
932.8053, 7.654663
933.2874, 7.710205
933.7695, 7.902710
934.2516, 7.891602
934.7338, 6.896240
935.2159, 4.957153
935.6980, 4.015381
936.1801, 4.453247
936.6622, 5.213867
937.1443, 5.384888
937.6265, 5.360962
938.1086, 5.560547
938.5907, 6.107788
939.0728, 6.057007
939.5549, 4.860596
940.0370, 3.491577
940.5192, 2.309570
941.0013, 1.367798
941.4834, 1.375122
941.9655, 2.309204
942.4476, 3.542236
942.9297, 5.127930
943.4119, 6.431885
943.8940, 7.043945
944.3761, 6.887085
944.8582, 5.592163
945.3403, 1.072510
945.8224, 1.904663
946.3046, 1.850220
946.7867, 3.4667999E-02
947.2688, 0.9527590
947.7509, 0.9875490
948.2330, 0.7221680
948.7151, 0.1871340
949.1973, 0.1384280
949.6794, 0.4481200
950.1615, 1.376831
950.6436, 1.927856
951.1257, 1.572998
951.6078, 1.582520
952.0900, 2.140259
952.5721, 2.793701
953.0542, 3.015869
953.5363, 2.948853
954.0184, 3.690308
954.5005, 5.216064
954.9827, 6.363525
955.4648, 5.457031
955.9469, 4.723755
956.4290, 5.860596
956.9111, 8.811890
957.3932, 11.36987
957.8754, 13.52026
958.3575, 15.03418
958.8396, 15.61804
959.3217, 15.72290
959.8038, 16.15759
960.2859, 16.91663
960.7681, 18.20239
961.2502, 20.57971
961.7323, 22.68945
962.2144, 23.52209
962.6965, 23.76404
963.1786, 24.18848
963.6608, 24.34570
964.1429, 26.31946
964.6250, 30.66565
965.1071, 35.22168
965.5892, 37.73926
966.0714, 38.87122
966.5535, 40.21692
967.0356, 41.88123
967.5177, 43.03809
967.9998, 41.86865
968.4819, 41.43469
968.9641, 43.79944
969.4462, 48.50574
969.9283, 52.44446
970.4104, 55.50916
970.8925, 58.54724
971.3746, 62.08301
971.8568, 65.52039
972.3389, 67.59229
972.8210, 68.95789
973.3031, 71.04712
973.7852, 74.39319
974.2673, 78.48254
974.7495, 84.08362
975.2316, 89.69336
975.7137, 93.72791
976.1958, 96.18689
976.6779, 98.06360
977.1600, 99.44385
977.6422, 100.2449
978.1243, 99.97656
978.6064, 99.41870
979.0885, 99.54260
979.5706, 100.4452
980.0527, 100.8973
980.5349, 100.6143
981.0170, 100.0116
981.4991, 99.30579
981.9812, 98.34253
982.4633, 96.29504
982.9454, 93.36609
983.4276, 90.87585
983.9097, 89.82129
984.3918, 88.68030
984.8739, 85.89612
985.3560, 82.46155
985.8381, 79.95752
986.3203, 78.82825
986.8024, 77.93958
987.2845, 77.41467
987.7666, 76.74939
988.2487, 74.87683
988.7308, 72.55591
989.2130, 71.88660
989.6951, 73.00696
990.1772, 74.43506
990.6593, 75.49707
991.1414, 76.51453
991.6235, 77.33203
992.1057, 78.14490
992.5878, 80.45496
993.0699, 84.43933
993.5520, 88.60388
994.0341, 92.49548
994.5162, 96.20642
994.9984, 99.50098
995.4805, 102.8149
995.9626, 106.9464
996.4447, 112.2844
996.9268, 118.2501
997.4089, 125.0697
997.8911, 132.0947
998.3732, 138.6349
998.8553, 144.6896
999.3374, 151.5475
999.8195, 159.2750
1000.302, 167.1986
1000.784, 174.7196
1001.266, 182.3591
1001.748, 190.6306
1002.230, 199.4514
1002.712, 208.0114
1003.194, 216.2141
1003.676, 224.2194
1004.159, 232.2427
1004.641, 240.1809
1005.123, 248.0575
1005.605, 255.6920
1006.087, 262.7164
1006.569, 269.2274
1007.051, 274.7391
1007.533, 278.8900
1008.016, 282.2677
1008.498, 285.6100
1008.980, 289.1436
1009.462, 291.5256
1009.944, 292.6034
1010.426, 293.3058
1010.908, 294.7456
1011.390, 296.0048
1011.872, 295.4136
1012.355, 293.3757
1012.837, 291.7426
1013.319, 292.1764
1013.801, 291.5515
1014.283, 288.9272
1014.765, 285.1814
1015.247, 282.3009
1015.729, 279.9620
1016.211, 275.7245
1016.694, 268.9008
1017.176, 261.2578
1017.658, 254.4509
1018.140, 247.3777
1018.622, 238.9829
1019.104, 229.1395
1019.586, 218.1185
1020.068, 205.6129
1020.551, 192.9998
1021.033, 180.8939
1021.515, 169.2306
1021.997, 157.7325
1022.479, 146.6470
1022.961, 136.8468
1023.443, 129.1680
1023.925, 122.2705
1024.407, 116.3416
1024.890, 110.5740
1025.372, 103.6865
1025.854, 95.66467
1026.336, 88.72607
1026.818, 83.10291
1027.300, 78.03003
1027.782, 72.78650
1028.264, 67.70435
1028.746, 63.19141
1029.229, 59.29504
1029.711, 55.22290
1030.193, 50.59705
1030.675, 46.42554
1031.157, 42.99634
1031.639, 40.28064
1032.121, 38.67017
1032.603, 37.68286
1033.086, 35.73499
1033.568, 31.54346
1034.050, 27.98621
1034.532, 26.90918
1035.014, 26.71948
1035.496, 26.03406
1035.978, 24.79492
1036.460, 23.62915
1036.943, 22.58142
1037.425, 21.17029
1037.907, 18.33606
1038.389, 15.49048
1038.871, 14.41370
1039.353, 14.73755
1039.835, 14.88354
1040.317, 14.43469
1040.799, 13.92419
1041.281, 13.41199
1041.764, 12.86682
1042.246, 12.08496
1042.728, 11.22632
1043.210, 11.01099
1043.692, 11.68469
1044.174, 11.96460
1044.656, 10.79993
1045.138, 9.284302
1045.621, 8.019897
1046.103, 7.027710
1046.585, 6.587524
1047.067, 6.753906
1047.549, 6.752197
1048.031, 5.979736
1048.513, 5.227173
1048.995, 6.071411
1049.478, 7.423950
1049.960, 7.472046
1050.442, 4.094238
1050.924, 2.041504
1051.406, 1.860107
1051.888, 2.105713
1052.370, 1.227417
1052.852, 0.3028560
1053.334, 0.7330320
1053.817, 9.2407003E-02
1054.299, 0.5522460
1054.781, 0.7059330
1055.263, 0.6315920
1055.745, 0.4847410
1056.227, 0.1948240
1056.709, 0.4624020
1057.191, 1.505127
1057.673, 2.823242
1058.156, 4.594604
1058.638, 5.810181
1059.120, 5.026489
1059.602, 3.386353
1060.084, 2.000366
1060.566, 0.9898680
1061.048, 0.6978760
1061.530, 1.417358
1062.013, 2.132324
1062.495, 2.438965
1062.977, 2.347778
1063.459, 1.799316
1063.941, 0.8819580
1064.423, 0.2048340
1064.905, 2.166626
1065.387, 3.169067
1065.870, 1.739014
1066.352, 0.2136230
1066.834, 1.028931
1067.316, 0.6951900
1067.798, 1.9043000E-02
1068.280, 0.9796140
1068.762, 1.639160
1069.244, 0.9755860
1069.726, 0.2308350
1070.208, 0.3359380
1070.691, 1.245605
1071.173, 2.549194
1071.655, 4.532837
1072.137, 5.928223
1072.619, 6.453735
1073.101, 6.489868
1073.583, 6.333130
1074.065, 6.123169
1074.548, 6.159058
1075.030, 6.530884
1075.512, 6.666504
1075.994, 5.663940
1076.476, 5.408325
1076.958, 6.948364
1077.440, 9.705322
1077.922, 11.77991
1078.405, 13.15784
1078.887, 13.69824
1079.369, 12.90552
1079.851, 12.08582
1080.333, 12.04272
1080.815, 12.32361
1081.297, 12.36511
1081.779, 12.04639
1082.261, 12.16248
1082.744, 12.71655
1083.226, 13.67542
1083.708, 15.74597
1084.190, 17.62439
1084.672, 17.44556
1085.154, 15.86060
1085.636, 15.16040
1086.118, 16.08984
1086.601, 17.03528
1087.083, 17.86938
1087.565, 18.52661
1088.047, 19.05933
1088.529, 19.30688
1089.011, 18.85217
1089.493, 17.65442
1089.975, 16.31519
1090.458, 14.49097
1090.940, 13.31934
1091.422, 13.49646
1091.904, 14.43823
1092.386, 14.25281
1092.868, 13.11304
1093.350, 12.05811
1093.832, 11.29175
1094.314, 10.98706
1094.797, 11.91418
1095.279, 12.90894
1095.761, 12.75537
1096.243, 11.35547
1096.725, 10.51819
1097.207, 10.28357
1097.689, 10.32971
1098.171, 10.99146
1098.653, 11.33801
1099.136, 9.710083
1099.618, 7.109009
1100.100, 5.487427
1100.582, 5.659668
1101.064, 6.097656
1101.546, 6.888306
1102.028, 7.584473
1102.510, 7.950317
1102.993, 7.859741
1103.475, 6.649902
1103.957, 4.562866
1104.439, 3.188232
1104.921, 4.229248
1105.403, 4.683960
1105.885, 3.338379
1106.367, 1.539185
1106.849, 2.021606
1107.332, 4.292358
1107.814, 5.532959
1108.296, 5.256104
1108.778, 5.123901
1109.260, 6.774292
1109.742, 8.397583
1110.224, 8.688721
1110.706, 7.919434
1111.188, 7.587158
1111.671, 7.731934
1112.153, 7.799561
1112.635, 7.306030
1113.117, 7.420654
1113.599, 10.17505
1114.081, 13.81787
1114.563, 15.96326
1115.045, 16.00818
1115.528, 16.11438
1116.010, 16.43152
1116.492, 16.21436
1116.974, 14.51038
1117.456, 12.75061
1117.938, 13.93774
1118.420, 16.68579
1118.902, 17.92676
1119.385, 14.71069
1119.867, 13.06702
1120.349, 13.99573
1120.831, 15.40552
1121.313, 14.89990
1121.795, 13.31714
1122.277, 12.98047
1122.759, 13.85205
1123.241, 15.30859
1123.724, 18.43762
1124.206, 20.16699
1124.688, 19.04016
1125.170, 16.83105
1125.652, 16.37671
1126.134, 17.35400
1126.616, 17.53809
1127.098, 16.64612
1127.580, 15.61096
1128.063, 15.20508
1128.545, 14.79810
1129.027, 13.88782
1129.509, 12.66052
1129.991, 11.97644
1130.473, 11.87915
1130.955, 10.49268
1131.437, 6.849609
1131.920, 3.828857
1132.402, 4.871826
1132.884, 7.364136
1133.366, 8.724121
1133.848, 8.652710
1134.330, 8.943848
1134.812, 9.736084
1135.294, 10.06006
1135.776, 9.016113
1136.259, 8.001709
1136.741, 9.120972
1137.223, 11.45093
1137.705, 13.71790
1138.187, 16.33142
1138.669, 16.66125
1139.151, 13.65027
1139.633, 11.05273
1140.115, 11.89185
1140.598, 14.63281
1141.080, 16.21936
1141.562, 16.98608
1142.044, 17.92322
1142.526, 19.97900
1143.008, 21.29944
1143.490, 21.35229
1143.972, 21.21509
1144.455, 22.09143
1144.937, 23.65674
1145.419, 24.98376
1145.901, 25.97839
1146.383, 26.39709
1146.865, 25.71753
1147.347, 24.90784
1147.829, 23.96106
1148.312, 23.33728
1148.794, 24.22021
1149.276, 26.25281
1149.758, 26.74451
1150.240, 25.36047
1150.722, 23.98926
1151.204, 23.99573
1151.686, 24.19543
1152.168, 23.98657
1152.651, 23.43738
1153.133, 22.75977
1153.615, 21.94836
1154.097, 20.85913
1154.579, 19.41211
1155.061, 17.96985
1155.543, 16.83044
1156.025, 15.81531
1156.507, 14.73975
1156.990, 13.61816
1157.472, 12.73303
1157.954, 12.09290
1158.436, 11.71960
1158.918, 11.79590
1159.400, 11.73071
1159.882, 10.87146
1160.364, 9.590820
1160.847, 8.203247
1161.329, 6.612671
1161.811, 5.799927
1162.293, 5.905884
1162.775, 5.968506
1163.257, 5.285645
1163.739, 4.538574
1164.221, 4.714722
1164.703, 5.381470
1165.186, 5.786377
1165.668, 5.788452
1166.150, 5.432251
1166.632, 4.690552
1167.114, 3.655396
1167.596, 1.837524
1168.078, 0.1082760
1168.560, 0.3413090
1169.042, 1.837891
1169.525, 2.725098
1170.007, 2.409790
1170.489, 1.486694
1170.971, 0.3359380
1171.453, 1.923584
1171.935, 1.894897
1172.417, 0.9899900
1172.899, 0.6269530
1173.382, 0.7573240
1173.864, 0.8846440
1174.346, 1.138672
1174.828, 0.8646240
1175.310, 0.2508540
1175.792, 1.513306
1176.274, 2.243530
1176.756, 2.382690
1177.239, 1.445190
1177.721, 0.4891360
1178.203, 1.696533
1178.685, 0.5902100
1179.167, 7.9712003E-02
1179.649, 0.6170650
1180.131, 1.732788
1180.613, 1.543457
1181.095, 0.3656010
1181.578, 1.039307
1182.060, 2.604004
1182.542, 3.772095
1183.024, 4.135742
1183.506, 4.218140
1183.988, 4.193359
1184.470, 4.064697
1184.952, 3.791626
1185.434, 3.419922
1185.917, 3.140747
1186.399, 3.061157
1186.881, 2.755981
1187.363, 1.115845
1187.845, 0.2650150
1188.327, 1.544312
1188.809, 4.212036
1189.291, 5.525269
1189.774, 5.705322
1190.256, 5.955566
1190.738, 6.945190
1191.220, 7.163574
1191.702, 4.862427
1192.184, 2.503784
1192.666, 1.646484
1193.148, 2.096924
1193.630, 2.830566
1194.113, 3.746704
1194.595, 4.212280
1195.077, 3.616211
1195.559, 3.167603
1196.041, 3.958252
1196.523, 4.717529
1197.005, 4.289429
1197.487, 2.786865
1197.969, 2.051758
1198.452, 2.037354
1198.934, 2.347290
1199.416, 3.302856
1199.898, 3.856689
1200.380, 3.060059
1200.862, 1.938843
1201.344, 1.551025
1201.826, 1.896729
1202.309, 1.733887
1202.791, 1.133301
1203.273, 0.9534910
1203.755, 2.414795
1204.237, 3.610718
1204.719, 3.068115
1205.201, 2.022949
1205.683, 1.935303
1206.166, 2.779053
1206.648, 3.935425
1207.130, 5.312256
1207.612, 6.169434
1208.094, 5.445313
1208.576, 4.675659
1209.058, 4.842529
1209.540, 5.380981
1210.022, 5.528931
1210.505, 5.305542
1210.987, 4.942627
1211.469, 4.468384
1211.951, 4.012573
1212.433, 3.710327
1212.915, 3.420898
1213.397, 2.928467
1213.879, 2.487915
1214.361, 2.644043
1214.844, 3.344238
1215.326, 3.697266
1215.808, 3.599976
1216.290, 3.640137
1216.772, 4.921997
1217.254, 5.653564
1217.736, 3.953125
1218.218, 1.495605
1218.701, 2.342651
1219.183, 6.127686
1219.665, 8.365967
1220.147, 8.282715
1220.629, 7.675537
1221.111, 7.302368
1221.593, 7.182129
1222.075, 7.451660
1222.557, 7.890747
1223.040, 7.813110
1223.522, 7.299072
1224.004, 6.818604
1224.486, 6.421753
1224.968, 6.567261
1225.450, 8.536255
1225.932, 10.00525
1226.414, 9.636230
1226.896, 8.122314
1227.379, 7.435791
1227.861, 7.459839
1228.343, 7.569092
1228.825, 7.607056
1229.307, 7.483276
1229.789, 7.243042
1230.271, 6.986206
1230.753, 6.556274
1231.236, 6.132813
1231.718, 6.818604
1232.200, 8.181152
1232.682, 8.389404
1233.164, 6.801147
1233.646, 5.116333
1234.128, 3.243774
1234.610, 2.681885
1235.093, 4.818115
1235.575, 8.269287
1236.057, 8.387817
1236.539, 6.189819
1237.021, 4.438232
1237.503, 3.888062
1237.985, 3.526001
1238.467, 3.426514
1238.949, 3.107788
1239.432, 2.030151
1239.914, 0.6665040
1240.396, 0.6927490
1240.878, 1.705078
1241.360, 2.590698
1241.842, 3.072021
1242.324, 3.378784
1242.806, 3.543701
1243.288, 3.635132
1243.771, 3.817993
1244.253, 3.882202
1244.735, 3.071533
1245.217, 1.944092
1245.699, 1.731323
1246.181, 3.384888
1246.663, 4.134644
1247.145, 3.120117
1247.628, 2.517700
1248.110, 3.861084
1248.592, 5.966431
1249.074, 6.169434
1249.556, 5.244385
1250.038, 4.764038
1250.520, 5.137573
1251.002, 6.208496
1251.484, 8.388062
1251.967, 9.885864
1252.449, 9.379639
1252.931, 7.886597
1253.413, 6.583008
1253.895, 5.574097
1254.377, 5.021851
1254.859, 4.997314
1255.341, 5.355835
1255.823, 6.194336
1256.306, 6.911743
1256.788, 7.098877
1257.270, 7.018799
1257.752, 6.734741
1258.234, 6.523071
1258.716, 6.880493
1259.198, 8.087769
1259.680, 9.113770
1260.163, 10.11365
1260.645, 9.980591
1261.127, 7.034912
1261.609, 4.006470
1262.091, 3.779053
1262.573, 4.802490
1263.055, 4.772949
1263.537, 3.325806
1264.020, 3.390137
1264.502, 4.933472
1264.984, 6.102661
1265.466, 5.394287
1265.948, 4.457397
1266.430, 4.118896
1266.912, 4.289795
1267.394, 5.073242
1267.876, 6.452881
1268.359, 6.235107
1268.841, 4.607422
1269.323, 3.396362
1269.805, 4.236816
1270.287, 4.840942
1270.769, 3.791626
1271.251, 2.465210
1271.733, 1.731201
1272.215, 1.601807
1272.698, 2.767456
1273.180, 4.812134
1273.662, 5.765625
1274.144, 3.788818
1274.626, 1.986206
1275.108, 1.033447
1275.590, 0.4377440
1276.072, 0.2478030
1276.555, 0.8648680
1277.037, 0.6760250
1277.519, 3.8208000E-02
1278.001, 0.4652100
1278.483, 0.4368900
1278.965, 0.4171140
1279.447, 0.9514160
1279.929, 2.427490
1280.411, 3.084106
1280.894, 3.167725
1281.376, 2.963867
1281.858, 2.590698
1282.340, 2.334351
1282.822, 2.407959
1283.304, 2.223877
1283.786, 1.670532
1284.268, 1.458984
1284.750, 2.523804
1285.233, 3.820435
1285.715, 4.111694
1286.197, 3.770020
1286.679, 3.260376
1287.161, 2.255615
1287.643, 3.346313
1288.125, 6.570923
1288.607, 9.089233
1289.090, 8.408936
1289.572, 7.580566
1290.054, 7.413574
1290.536, 7.768799
1291.018, 6.882935
1291.500, 4.595215
1291.982, 4.061768
1292.464, 5.089478
1292.947, 6.042114
1293.429, 6.360107
1293.911, 6.116455
1294.393, 5.113281
1294.875, 3.843506
1295.357, 2.440918
1295.839, 1.023071
1296.321, 0.5935060
1296.803, 0.9259030
1297.286, 1.063354
1297.768, 6.7382999E-02
1298.250, 6.4331003E-02
1298.732, 1.263062
1299.214, 2.632690
1299.696, 1.673584
1300.178, 0.3820800
1300.660, 0.0000000E+00
##END=



