##NAMES=Moorhouseite
##RRUFFID=R130745
##IDEAL CHEMISTRY=Co^2+^S^6+^O_4_&#183;6H_2_O
##LOCALITY=Bou Azer, Tazenakht, Ouarzazate Province, Souss-Massa-Dra√¢ Region, Morocco
##OWNER=RRUFF
##SOURCE=Donald Doell
##DESCRIPTION=Light-pinkish fine grains, associated with pink or dark pink spherocobaltite.
##STATUS=The identification of this mineral has been confirmed by single-crystal X-ray diffraction.
##URL=rruff.info/R130745
139.2411, 0.0000000E+00
139.7232, 1.791138
140.2053, 3.092896
140.6874, 3.308044
141.1696, 2.663147
141.6517, 1.117126
142.1338, 0.1942750
142.6159, 0.1051640
143.0980, 0.3237300
143.5801, 1.664673
144.0623, 2.935364
144.5444, 3.932495
145.0265, 5.126160
145.5086, 7.245911
145.9907, 12.00952
146.4728, 15.59290
146.9550, 16.48340
147.4371, 12.85895
147.9192, 10.54395
148.4013, 10.21143
148.8834, 11.10822
149.3655, 11.90399
149.8477, 12.32178
150.3298, 13.56415
150.8119, 14.84851
151.2940, 19.00812
151.7761, 21.46295
152.2583, 20.62585
152.7404, 17.54053
153.2225, 16.54126
153.7046, 20.44769
154.1867, 24.18207
154.6688, 25.57733
155.1510, 23.87433
155.6331, 21.16559
156.1152, 16.71753
156.5973, 10.97229
157.0794, 6.855103
157.5615, 6.196838
158.0437, 6.556885
158.5258, 6.459351
159.0079, 5.342896
159.4900, 4.004028
159.9721, 2.072998
160.4542, 0.1795040
160.9364, 1.259583
161.4185, 0.5365600
161.9006, 3.166809
162.3827, 4.987854
162.8648, 5.298157
163.3469, 4.890686
163.8291, 3.698669
164.3112, 1.840027
164.7933, 0.3855590
165.2754, 0.2199100
165.7575, 0.6043090
166.2396, 0.7607420
166.7218, 9.2041001E-02
167.2039, 0.6511840
167.6860, 1.008301
168.1681, 0.9733280
168.6502, 0.7446290
169.1323, 0.4200440
169.6145, 1.4099000E-02
170.0966, 0.5749510
170.5787, 1.752197
171.0608, 2.774536
171.5429, 2.557434
172.0250, 1.014771
172.5072, 3.2531999E-02
172.9893, 1.589966
173.4714, 4.646729
173.9535, 6.849915
174.4356, 6.321960
174.9177, 4.785583
175.3999, 4.364807
175.8820, 5.215698
176.3641, 6.322754
176.8462, 6.932373
177.3283, 7.086060
177.8104, 6.901123
178.2926, 6.035156
178.7747, 4.952698
179.2568, 4.412903
179.7389, 4.464966
180.2210, 4.940613
180.7031, 5.936035
181.1853, 7.279602
181.6674, 8.330078
182.1495, 8.497070
182.6316, 8.148315
183.1137, 8.200806
183.5958, 8.780640
184.0780, 9.506409
184.5601, 9.847046
185.0422, 9.867249
185.5243, 9.977478
186.0064, 10.64783
186.4885, 11.64764
186.9707, 11.98285
187.4528, 11.46643
187.9349, 10.69354
188.4170, 10.58765
188.8991, 11.11871
189.3812, 11.75879
189.8634, 12.36871
190.3455, 12.89368
190.8276, 12.94586
191.3097, 12.36255
191.7918, 11.57446
192.2739, 11.32599
192.7561, 11.58539
193.2382, 12.01825
193.7203, 12.60590
194.2024, 13.29840
194.6845, 13.41968
195.1666, 12.76141
195.6488, 11.75934
196.1309, 11.45752
196.6130, 11.98401
197.0951, 12.27521
197.5772, 11.04871
198.0593, 8.274658
198.5415, 6.945313
199.0236, 7.590271
199.5057, 9.389465
199.9878, 10.48096
200.4699, 10.75146
200.9520, 10.90411
201.4342, 11.39471
201.9163, 12.27136
202.3984, 12.79480
202.8805, 12.84094
203.3626, 12.56793
203.8447, 12.33887
204.3269, 12.12976
204.8090, 12.03931
205.2911, 12.12451
205.7732, 12.39105
206.2553, 12.79657
206.7374, 13.36163
207.2196, 14.05286
207.7017, 14.78656
208.1838, 15.57739
208.6659, 16.38220
209.1480, 17.21234
209.6301, 18.13513
210.1123, 18.76953
210.5944, 18.93268
211.0765, 18.88672
211.5586, 19.52856
212.0407, 21.26337
212.5228, 22.78247
213.0050, 23.17517
213.4871, 21.98737
213.9692, 21.34784
214.4513, 21.39899
214.9334, 22.04388
215.4155, 23.17828
215.8977, 25.18420
216.3798, 26.91699
216.8619, 27.72400
217.3440, 27.41980
217.8261, 26.66571
218.3082, 25.20966
218.7904, 23.33075
219.2725, 22.10480
219.7546, 21.64532
220.2367, 21.42480
220.7188, 21.27826
221.2009, 21.43427
221.6831, 21.02106
222.1652, 19.82623
222.6473, 18.10089
223.1294, 16.63959
223.6115, 15.55347
224.0936, 14.60126
224.5758, 13.60376
225.0579, 12.35492
225.5400, 11.62085
226.0221, 11.84448
226.5042, 12.52728
226.9863, 12.21057
227.4685, 10.49945
227.9506, 8.399170
228.4327, 6.213379
228.9148, 3.356506
229.3969, 1.742676
229.8790, 1.817566
230.3612, 2.983337
230.8433, 3.795288
231.3254, 4.125122
231.8075, 4.255493
232.2896, 4.273254
232.7717, 4.079590
233.2539, 3.976807
233.7360, 4.013306
234.2181, 4.113220
234.7002, 4.060974
235.1823, 3.522339
235.6644, 3.322327
236.1466, 3.964233
236.6287, 6.161865
237.1108, 7.174744
237.5929, 6.475403
238.0750, 4.801697
238.5571, 3.669800
239.0393, 3.344788
239.5214, 3.156921
240.0035, 2.882141
240.4856, 2.499878
240.9677, 2.130066
241.4498, 1.795288
241.9320, 1.488892
242.4141, 1.198486
242.8962, 1.005920
243.3783, 0.7305300
243.8604, 0.2371830
244.3425, 0.6598510
244.8247, 1.005676
245.3068, 0.5206910
245.7889, 0.3508300
246.2710, 0.8853150
246.7531, 0.8367310
247.2352, 0.8596190
247.7174, 1.138794
248.1995, 1.683777
248.6816, 2.402466
249.1637, 3.451111
249.6458, 4.539368
250.1279, 5.243652
250.6101, 5.452087
251.0922, 5.470276
251.5743, 5.311218
252.0564, 4.920715
252.5385, 4.731079
253.0206, 4.702271
253.5028, 4.890381
253.9849, 5.359436
254.4670, 6.175415
254.9491, 7.167419
255.4312, 8.456482
255.9133, 10.08746
256.3955, 11.00922
256.8776, 10.87701
257.3597, 10.41364
257.8418, 10.45880
258.3239, 11.42023
258.8061, 11.90710
259.2882, 11.22192
259.7703, 9.411621
260.2524, 9.222595
260.7345, 11.56903
261.2166, 14.36633
261.6988, 15.62390
262.1809, 14.85620
262.6630, 13.77051
263.1451, 12.42896
263.6272, 10.92926
264.1093, 10.31177
264.5915, 10.84094
265.0736, 11.79541
265.5557, 12.76678
266.0378, 13.93896
266.5199, 14.37408
267.0020, 13.63593
267.4842, 12.05481
267.9663, 11.42114
268.4484, 12.03394
268.9305, 12.89349
269.4126, 13.34711
269.8947, 13.35315
270.3769, 13.05347
270.8590, 12.25470
271.3411, 11.24646
271.8232, 11.13861
272.3053, 12.23828
272.7874, 13.30865
273.2696, 13.33557
273.7517, 12.00214
274.2338, 11.97748
274.7159, 13.99402
275.1980, 16.84705
275.6801, 17.43854
276.1623, 15.32520
276.6444, 12.96735
277.1265, 11.56964
277.6086, 11.17261
278.0907, 11.22992
278.5728, 12.00146
279.0550, 12.78436
279.5371, 11.95966
280.0192, 9.265442
280.5013, 7.100647
280.9834, 6.826477
281.4655, 8.379761
281.9477, 9.389221
282.4298, 9.793152
282.9119, 9.766235
283.3940, 9.347290
283.8761, 8.514648
284.3582, 7.941406
284.8404, 8.059814
285.3225, 8.692932
285.8046, 8.683350
286.2867, 7.904541
286.7688, 7.055115
287.2509, 7.190430
287.7331, 8.212036
288.2152, 8.644531
288.6973, 7.737427
289.1794, 5.990479
289.6615, 5.184570
290.1436, 5.400574
290.6258, 5.647827
291.1079, 4.801514
291.5900, 3.099365
292.0721, 1.797363
292.5542, 1.340820
293.0363, 1.385193
293.5185, 1.168762
294.0006, 0.7009890
294.4827, 0.4231570
294.9648, 0.9214480
295.4469, 1.910950
295.9290, 2.444153
296.4112, 2.198486
296.8933, 1.668213
297.3754, 1.617432
297.8575, 1.979248
298.3396, 2.392883
298.8217, 2.602539
299.3039, 2.691284
299.7860, 2.826355
300.2681, 3.032471
300.7502, 3.254944
301.2323, 3.386719
301.7144, 3.470764
302.1966, 3.634827
302.6787, 4.001770
303.1608, 4.490967
303.6429, 5.075134
304.1250, 5.791260
304.6071, 6.252136
305.0893, 5.992554
305.5714, 5.264282
306.0535, 4.504517
306.5356, 3.765076
307.0177, 3.170471
307.4998, 3.058411
307.9820, 3.442932
308.4641, 3.555725
308.9462, 2.355591
309.4283, 0.6741940
309.9104, 0.3400880
310.3925, 0.4405520
310.8747, 1.500488
311.3568, 1.826172
311.8389, 1.493286
312.3210, 1.026489
312.8031, 0.4680790
313.2852, 2.5513001E-02
313.7674, 7.0496000E-02
314.2495, 0.6494140
314.7316, 1.177917
315.2137, 0.7362060
315.6958, 0.3670040
316.1779, 1.072388
316.6601, 0.4016720
317.1422, 0.4234620
317.6243, 0.4480590
318.1064, 1.104919
318.5885, 2.141541
319.0706, 1.595337
319.5528, 8.1786998E-02
320.0349, 1.209656
320.5170, 2.182312
320.9991, 2.719971
321.4812, 2.542786
321.9633, 1.221375
322.4455, 0.4033200
322.9276, 0.8221440
323.4097, 1.823608
323.8918, 2.590393
324.3739, 2.524475
324.8560, 2.619690
325.3382, 3.257751
325.8203, 4.589905
326.3024, 5.719849
326.7845, 6.752563
327.2666, 7.408447
327.7487, 7.468811
328.2309, 6.682129
328.7130, 5.576050
329.1951, 3.773743
329.6772, 1.466675
330.1593, 0.5597530
330.6414, 2.237976
331.1236, 4.157776
331.6057, 5.038757
332.0878, 3.803223
332.5699, 3.541443
333.0520, 5.057739
333.5341, 7.440491
334.0163, 8.113831
334.4984, 5.945740
334.9805, 3.989441
335.4626, 3.706970
335.9447, 5.814636
336.4268, 6.775513
336.9090, 6.170166
337.3911, 4.865479
337.8732, 4.367249
338.3553, 5.004089
338.8374, 5.310791
339.3195, 4.565063
339.8017, 2.846191
340.2838, 2.363464
340.7659, 3.448120
341.2480, 4.954590
341.7301, 5.702820
342.2122, 5.643250
342.6944, 5.490601
343.1765, 5.434143
343.6586, 5.377319
344.1407, 4.868835
344.6228, 3.857178
345.1049, 2.963684
345.5871, 2.751038
346.0692, 3.125183
346.5513, 3.495667
347.0334, 3.809387
347.5155, 4.027893
347.9977, 4.058350
348.4798, 3.913086
348.9619, 3.696228
349.4440, 3.384338
349.9261, 3.054138
350.4082, 2.787292
350.8904, 2.544678
351.3725, 2.669373
351.8546, 4.145569
352.3367, 6.344482
352.8188, 7.630737
353.3009, 6.657043
353.7831, 4.726746
354.2652, 3.156738
354.7473, 1.959167
355.2294, 1.273560
355.7115, 1.622375
356.1936, 2.418091
356.6758, 2.858887
357.1579, 2.385559
357.6400, 1.916870
358.1221, 2.362427
358.6042, 3.439880
359.0863, 4.137878
359.5685, 3.571350
360.0506, 2.674316
360.5327, 2.224060
361.0148, 2.633667
361.4969, 2.746216
361.9790, 1.568848
362.4612, 0.1441040
362.9433, 1.141418
363.4254, 0.7597050
363.9075, 0.1513670
364.3896, 1.493835
364.8717, 3.373596
365.3539, 4.670959
365.8360, 4.785217
366.3181, 4.381165
366.8002, 4.075012
367.2823, 4.026367
367.7644, 3.955627
368.2466, 3.927429
368.7287, 3.900696
369.2108, 3.553406
369.6929, 2.522156
370.1750, 1.487549
370.6571, 0.8031010
371.1393, 0.6011960
371.6214, 0.5421750
372.1035, 0.7931520
372.5856, 1.142944
373.0677, 1.044006
373.5498, 0.1466060
374.0320, 0.5684810
374.5141, 0.6419680
374.9962, 2.0081000E-02
375.4783, 0.7031250
375.9604, 1.643494
376.4425, 2.358826
376.9247, 2.342102
377.4068, 1.525452
377.8889, 0.5300900
378.3710, 0.6559450
378.8531, 1.860107
379.3352, 2.211548
379.8174, 1.602661
380.2995, 0.8746950
380.7816, 0.7649540
381.2637, 1.181824
381.7458, 1.331360
382.2279, 0.9959720
382.7101, 0.5749510
383.1922, 0.8978880
383.6743, 1.839050
384.1564, 2.518372
384.6385, 2.333008
385.1206, 1.579834
385.6028, 0.7313840
386.0849, 0.2222900
386.5670, 0.9215700
387.0491, 0.7564090
387.5312, 0.1087040
388.0133, 0.2359620
388.4955, 0.4312740
388.9776, 1.178284
389.4597, 0.9264530
389.9418, 0.1508180
390.4239, 0.9939580
390.9060, 0.9088130
391.3882, 0.3336790
391.8703, 0.4243160
392.3524, 1.584595
392.8345, 2.329651
393.3166, 1.876160
393.7987, 0.7463990
394.2809, 6.1650001E-03
394.7630, 0.2293090
395.2451, 0.6781620
395.7272, 0.9957280
396.2093, 1.107849
396.6914, 1.353760
397.1736, 2.046143
397.6557, 2.774109
398.1378, 3.160828
398.6199, 2.411194
399.1020, 2.169067
399.5841, 3.121643
400.0663, 4.969421
400.5484, 5.671570
401.0305, 4.258667
401.5126, 2.750732
401.9947, 2.191956
402.4768, 3.198730
402.9590, 3.673035
403.4411, 3.270752
403.9232, 2.618103
404.4053, 2.984436
404.8874, 4.860474
405.3695, 6.289612
405.8517, 6.428406
406.3338, 5.410645
406.8159, 5.265259
407.2980, 6.153259
407.7801, 7.373596
408.2622, 8.203064
408.7444, 8.668396
409.2265, 9.373779
409.7086, 10.47943
410.1907, 11.81073
410.6728, 13.15973
411.1549, 14.49872
411.6371, 15.53455
412.1192, 15.66980
412.6013, 15.40485
413.0834, 15.73346
413.5655, 16.69702
414.0476, 18.48682
414.5298, 22.56128
415.0119, 27.52216
415.4940, 30.64252
415.9761, 28.80841
416.4582, 26.17810
416.9403, 26.61255
417.4225, 29.68048
417.9046, 32.76501
418.3867, 34.45453
418.8688, 35.44031
419.3509, 36.24280
419.8330, 37.00629
420.3152, 37.49182
420.7973, 37.43164
421.2794, 37.16119
421.7615, 37.16296
422.2436, 38.02301
422.7257, 38.67975
423.2079, 38.83685
423.6900, 38.47406
424.1721, 37.61823
424.6542, 35.79559
425.1363, 33.76898
425.6184, 32.08002
426.1006, 31.17627
426.5827, 29.90631
427.0648, 27.81934
427.5469, 25.29163
428.0290, 23.83606
428.5111, 24.00146
428.9933, 24.12628
429.4754, 23.41162
429.9575, 21.71234
430.4396, 20.16241
430.9217, 18.69183
431.4038, 17.42944
431.8860, 16.63531
432.3681, 16.36273
432.8502, 16.35223
433.3323, 16.69995
433.8144, 17.12457
434.2965, 16.64014
434.7787, 15.27557
435.2608, 14.26697
435.7429, 15.08978
436.2250, 16.86395
436.7071, 17.36365
437.1892, 16.19904
437.6714, 14.70172
438.1535, 14.14789
438.6356, 14.27319
439.1177, 14.54797
439.5998, 15.02441
440.0819, 15.41333
440.5641, 15.13556
441.0462, 14.24750
441.5283, 13.86237
442.0104, 14.97803
442.4925, 16.73035
442.9746, 18.38574
443.4568, 19.77893
443.9389, 21.08966
444.4210, 22.48724
444.9031, 23.75732
445.3852, 24.50812
445.8673, 23.96338
446.3495, 23.58490
446.8316, 23.85126
447.3137, 24.88995
447.7958, 25.75891
448.2779, 26.27399
448.7600, 26.79132
449.2422, 27.55206
449.7243, 28.58362
450.2064, 29.87469
450.6885, 31.82501
451.1706, 33.87689
451.6527, 34.22089
452.1349, 32.32892
452.6170, 30.60364
453.0991, 30.20282
453.5812, 31.06439
454.0633, 31.71063
454.5454, 32.12762
455.0276, 32.40210
455.5097, 32.63702
455.9918, 32.80963
456.4739, 32.84644
456.9560, 32.86151
457.4381, 32.53290
457.9203, 30.78290
458.4024, 28.00928
458.8845, 26.02777
459.3666, 27.16632
459.8488, 29.16559
460.3309, 28.77631
460.8130, 25.51715
461.2951, 22.69934
461.7772, 23.37396
462.2593, 25.56976
462.7415, 26.96204
463.2236, 26.32343
463.7057, 25.22925
464.1878, 23.86847
464.6699, 22.46106
465.1520, 21.75562
465.6342, 22.40613
466.1163, 23.44513
466.5984, 24.49469
467.0805, 25.51581
467.5626, 26.58881
468.0447, 27.94580
468.5269, 29.21417
469.0090, 29.98340
469.4911, 29.87207
469.9732, 29.97168
470.4553, 30.46442
470.9374, 31.27856
471.4196, 32.25720
471.9017, 33.50177
472.3838, 34.41290
472.8659, 34.40204
473.3480, 33.46204
473.8301, 33.71869
474.3123, 35.42261
474.7944, 37.43604
475.2765, 38.08685
475.7586, 37.70044
476.2407, 38.05420
476.7228, 40.02612
477.2050, 42.64191
477.6871, 44.40131
478.1692, 45.44550
478.6513, 46.38977
479.1334, 47.86285
479.6155, 49.33246
480.0977, 50.01953
480.5798, 49.61188
481.0619, 49.66632
481.5440, 51.70532
482.0261, 54.64313
482.5082, 57.23077
482.9904, 59.16602
483.4725, 60.63452
483.9546, 61.60638
484.4367, 62.09253
484.9188, 62.39465
485.4009, 62.38513
485.8831, 62.47717
486.3652, 62.75488
486.8473, 63.11176
487.3294, 63.41187
487.8115, 63.59271
488.2936, 63.85522
488.7758, 64.46295
489.2579, 65.65771
489.7400, 66.33069
490.2221, 66.09760
490.7042, 65.40863
491.1863, 65.63751
491.6685, 66.86346
492.1506, 67.65753
492.6327, 66.99750
493.1148, 65.21539
493.5969, 63.84827
494.0790, 62.93237
494.5612, 62.06482
495.0433, 60.91833
495.5254, 59.59619
496.0075, 58.08710
496.4896, 56.07971
496.9717, 54.17664
497.4539, 53.26910
497.9360, 53.01654
498.4181, 52.56372
498.9002, 51.20007
499.3823, 49.72424
499.8644, 48.77222
500.3466, 48.40961
500.8287, 47.59045
501.3108, 45.53125
501.7929, 43.13190
502.2750, 41.08264
502.7571, 39.35986
503.2393, 38.09430
503.7214, 37.82159
504.2035, 37.86993
504.6856, 36.70007
505.1677, 33.43774
505.6498, 30.60095
506.1320, 29.15302
506.6141, 29.01093
507.0962, 27.96393
507.5783, 25.85114
508.0604, 23.75574
508.5425, 22.53918
509.0247, 22.07788
509.5068, 21.76251
509.9889, 21.68048
510.4710, 21.37720
510.9531, 19.81549
511.4352, 17.40369
511.9174, 15.55103
512.3995, 15.19415
512.8816, 15.45520
513.3637, 15.37683
513.8458, 14.98010
514.3279, 14.41638
514.8101, 13.69830
515.2922, 12.87396
515.7743, 11.95667
516.2564, 10.90381
516.7385, 9.855164
517.2206, 8.806030
517.7028, 7.805237
518.1849, 6.916748
518.6670, 6.260376
519.1491, 5.591980
519.6312, 4.730896
520.1133, 3.815857
520.5955, 3.454529
521.0776, 4.083435
521.5597, 4.579468
522.0418, 4.402649
522.5239, 3.477844
523.0060, 2.831299
523.4882, 2.459839
523.9703, 2.406189
524.4524, 3.009216
524.9345, 4.180908
525.4166, 4.570557
525.8987, 3.686157
526.3809, 2.378113
526.8630, 2.180481
527.3451, 2.786133
527.8272, 2.966370
528.3093, 1.229065
528.7914, 0.7700810
529.2736, 0.9111330
529.7557, 0.6938480
530.2378, 2.106506
530.7199, 1.751038
531.2020, 1.002380
531.6841, 1.137146
532.1663, 3.122192
532.6484, 4.349426
533.1305, 3.457397
533.6126, 1.646973
534.0947, 0.6351930
534.5768, 1.314392
535.0590, 1.925720
535.5411, 2.361877
536.0232, 2.574524
536.5053, 2.045471
536.9874, 0.3110350
537.4695, 1.079407
537.9517, 1.158081
538.4338, 0.1597290
538.9159, 1.213806
539.3980, 2.049500
539.8801, 2.438293
540.3622, 1.731628
540.8444, 0.2215580
541.3265, 0.6269530
541.8086, 0.2433470
542.2907, 0.3930050
542.7728, 0.3037720
543.2549, 1.847351
543.7371, 2.817871
544.2192, 1.999878
544.7013, 0.7067260
545.1834, 0.1679690
545.6655, 0.6120000
546.1476, 0.8182980
546.6298, 0.9105830
547.1119, 0.7812500
547.5940, 0.2979740
548.0761, 0.9367070
548.5582, 1.714355
549.0403, 1.701721
549.5225, 1.306580
550.0046, 1.015808
550.4867, 0.9391480
550.9688, 0.7188110
551.4509, 0.1568600
551.9330, 0.5469970
552.4152, 0.4450680
552.8973, 0.6791380
553.3794, 1.373047
553.8615, 0.5100710
554.3436, 1.522034
554.8257, 2.665100
555.3079, 2.883179
555.7900, 2.573608
556.2721, 1.655579
556.7542, 0.5499880
557.2363, 0.1199340
557.7184, 0.7382200
558.2006, 1.517517
558.6827, 1.904358
559.1648, 1.961853
559.6469, 1.801819
560.1290, 1.071716
560.6111, 0.5321040
561.0933, 0.6545410
561.5754, 1.324890
562.0575, 1.740051
562.5396, 1.678772
563.0217, 1.444397
563.5038, 1.176453
563.9860, 0.9314580
564.4681, 0.2683110
564.9502, 1.156250
565.4323, 2.475769
565.9144, 2.698669
566.3965, 1.721313
566.8787, 0.8898930
567.3608, 0.3765870
567.8429, 0.1132200
568.3250, 0.2091060
568.8071, 0.5517580
569.2892, 0.5177000
569.7714, 0.4680180
570.2535, 1.789368
570.7356, 2.698669
571.2177, 3.211487
571.6998, 3.352295
572.1819, 2.727783
572.6641, 2.015381
573.1462, 1.731567
573.6283, 1.966125
574.1104, 2.420532
574.5925, 3.270630
575.0746, 4.147095
575.5568, 4.729736
576.0389, 4.928467
576.5210, 4.868347
577.0031, 4.349792
577.4852, 3.664917
577.9673, 3.497009
578.4495, 4.096130
578.9316, 4.401489
579.4137, 3.839172
579.8958, 2.785950
580.3779, 3.075012
580.8600, 4.768188
581.3422, 6.434082
581.8243, 6.884521
582.3064, 6.627502
582.7885, 6.727722
583.2706, 7.259338
583.7527, 8.202698
584.2349, 10.01489
584.7170, 12.04584
585.1991, 13.42371
585.6812, 13.48724
586.1633, 13.61871
586.6454, 14.63403
587.1276, 16.05676
587.6097, 17.02344
588.0918, 16.62207
588.5739, 16.50391
589.0560, 17.10785
589.5381, 18.32990
590.0203, 19.39117
590.5024, 20.16565
590.9845, 21.05212
591.4666, 22.15765
591.9487, 23.48944
592.4308, 25.59003
592.9130, 28.62238
593.3951, 31.65454
593.8772, 33.53290
594.3593, 34.62537
594.8414, 36.11591
595.3235, 38.20740
595.8057, 40.52722
596.2878, 42.64801
596.7699, 44.70386
597.2520, 47.01495
597.7341, 49.45929
598.2162, 52.44440
598.6984, 56.85822
599.1805, 62.04559
599.6626, 66.08496
600.1447, 67.35071
600.6268, 68.44391
601.1089, 70.32642
601.5911, 73.15314
602.0732, 75.55304
602.5553, 77.51233
603.0374, 79.07623
603.5195, 80.15228
604.0016, 80.70203
604.4838, 81.51056
604.9659, 82.91992
605.4480, 83.59546
605.9301, 80.98108
606.4122, 75.90997
606.8943, 71.81091
607.3765, 70.11572
607.8586, 68.95209
608.3407, 66.27344
608.8228, 62.50427
609.3049, 58.75781
609.7870, 54.29108
610.2692, 50.98657
610.7513, 50.73749
611.2334, 53.20435
611.7155, 54.24860
612.1976, 51.92957
612.6797, 48.91467
613.1619, 46.29413
613.6440, 43.97058
614.1261, 42.46259
614.6082, 41.95319
615.0903, 41.95007
615.5724, 42.18286
616.0546, 42.66772
616.5367, 42.72888
617.0188, 42.19214
617.5009, 41.45306
617.9830, 41.25104
618.4651, 41.36426
618.9473, 40.97565
619.4294, 39.25055
619.9115, 37.52417
620.3936, 37.57593
620.8757, 38.75201
621.3578, 39.11017
621.8400, 36.83862
622.3221, 34.35559
622.8042, 32.82648
623.2863, 32.32349
623.7684, 31.93781
624.2505, 32.19086
624.7327, 32.08069
625.2148, 30.93457
625.6969, 28.28552
626.1790, 26.47424
626.6611, 25.71039
627.1432, 25.36218
627.6254, 24.92963
628.1075, 24.35645
628.5896, 23.37720
629.0717, 21.84888
629.5538, 20.19244
630.0359, 18.85248
630.5181, 17.83374
631.0002, 17.14374
631.4823, 17.32709
631.9644, 17.30005
632.4465, 15.89087
632.9286, 13.56732
633.4108, 11.82922
633.8929, 11.64838
634.3750, 11.68750
634.8571, 11.47864
635.3392, 10.99921
635.8214, 10.32086
636.3035, 9.299438
636.7856, 8.300232
637.2677, 7.562439
637.7498, 7.145630
638.2319, 6.567200
638.7141, 5.742126
639.1962, 5.108337
639.6783, 5.463623
640.1604, 6.460999
640.6425, 6.622620
641.1246, 5.480530
641.6068, 4.127563
642.0889, 3.426575
642.5710, 3.334717
643.0531, 3.789551
643.5352, 5.717163
644.0173, 7.189453
644.4995, 6.859802
644.9816, 5.413635
645.4637, 4.841858
645.9458, 6.445068
646.4279, 7.852600
646.9100, 8.484741
647.3922, 8.412354
647.8743, 8.180847
648.3564, 7.607666
648.8385, 7.341553
649.3206, 7.992249
649.8027, 9.408691
650.2849, 10.06842
650.7670, 9.907532
651.2491, 9.731628
651.7312, 10.47717
652.2133, 11.64313
652.6954, 12.34833
653.1776, 12.32025
653.6597, 12.27777
654.1418, 12.85168
654.6239, 13.59955
655.1060, 14.02991
655.5881, 13.63232
656.0703, 13.40155
656.5524, 13.61499
657.0345, 13.98016
657.5166, 13.94061
657.9987, 13.25494
658.4808, 12.89221
658.9630, 13.30640
659.4451, 14.11926
659.9272, 13.78009
660.4093, 12.21332
660.8914, 11.07904
661.3735, 11.95538
661.8557, 13.63483
662.3378, 13.83960
662.8199, 12.69098
663.3020, 11.27130
663.7841, 9.898193
664.2662, 8.707092
664.7484, 7.845703
665.2305, 7.316650
665.7126, 7.305664
666.1947, 8.430908
666.6768, 9.698792
667.1589, 10.44073
667.6411, 10.26398
668.1232, 10.29126
668.6053, 10.51196
669.0874, 10.81787
669.5695, 11.00873
670.0516, 11.08014
670.5338, 11.43823
671.0159, 12.24005
671.4980, 13.16614
671.9801, 13.90002
672.4622, 14.37952
672.9443, 14.41046
673.4265, 13.16071
673.9086, 12.17438
674.3907, 12.88385
674.8728, 14.78564
675.3549, 16.20135
675.8370, 16.37048
676.3192, 16.26373
676.8013, 16.03699
677.2834, 15.74054
677.7655, 15.99475
678.2476, 17.01080
678.7297, 18.14648
679.2119, 19.18567
679.6940, 20.11200
680.1761, 20.34283
680.6582, 19.80316
681.1403, 19.30133
681.6224, 19.62854
682.1046, 20.44104
682.5867, 21.11487
683.0688, 21.57660
683.5509, 21.87836
684.0330, 21.86212
684.5151, 21.80322
684.9973, 22.05865
685.4794, 23.55890
685.9615, 23.94403
686.4436, 21.69659
686.9257, 18.69525
687.4078, 17.24811
687.8900, 18.17767
688.3721, 18.41357
688.8542, 17.37189
689.3363, 15.61011
689.8184, 14.23535
690.3005, 13.22791
690.7827, 12.22894
691.2648, 10.89880
691.7469, 9.723938
692.2290, 9.808044
692.7111, 10.72064
693.1932, 11.06964
693.6754, 9.257751
694.1575, 7.462402
694.6396, 7.246216
695.1217, 8.467712
695.6038, 8.869751
696.0859, 7.038452
696.5681, 5.457581
697.0502, 5.318176
697.5323, 6.726746
698.0144, 6.622375
698.4965, 4.595093
698.9786, 2.545959
699.4608, 2.132385
699.9429, 2.964355
700.4250, 3.112183
700.9071, 2.430786
701.3892, 1.950623
701.8713, 3.273865
702.3535, 5.037231
702.8356, 5.391296
703.3177, 3.526794
703.7998, 1.671143
704.2819, 0.5804440
704.7640, 3.0090000E-02
705.2462, 0.4488530
705.7283, 0.6477660
706.2104, 0.7708130
706.6925, 0.8416750
707.1746, 0.8321530
707.6567, 0.6390990
708.1389, 0.2465820
708.6210, 1.3916000E-02
709.1031, 7.5745001E-02
709.5852, 0.2377320
710.0673, 0.1331790
710.5494, 0.1494750
711.0316, 0.3489380
711.5137, 0.4259030
711.9958, 0.3070680
712.4779, 0.2678830
712.9600, 1.101990
713.4421, 1.591309
713.9243, 1.210754
714.4064, 0.8461910
714.8885, 0.7011110
715.3706, 0.7803960
715.8527, 1.289734
716.3348, 2.558960
716.8170, 3.257202
717.2991, 2.378845
717.7812, 0.3499760
718.2633, 0.6032100
718.7454, 0.5020750
719.2275, 0.1196900
719.7097, 1.569702
720.1918, 2.948242
720.6739, 2.973328
721.1560, 1.537659
721.6381, 8.2153000E-02
722.1202, 1.061584
722.6024, 1.733337
723.0845, 1.752686
723.5666, 0.8928830
724.0487, 2.4780000E-02
724.5308, 1.090454
725.0129, 1.895386
725.4951, 1.793091
725.9772, 0.7210690
726.4593, 0.1800540
726.9414, 0.8430180
727.4235, 1.256592
727.9056, 1.324036
728.3878, 1.136353
728.8699, 0.8883060
729.3520, 0.6121830
729.8341, 0.2984620
730.3162, 0.3662720
730.7983, 0.9578860
731.2805, 0.9497070
731.7626, 0.6817020
732.2447, 1.744568
732.7268, 1.784058
733.2089, 1.302246
733.6910, 1.126099
734.1732, 1.345703
734.6553, 1.454773
735.1374, 1.227234
735.6195, 1.024658
736.1016, 1.755432
736.5837, 3.195251
737.0659, 4.386047
737.5480, 5.009644
738.0301, 5.119080
738.5122, 4.231689
738.9943, 2.835876
739.4764, 2.208069
739.9586, 3.776917
740.4407, 5.126465
740.9228, 5.219055
741.4049, 4.370422
741.8870, 3.998230
742.3691, 4.317749
742.8513, 4.550781
743.3334, 4.382935
743.8155, 3.911865
744.2976, 3.464600
744.7797, 3.055054
745.2618, 2.811829
745.7440, 2.768188
746.2261, 2.967163
746.7082, 3.704895
747.1903, 4.874817
747.6724, 5.601624
748.1545, 5.246094
748.6367, 4.549072
749.1188, 3.675049
749.6009, 2.541870
750.0830, 2.456238
750.5651, 4.094910
751.0472, 5.532227
751.5294, 5.405212
752.0115, 3.773132
752.4936, 2.645874
752.9757, 2.017029
753.4578, 1.868591
753.9399, 2.751160
754.4221, 3.883545
754.9042, 3.893494
755.3863, 2.552856
755.8684, 1.375244
756.3505, 1.461792
756.8326, 1.816162
757.3148, 1.576904
757.7969, 0.1543580
758.2790, 0.4740600
758.7611, 0.1412960
759.2432, 0.7615360
759.7253, 2.043701
760.2075, 3.727539
760.6896, 5.156677
761.1717, 6.332092
761.6538, 7.020813
762.1359, 6.784302
762.6180, 5.915100
763.1002, 4.860962
763.5823, 3.551575
764.0644, 2.718689
764.5465, 3.290955
765.0286, 4.309631
765.5107, 4.743286
765.9929, 3.930786
766.4750, 3.367249
766.9571, 3.136841
767.4392, 3.052551
767.9213, 2.822937
768.4034, 2.441345
768.8856, 2.384277
769.3677, 2.630249
769.8498, 3.478394
770.3319, 6.168640
770.8140, 9.604919
771.2961, 11.41138
771.7783, 9.834106
772.2604, 8.501221
772.7425, 10.23810
773.2246, 13.10736
773.7067, 14.14783
774.1888, 11.53583
774.6710, 9.182373
775.1531, 7.414917
775.6352, 6.330200
776.1173, 6.129333
776.5994, 6.811707
777.0815, 6.925598
777.5637, 5.789917
778.0458, 4.427551
778.5279, 4.614014
779.0100, 5.870728
779.4921, 6.913940
779.9742, 6.933105
780.4564, 6.752014
780.9385, 6.525940
781.4206, 6.378662
781.9027, 6.627136
782.3848, 7.698425
782.8669, 8.279785
783.3491, 8.149536
783.8312, 7.579590
784.3133, 6.964661
784.7954, 6.282043
785.2775, 5.666138
785.7596, 5.084656
786.2418, 4.731140
786.7239, 5.082092
787.2060, 5.878967
787.6881, 6.501404
788.1702, 6.597168
788.6523, 6.497375
789.1345, 6.119080
789.6166, 5.701599
790.0987, 5.834473
790.5808, 6.872192
791.0629, 7.735718
791.5450, 8.138794
792.0272, 8.220276
792.5093, 8.335815
792.9914, 8.479980
793.4735, 8.582397
793.9556, 8.655396
794.4377, 8.632263
794.9199, 8.192688
795.4020, 7.583618
795.8841, 7.465271
796.3662, 9.176636
796.8483, 10.25745
797.3304, 8.960388
797.8126, 6.341187
798.2947, 5.920532
798.7768, 8.709900
799.2589, 10.86963
799.7410, 11.26385
800.2231, 10.36542
800.7053, 8.996399
801.1874, 7.307495
801.6695, 6.100281
802.1516, 5.909729
802.6337, 6.262329
803.1158, 6.902039
803.5980, 7.747925
804.0801, 8.614868
804.5622, 9.529358
805.0443, 10.34186
805.5264, 11.04370
806.0085, 11.61163
806.4907, 12.05688
806.9728, 12.46021
807.4549, 12.18970
807.9370, 10.65527
808.4191, 8.730591
808.9012, 8.358887
809.3834, 9.212280
809.8655, 10.11658
810.3476, 10.41907
810.8297, 10.67285
811.3118, 11.63708
811.7939, 12.85773
812.2761, 12.91187
812.7582, 10.09698
813.2403, 8.262329
813.7224, 8.509033
814.2045, 10.08063
814.6866, 10.81891
815.1688, 10.70544
815.6509, 10.16278
816.1330, 8.862183
816.6151, 7.809021
817.0972, 8.904846
817.5793, 11.43445
818.0615, 13.59674
818.5436, 14.55872
819.0257, 15.01886
819.5078, 14.92175
819.9899, 14.51483
820.4720, 14.51025
820.9542, 15.18549
821.4363, 15.55377
821.9184, 15.31616
822.4005, 14.74384
822.8826, 14.51880
823.3647, 14.55804
823.8469, 14.34027
824.3290, 13.39978
824.8111, 12.53174
825.2932, 12.61322
825.7753, 13.28088
826.2574, 13.79962
826.7396, 13.32635
827.2217, 13.55347
827.7038, 15.38483
828.1859, 17.74835
828.6681, 18.48639
829.1502, 17.32788
829.6323, 16.44867
830.1144, 16.43237
830.5966, 16.69855
831.0787, 16.05896
831.5608, 15.01038
832.0429, 14.82007
832.5250, 16.66705
833.0071, 18.25476
833.4893, 18.10638
833.9714, 17.06781
834.4535, 16.48315
834.9356, 16.61322
835.4177, 16.77216
835.8998, 16.68762
836.3820, 16.90778
836.8641, 18.93365
837.3462, 22.39038
837.8283, 23.91754
838.3104, 22.47516
838.7925, 20.15424
839.2747, 18.55023
839.7568, 17.50629
840.2389, 16.80798
840.7210, 16.46246
841.2031, 16.34674
841.6852, 16.55139
842.1674, 16.90253
842.6495, 17.29315
843.1316, 17.77649
843.6137, 18.00305
844.0958, 17.88715
844.5779, 17.80908
845.0601, 18.48022
845.5422, 19.46191
846.0243, 19.68005
846.5064, 18.77618
846.9885, 18.13287
847.4706, 18.93274
847.9528, 20.05408
848.4349, 20.46704
848.9170, 19.74176
849.3991, 19.31061
849.8812, 19.15460
850.3633, 19.27917
850.8455, 19.84100
851.3276, 20.78943
851.8097, 21.63824
852.2918, 22.28796
852.7739, 22.34064
853.2560, 20.99603
853.7382, 19.32123
854.2203, 18.24060
854.7024, 17.89624
855.1845, 18.26355
855.6666, 20.24408
856.1487, 21.49420
856.6309, 20.68347
857.1130, 17.90063
857.5951, 16.64844
858.0772, 17.00488
858.5593, 18.23138
859.0414, 20.78638
859.5236, 23.26276
860.0057, 22.99078
860.4878, 20.35785
860.9699, 18.24762
861.4520, 18.27661
861.9341, 18.78510
862.4163, 18.91144
862.8984, 18.79297
863.3805, 19.58765
863.8626, 21.71667
864.3447, 23.21735
864.8268, 23.15820
865.3090, 22.14160
865.7911, 21.62604
866.2732, 21.43988
866.7553, 20.96472
867.2374, 19.23914
867.7195, 17.77173
868.2017, 17.85596
868.6838, 18.85938
869.1659, 18.98328
869.6480, 17.28674
870.1301, 16.29865
870.6122, 16.80646
871.0944, 17.93909
871.5765, 17.78778
872.0586, 16.49585
872.5407, 15.05566
873.0228, 13.74371
873.5049, 12.61920
873.9871, 11.45105
874.4692, 10.45087
874.9513, 9.998047
875.4334, 10.74841
875.9155, 11.44019
876.3976, 12.19354
876.8798, 12.68292
877.3619, 12.22565
877.8440, 10.68390
878.3261, 10.03998
878.8082, 10.63873
879.2903, 11.66718
879.7725, 12.38538
880.2546, 12.85614
880.7367, 13.18079
881.2188, 13.34186
881.7009, 13.22076
882.1830, 12.57831
882.6652, 11.92944
883.1473, 11.55096
883.6294, 11.41016
884.1115, 11.10950
884.5936, 10.70654
885.0757, 10.29755
885.5579, 9.550720
886.0400, 8.766479
886.5221, 8.853699
887.0042, 9.848572
887.4863, 10.40033
887.9684, 8.964233
888.4506, 7.399170
888.9327, 6.868225
889.4148, 7.350342
889.8969, 7.727295
890.3790, 8.036865
890.8611, 8.131226
891.3433, 7.763550
891.8254, 7.210510
892.3075, 7.416992
892.7896, 8.148926
893.2717, 8.477661
893.7538, 7.443542
894.2360, 6.361450
894.7181, 5.766235
895.2002, 5.765625
895.6823, 6.715149
896.1644, 9.443787
896.6465, 11.15057
897.1287, 11.16528
897.6108, 10.24768
898.0929, 9.712158
898.5750, 9.499634
899.0571, 9.352966
899.5392, 9.359375
900.0214, 8.986389
900.5035, 7.133240
900.9856, 4.984863
901.4677, 3.929199
901.9498, 5.146301
902.4319, 5.927795
902.9141, 6.208923
903.3962, 6.120911
903.8783, 5.642334
904.3604, 4.831360
904.8425, 4.228088
905.3246, 3.853699
905.8068, 3.825867
906.2889, 4.932617
906.7710, 5.944946
907.2531, 5.493835
907.7352, 3.334778
908.2173, 1.546692
908.6995, 6.4025998E-02
909.1816, 0.4984740
909.6637, 0.4831540
910.1458, 2.684692
910.6279, 4.093811
911.1100, 4.703857
911.5922, 4.321533
912.0743, 1.496216
912.5564, 1.327393
913.0385, 1.081726
913.5206, 1.295227
914.0027, 2.907104
914.4849, 2.508545
914.9670, 1.766479
915.4491, 0.6924440
915.9312, 0.3301390
916.4133, 0.2973020
916.8954, 0.7637330
917.3776, 1.470703
917.8597, 1.423218
918.3418, 1.127136
918.8239, 1.118347
919.3060, 1.218323
919.7881, 1.148010
920.2703, 0.6093750
920.7524, 0.3849490
921.2345, 0.8277590
921.7166, 1.349121
922.1987, 1.409119
922.6808, 0.9818730
923.1630, 0.8366090
923.6451, 1.025452
924.1272, 1.175049
924.6093, 0.7406620
925.0914, 0.2271730
925.5735, 0.1784670
926.0557, 0.6364750
926.5378, 1.429504
927.0199, 3.239990
927.5020, 4.558716
927.9841, 4.757507
928.4662, 4.013123
928.9484, 3.416382
929.4305, 2.964233
929.9126, 2.290710
930.3947, 0.9206540
930.8768, 0.4198610
931.3589, 0.6810300
931.8411, 0.2561650
932.3232, 1.3306000E-02
932.8053, 0.2423710
933.2874, 0.6552730
933.7695, 1.369263
934.2516, 2.074646
934.7338, 2.176819
935.2159, 1.677063
935.6980, 1.569946
936.1801, 2.068481
936.6622, 2.682800
937.1443, 3.111694
937.6265, 3.276794
938.1086, 2.941406
938.5907, 1.815247
939.0728, 1.337524
939.5549, 2.622742
940.0370, 3.524597
940.5192, 2.359436
941.0013, 0.6765750
941.4834, 1.341064
941.9655, 0.3142090
942.4476, 1.743408
942.9297, 0.4742430
943.4119, 1.233032
943.8940, 0.8078610
944.3761, 1.251038
944.8582, 2.435974
945.3403, 1.379578
945.8224, 0.4583740
946.3046, 9.4237998E-02
946.7867, 0.1667480
947.2688, 0.5245360
947.7509, 1.117798
948.2330, 1.590881
948.7151, 1.875977
949.1973, 1.900757
949.6794, 1.349609
950.1615, 0.6022950
950.6436, 9.7838998E-02
951.1257, 0.1901250
951.6078, 9.5764004E-02
952.0900, 1.307190
952.5721, 2.489075
953.0542, 2.823792
953.5363, 2.408020
954.0184, 1.821228
954.5005, 1.093750
954.9827, 0.1218870
955.4648, 1.613525
955.9469, 3.227905
956.4290, 3.909668
956.9111, 3.690552
957.3932, 3.752136
957.8754, 4.120361
958.3575, 4.807678
958.8396, 5.994995
959.3217, 7.279175
959.8038, 7.497498
960.2859, 6.927307
960.7681, 6.544922
961.2502, 6.752991
961.7323, 7.180969
962.2144, 8.048706
962.6965, 8.819885
963.1786, 8.674438
963.6608, 6.876648
964.1429, 6.349243
964.6250, 7.417786
965.1071, 9.065979
965.5892, 10.70471
966.0714, 12.04535
966.5535, 12.34686
967.0356, 11.60315
967.5177, 10.90912
967.9998, 10.23389
968.4819, 10.22144
968.9641, 11.40466
969.4462, 13.61755
969.9283, 15.92456
970.4104, 18.22717
970.8925, 20.37756
971.3746, 22.28552
971.8568, 24.10266
972.3389, 26.17139
972.8210, 28.43665
973.3031, 30.81390
973.7852, 33.49713
974.2673, 35.94214
974.7495, 37.70697
975.2316, 39.55353
975.7137, 42.30585
976.1958, 46.00574
976.6779, 50.42151
977.1600, 55.69061
977.6422, 60.26685
978.1243, 61.84784
978.6064, 62.76721
979.0885, 65.78503
979.5706, 71.15076
980.0527, 76.06641
980.5349, 79.51941
981.0170, 83.25262
981.4991, 87.94531
981.9812, 93.37982
982.4633, 98.78589
982.9454, 104.1956
983.4276, 109.9364
983.9097, 116.7083
984.3918, 123.1929
984.8739, 127.7775
985.3560, 131.7446
985.8381, 137.2559
986.3203, 145.6516
986.8024, 152.9466
987.2845, 159.0311
987.7666, 163.9459
988.2487, 166.6954
988.7308, 168.4053
989.2130, 173.1343
989.6951, 181.0585
990.1772, 187.2543
990.6593, 187.1482
991.1414, 186.3099
991.6235, 188.4385
992.1057, 192.6694
992.5878, 193.6239
993.0699, 190.8948
993.5520, 188.1144
994.0341, 186.7268
994.5162, 185.5459
994.9984, 182.9864
995.4805, 179.3869
995.9626, 175.3682
996.4447, 170.6818
996.9268, 166.3992
997.4089, 163.0116
997.8911, 159.6155
998.3732, 155.2125
998.8553, 150.0288
999.3374, 146.4238
999.8195, 144.4829
1000.302, 142.2115
1000.784, 137.5532
1001.266, 132.6472
1001.748, 129.1031
1002.230, 126.8276
1002.712, 124.9811
1003.194, 123.4626
1003.676, 122.8127
1004.159, 123.4905
1004.641, 124.5193
1005.123, 123.5955
1005.605, 121.3644
1006.087, 119.8839
1006.569, 119.9338
1007.051, 120.3912
1007.533, 120.8199
1008.016, 121.4226
1008.498, 122.3730
1008.980, 123.7108
1009.462, 124.9425
1009.944, 125.9238
1010.426, 127.6360
1010.908, 131.2009
1011.390, 135.7611
1011.872, 140.4626
1012.355, 145.1559
1012.837, 149.4333
1013.319, 152.3541
1013.801, 155.8745
1014.283, 160.6552
1014.765, 165.9414
1015.247, 170.3640
1015.729, 174.0591
1016.211, 177.7107
1016.694, 181.3600
1017.176, 185.5295
1017.658, 191.6017
1018.140, 197.7654
1018.622, 202.2847
1019.104, 204.7656
1019.586, 207.5004
1020.068, 210.5907
1020.551, 213.6748
1021.033, 216.7007
1021.515, 219.5190
1021.997, 222.0469
1022.479, 224.0686
1022.961, 224.9004
1023.443, 223.4093
1023.925, 221.7053
1024.407, 220.5669
1024.890, 219.3782
1025.372, 217.4712
1025.854, 214.8640
1026.336, 211.1014
1026.818, 206.0729
1027.300, 200.3695
1027.782, 193.9249
1028.264, 187.4081
1028.746, 181.7208
1029.229, 176.9340
1029.711, 171.0637
1030.193, 163.5457
1030.675, 155.8875
1031.157, 148.4829
1031.639, 141.3619
1032.121, 134.5333
1032.603, 127.8660
1033.086, 121.1500
1033.568, 113.9447
1034.050, 107.2633
1034.532, 102.2399
1035.014, 97.55530
1035.496, 91.95142
1035.978, 85.25928
1036.460, 79.05811
1036.943, 73.42175
1037.425, 68.63135
1037.907, 65.80164
1038.389, 63.33679
1038.871, 59.11829
1039.353, 53.65491
1039.835, 49.31995
1040.317, 46.95312
1040.799, 45.14551
1041.281, 43.89697
1041.764, 42.73254
1042.246, 40.97253
1042.728, 38.64441
1043.210, 35.58435
1043.692, 31.53113
1044.174, 28.44177
1044.656, 28.44031
1045.138, 28.81860
1045.621, 27.71301
1046.103, 25.25439
1046.585, 23.41113
1047.067, 22.23035
1047.549, 21.13464
1048.031, 19.70435
1048.513, 18.47620
1048.995, 18.49939
1049.478, 19.08508
1049.960, 19.05957
1050.442, 17.63367
1050.924, 16.30933
1051.406, 15.08240
1051.888, 13.99414
1052.370, 13.20776
1052.852, 12.57410
1053.334, 11.38660
1053.817, 9.717773
1054.299, 8.475464
1054.781, 8.462524
1055.263, 8.680298
1055.745, 8.571045
1056.227, 8.382324
1056.709, 8.909424
1057.191, 10.21228
1057.673, 10.95923
1058.156, 10.88562
1058.638, 10.10596
1059.120, 7.976074
1059.602, 5.648926
1060.084, 4.315918
1060.566, 4.213379
1061.048, 5.123291
1061.530, 7.588867
1062.013, 9.686523
1062.495, 10.59094
1062.977, 10.44116
1063.459, 9.045532
1063.941, 6.894043
1064.423, 5.357910
1064.905, 5.435669
1065.387, 5.571655
1065.870, 5.099487
1066.352, 4.639038
1066.834, 4.767212
1067.316, 5.489136
1067.798, 6.500977
1068.280, 7.799072
1068.762, 8.632324
1069.244, 8.001831
1069.726, 7.085327
1070.208, 7.078735
1070.691, 7.652588
1071.173, 7.055054
1071.655, 4.333130
1072.137, 3.647705
1072.619, 6.330811
1073.101, 9.594482
1073.583, 9.268677
1074.065, 7.137329
1074.548, 6.190552
1075.030, 7.090210
1075.512, 7.605347
1075.994, 6.765015
1076.476, 5.975098
1076.958, 5.882935
1077.440, 6.176514
1077.922, 5.836792
1078.405, 5.023071
1078.887, 4.208374
1079.369, 3.167603
1079.851, 2.837769
1080.333, 4.872437
1080.815, 7.109619
1081.297, 6.842163
1081.779, 3.139038
1082.261, 2.202881
1082.744, 4.308472
1083.226, 6.355225
1083.708, 5.496094
1084.190, 3.880005
1084.672, 3.730591
1085.154, 4.599731
1085.636, 5.270752
1086.118, 5.513550
1086.601, 5.889160
1087.083, 6.566650
1087.565, 7.160767
1088.047, 6.931274
1088.529, 6.126221
1089.011, 5.468750
1089.493, 5.103760
1089.975, 4.727417
1090.458, 3.790283
1090.940, 3.474243
1091.422, 4.368408
1091.904, 5.966187
1092.386, 6.913818
1092.868, 7.230591
1093.350, 7.100220
1093.832, 6.604980
1094.314, 5.692871
1094.797, 3.395508
1095.279, 1.341187
1095.761, 1.278076
1096.243, 3.346436
1096.725, 4.431030
1097.207, 4.505737
1097.689, 4.535522
1098.171, 5.145630
1098.653, 5.852295
1099.136, 6.155029
1099.618, 6.179199
1100.100, 6.046875
1100.582, 5.516846
1101.064, 5.169922
1101.546, 4.995850
1102.028, 5.087158
1102.510, 5.506104
1102.993, 6.261475
1103.475, 7.840332
1103.957, 9.938721
1104.439, 10.80054
1104.921, 7.930786
1105.403, 6.052490
1105.885, 6.660522
1106.367, 8.508057
1106.849, 9.526001
1107.332, 9.839478
1107.814, 10.00854
1108.296, 10.11462
1108.778, 10.27100
1109.260, 10.40955
1109.742, 10.76721
1110.224, 11.65698
1110.706, 12.90918
1111.188, 13.68091
1111.671, 13.95776
1112.153, 14.07312
1112.635, 13.97339
1113.117, 14.14160
1113.599, 15.44189
1114.081, 17.06506
1114.563, 17.92322
1115.045, 17.63550
1115.528, 18.25867
1116.010, 20.19873
1116.492, 21.31982
1116.974, 19.95386
1117.456, 17.47461
1117.938, 15.69543
1118.420, 14.59399
1118.902, 14.11548
1119.385, 14.91882
1119.867, 15.41089
1120.349, 15.63684
1120.831, 15.34253
1121.313, 13.85107
1121.795, 11.73926
1122.277, 10.57727
1122.759, 10.36401
1123.241, 10.74841
1123.724, 12.42944
1124.206, 13.57642
1124.688, 13.60291
1125.170, 12.91699
1125.652, 11.95093
1126.134, 10.77637
1126.616, 10.16846
1127.098, 10.23926
1127.580, 9.946411
1128.063, 7.950317
1128.545, 5.977539
1129.027, 5.453369
1129.509, 5.842896
1129.991, 5.190918
1130.473, 3.479370
1130.955, 2.073364
1131.437, 1.332764
1131.920, 0.9495850
1132.402, 0.9069820
1132.884, 0.8818360
1133.366, 0.4290770
1133.848, 0.5263670
1134.330, 0.8165280
1134.812, 0.2618410
1135.294, 8.8013001E-02
1135.776, 0.9768070
1136.259, 2.289185
1136.741, 3.477295
1137.223, 4.409302
1137.705, 4.910400
1138.187, 5.042236
1138.669, 4.314575
1139.151, 2.411011
1139.633, 0.4849850
1140.115, 0.8975830
1140.598, 1.656616
1141.080, 1.187622
1141.562, 4.3945000E-02
1142.044, 0.7628170
1142.526, 0.3394780
1143.008, 0.7647710
1143.490, 8.6914003E-02
1143.972, 1.034180
1144.455, 2.333374
1144.937, 3.486328
1145.419, 3.075562
1145.901, 1.279907
1146.383, 0.2285160
1146.865, 0.7492680
1147.347, 0.6158450
1147.829, 0.3439940
1148.312, 1.545654
1148.794, 2.077881
1149.276, 2.016968
1149.758, 1.762939
1150.240, 1.362305
1150.722, 1.083618
1151.204, 1.241333
1151.686, 1.445679
1152.168, 1.630615
1152.651, 1.664429
1153.133, 0.9510500
1153.615, 0.4569090
1154.097, 1.368774
1154.579, 1.404297
1155.061, 1.418335
1155.543, 2.541870
1156.025, 3.589233
1156.507, 3.135498
1156.990, 1.428467
1157.472, 1.221924
1157.954, 2.629761
1158.436, 3.863281
1158.918, 4.359497
1159.400, 4.357910
1159.882, 3.618042
1160.364, 2.791260
1160.847, 2.755127
1161.329, 3.744263
1161.811, 4.295654
1162.293, 4.334717
1162.775, 4.322876
1163.257, 4.389771
1163.739, 4.643555
1164.221, 5.369141
1164.703, 6.319580
1165.186, 7.078979
1165.668, 7.495361
1166.150, 7.901611
1166.632, 8.374756
1167.114, 8.524902
1167.596, 7.626953
1168.078, 6.494995
1168.560, 6.428711
1169.042, 7.246338
1169.525, 8.454834
1170.007, 11.04724
1170.489, 12.01965
1170.971, 10.78284
1171.453, 9.061035
1171.935, 8.399048
1172.417, 8.473877
1172.899, 8.645630
1173.382, 8.942383
1173.864, 9.616089
1174.346, 11.62354
1174.828, 12.67261
1175.310, 12.13086
1175.792, 11.13672
1176.274, 11.31348
1176.756, 12.12317
1177.239, 12.05273
1177.721, 11.07202
1178.203, 10.75122
1178.685, 12.50830
1179.167, 13.96216
1179.649, 14.55481
1180.131, 14.54053
1180.613, 13.82385
1181.095, 12.93323
1181.578, 13.81348
1182.060, 16.86938
1182.542, 19.19531
1183.024, 19.15308
1183.506, 18.50867
1183.988, 17.75085
1184.470, 16.96985
1184.952, 16.48376
1185.434, 16.17932
1185.917, 15.48669
1186.399, 14.10596
1186.881, 13.30908
1187.363, 13.95068
1187.845, 15.13428
1188.327, 16.63770
1188.809, 18.22375
1189.291, 19.01465
1189.774, 19.08850
1190.256, 18.81982
1190.738, 18.19409
1191.220, 17.59229
1191.702, 16.99512
1192.184, 16.64258
1192.666, 16.74365
1193.148, 17.23218
1193.630, 17.84705
1194.113, 18.50317
1194.595, 18.92249
1195.077, 19.01428
1195.559, 18.86548
1196.041, 18.82361
1196.523, 18.34167
1197.005, 16.84961
1197.487, 14.44592
1197.969, 12.31665
1198.452, 10.53137
1198.934, 9.956299
1199.416, 12.08545
1199.898, 14.10413
1200.380, 14.90649
1200.862, 14.90027
1201.344, 14.29846
1201.826, 13.06396
1202.309, 12.12280
1202.791, 11.49609
1203.273, 11.36133
1203.755, 12.46033
1204.237, 13.43079
1204.719, 13.25903
1205.201, 12.62122
1205.683, 12.39075
1206.166, 12.52612
1206.648, 11.76343
1207.130, 10.16211
1207.612, 9.015747
1208.094, 9.617554
1208.576, 10.40051
1209.058, 10.45435
1209.540, 10.16699
1210.022, 10.15503
1210.505, 10.40991
1210.987, 10.08655
1211.469, 9.196777
1211.951, 8.847534
1212.433, 10.85901
1212.915, 12.43506
1213.397, 11.21008
1213.879, 8.986572
1214.361, 9.109863
1214.844, 11.32825
1215.326, 12.10803
1215.808, 11.08777
1216.290, 10.12903
1216.772, 10.58325
1217.254, 11.35535
1217.736, 12.09155
1218.218, 12.63672
1218.701, 12.26257
1219.183, 11.08630
1219.665, 11.01367
1220.147, 12.45288
1220.629, 13.62036
1221.111, 12.52612
1221.593, 11.76990
1222.075, 13.33362
1222.557, 15.91345
1223.040, 15.71570
1223.522, 13.19629
1224.004, 12.06628
1224.486, 13.13049
1224.968, 14.10376
1225.450, 13.10852
1225.932, 12.19153
1226.414, 12.47974
1226.896, 13.59753
1227.379, 14.50476
1227.861, 15.20361
1228.343, 15.64014
1228.825, 15.72327
1229.307, 16.07617
1229.789, 17.90271
1230.271, 19.05457
1230.753, 18.05139
1231.236, 15.82214
1231.718, 15.81836
1232.200, 17.41895
1232.682, 18.05359
1233.164, 16.89978
1233.646, 15.61536
1234.128, 14.08618
1234.610, 13.81824
1235.093, 16.18982
1235.575, 19.88867
1236.057, 20.30762
1236.539, 18.35071
1237.021, 16.96094
1237.503, 17.08630
1237.985, 17.40967
1238.467, 17.53516
1238.949, 17.68689
1239.432, 18.02087
1239.914, 18.40344
1240.396, 18.29016
1240.878, 17.89014
1241.360, 17.86804
1241.842, 18.64417
1242.324, 19.01892
1242.806, 18.56213
1243.288, 17.93445
1243.771, 17.34180
1244.253, 16.91516
1244.735, 17.12292
1245.217, 17.78503
1245.699, 18.51147
1246.181, 19.31885
1246.663, 19.82117
1247.145, 19.94641
1247.628, 19.91846
1248.110, 20.04102
1248.592, 19.91113
1249.074, 18.12219
1249.556, 15.57324
1250.038, 13.99927
1250.520, 14.19885
1251.002, 14.71912
1251.484, 15.75354
1251.967, 16.24402
1252.449, 15.36548
1252.931, 13.78955
1253.413, 12.33887
1253.895, 11.05359
1254.377, 10.02832
1254.859, 9.276245
1255.341, 8.860474
1255.823, 8.861938
1256.306, 8.779419
1256.788, 8.261963
1257.270, 7.573242
1257.752, 6.794556
1258.234, 6.166626
1258.716, 6.169434
1259.198, 7.048218
1259.680, 7.830566
1260.163, 8.618042
1260.645, 8.407837
1261.127, 5.851563
1261.609, 3.044189
1262.091, 1.856567
1262.573, 1.629761
1263.055, 1.433716
1263.537, 1.187378
1264.020, 1.172241
1264.502, 1.379761
1264.984, 1.907104
1265.466, 3.044434
1265.948, 4.184570
1266.430, 5.049683
1266.912, 5.572998
1267.394, 5.682251
1267.876, 5.364868
1268.359, 4.982788
1268.841, 4.535034
1269.323, 4.012085
1269.805, 3.001343
1270.287, 2.474854
1270.769, 3.453857
1271.251, 4.622681
1271.733, 4.953247
1272.215, 4.544189
1272.698, 4.065918
1273.180, 3.533813
1273.662, 3.007935
1274.144, 2.760620
1274.626, 2.129517
1275.108, 0.6269530
1275.590, 0.7532960
1276.072, 1.298096
1276.555, 1.075439
1277.037, 0.2135010
1277.519, 2.078735
1278.001, 3.098999
1278.483, 1.502319
1278.965, 1.056152
1279.447, 2.450439
1279.929, 3.808472
1280.411, 3.335938
1280.894, 2.067261
1281.376, 1.894165
1281.858, 2.432251
1282.340, 2.870605
1282.822, 3.059570
1283.304, 3.184814
1283.786, 3.218506
1284.268, 3.234131
1284.750, 3.068115
1285.233, 3.127441
1285.715, 4.539429
1286.197, 6.255615
1286.679, 6.149048
1287.161, 3.254395
1287.643, 2.687134
1288.125, 4.459473
1288.607, 5.478760
1289.090, 5.286987
1289.572, 5.049438
1290.054, 4.515747
1290.536, 4.013916
1291.018, 3.691040
1291.500, 3.535156
1291.982, 3.931396
1292.464, 4.728027
1292.947, 4.872681
1293.429, 3.325439
1293.911, 1.704834
1294.393, 0.4824220
1294.875, 0.2072750
1295.357, 3.3080999E-02
1295.839, 0.7308350
1296.321, 0.9244380
1296.803, 0.7559810
1297.286, 0.8891600
1297.768, 1.949829
1298.250, 1.753418
1298.732, 1.291138
1299.214, 0.5345460
1299.696, 0.2362060
1300.178, 7.8612998E-02
1300.660, 0.0000000E+00
##END=



