##NAMES=Moorhouseite
##RRUFFID=R130745
##IDEAL CHEMISTRY=Co^2+^S^6+^O_4_&#183;6H_2_O
##LOCALITY=Bou Azer, Tazenakht, Ouarzazate Province, Souss-Massa-Dra√¢ Region, Morocco
##OWNER=RRUFF
##SOURCE=Donald Doell
##DESCRIPTION=Light-pinkish fine grains, associated with pink or dark pink spherocobaltite.
##STATUS=The identification of this mineral has been confirmed by single-crystal X-ray diffraction.
##URL=rruff.info/R130745
8.813672e+001, 4.179112e+002
8.861884e+001, 4.231896e+002
8.910095e+001, 4.284439e+002
8.958307e+001, 4.352440e+002
9.006519e+001, 4.433612e+002
9.054730e+001, 4.517543e+002
9.102942e+001, 4.616323e+002
9.151154e+001, 4.698802e+002
9.199365e+001, 4.719280e+002
9.247577e+001, 4.688304e+002
9.295789e+001, 4.654503e+002
9.344000e+001, 4.654632e+002
9.392212e+001, 4.675058e+002
9.440424e+001, 4.687586e+002
9.488635e+001, 4.693615e+002
9.536847e+001, 4.695150e+002
9.585059e+001, 4.689308e+002
9.633270e+001, 4.674525e+002
9.681482e+001, 4.666531e+002
9.729694e+001, 4.681217e+002
9.777905e+001, 4.717986e+002
9.826117e+001, 4.762730e+002
9.874329e+001, 4.817467e+002
9.922540e+001, 4.878283e+002
9.970752e+001, 4.915088e+002
1.001896e+002, 4.921903e+002
1.006718e+002, 4.916576e+002
1.011539e+002, 4.919423e+002
1.016360e+002, 4.929818e+002
1.021181e+002, 4.950196e+002
1.026002e+002, 4.980956e+002
1.030823e+002, 5.021862e+002
1.035645e+002, 5.073491e+002
1.040466e+002, 5.136920e+002
1.045287e+002, 5.210515e+002
1.050108e+002, 5.294843e+002
1.054929e+002, 5.399744e+002
1.059750e+002, 5.501148e+002
1.064572e+002, 5.592274e+002
1.069393e+002, 5.690535e+002
1.074214e+002, 5.748450e+002
1.079035e+002, 5.746588e+002
1.083856e+002, 5.702697e+002
1.088677e+002, 5.678439e+002
1.093499e+002, 5.682094e+002
1.098320e+002, 5.699152e+002
1.103141e+002, 5.723386e+002
1.107962e+002, 5.753211e+002
1.112783e+002, 5.792365e+002
1.117604e+002, 5.844777e+002
1.122426e+002, 5.909183e+002
1.127247e+002, 5.973259e+002
1.132068e+002, 6.029840e+002
1.136889e+002, 6.088477e+002
1.141710e+002, 6.155182e+002
1.146531e+002, 6.254716e+002
1.151353e+002, 6.339993e+002
1.156174e+002, 6.391089e+002
1.160995e+002, 6.407579e+002
1.165816e+002, 6.427653e+002
1.170637e+002, 6.477350e+002
1.175458e+002, 6.533942e+002
1.180280e+002, 6.573327e+002
1.185101e+002, 6.562382e+002
1.189922e+002, 6.547770e+002
1.194743e+002, 6.557382e+002
1.199564e+002, 6.594450e+002
1.204385e+002, 6.641943e+002
1.209207e+002, 6.683675e+002
1.214028e+002, 6.728865e+002
1.218849e+002, 6.793494e+002
1.223670e+002, 6.929896e+002
1.228491e+002, 7.070554e+002
1.233312e+002, 7.134375e+002
1.238134e+002, 7.098398e+002
1.242955e+002, 7.039188e+002
1.247776e+002, 7.023615e+002
1.252597e+002, 7.043915e+002
1.257418e+002, 7.073575e+002
1.262239e+002, 7.092599e+002
1.267061e+002, 7.110915e+002
1.271882e+002, 7.149061e+002
1.276703e+002, 7.216264e+002
1.281524e+002, 7.293453e+002
1.286345e+002, 7.352521e+002
1.291166e+002, 7.394847e+002
1.295988e+002, 7.435981e+002
1.300809e+002, 7.493318e+002
1.305630e+002, 7.560881e+002
1.310451e+002, 7.612421e+002
1.315272e+002, 7.636993e+002
1.320093e+002, 7.645902e+002
1.324915e+002, 7.664993e+002
1.329736e+002, 7.694690e+002
1.334557e+002, 7.729783e+002
1.339378e+002, 7.764808e+002
1.344199e+002, 7.799813e+002
1.349020e+002, 7.839426e+002
1.353842e+002, 7.886818e+002
1.358663e+002, 7.939059e+002
1.363484e+002, 7.981630e+002
1.368305e+002, 8.008262e+002
1.373126e+002, 8.042325e+002
1.377947e+002, 8.121116e+002
1.382769e+002, 8.259551e+002
1.387590e+002, 8.366465e+002
1.392411e+002, 8.410984e+002
1.397232e+002, 8.392303e+002
1.402053e+002, 8.367934e+002
1.406874e+002, 8.334417e+002
1.411696e+002, 8.299631e+002
1.416517e+002, 8.274311e+002
1.421338e+002, 8.259915e+002
1.426159e+002, 8.252490e+002
1.430980e+002, 8.252267e+002
1.435801e+002, 8.261179e+002
1.440623e+002, 8.269451e+002
1.445444e+002, 8.274849e+002
1.450265e+002, 8.281497e+002
1.455086e+002, 8.297886e+002
1.459907e+002, 8.340856e+002
1.464728e+002, 8.371843e+002
1.469550e+002, 8.375797e+002
1.474371e+002, 8.335077e+002
1.479192e+002, 8.307890e+002
1.484013e+002, 8.300076e+002
1.488834e+002, 8.305159e+002
1.493655e+002, 8.308906e+002
1.498477e+002, 8.304291e+002
1.503298e+002, 8.304269e+002
1.508119e+002, 8.314635e+002
1.512940e+002, 8.354484e+002
1.517761e+002, 8.376481e+002
1.522583e+002, 8.363429e+002
1.527404e+002, 8.329233e+002
1.532225e+002, 8.313251e+002
1.537046e+002, 8.343569e+002
1.541867e+002, 8.374977e+002
1.546688e+002, 8.386851e+002
1.551510e+002, 8.369404e+002
1.556331e+002, 8.341782e+002
1.561152e+002, 8.296246e+002
1.565973e+002, 8.239511e+002
1.570794e+002, 8.199096e+002
1.575615e+002, 8.193183e+002
1.580437e+002, 8.197630e+002
1.585258e+002, 8.197490e+002
1.590079e+002, 8.187133e+002
1.594900e+002, 8.174427e+002
1.599721e+002, 8.155929e+002
1.604542e+002, 8.134211e+002
1.609364e+002, 8.124210e+002
1.614185e+002, 8.142969e+002
1.619006e+002, 8.170065e+002
1.623827e+002, 8.189066e+002
1.628648e+002, 8.192957e+002
1.633469e+002, 8.189667e+002
1.638291e+002, 8.178527e+002
1.643112e+002, 8.160717e+002
1.647933e+002, 8.146945e+002
1.652754e+002, 8.146058e+002
1.657575e+002, 8.150661e+002
1.662396e+002, 8.152978e+002
1.667218e+002, 8.147040e+002
1.672039e+002, 8.140352e+002
1.676860e+002, 8.137520e+002
1.681681e+002, 8.138594e+002
1.686502e+002, 8.141567e+002
1.691323e+002, 8.145471e+002
1.696145e+002, 8.150455e+002
1.700966e+002, 8.156697e+002
1.705787e+002, 8.169090e+002
1.710608e+002, 8.179920e+002
1.715429e+002, 8.178342e+002
1.720250e+002, 8.163496e+002
1.725072e+002, 8.153593e+002
1.729893e+002, 8.170379e+002
1.734714e+002, 8.201500e+002
1.739535e+002, 8.224081e+002
1.744356e+002, 8.219346e+002
1.749177e+002, 8.204523e+002
1.753999e+002, 8.200853e+002
1.758820e+002, 8.209901e+002
1.763641e+002, 8.221510e+002
1.768462e+002, 8.228145e+002
1.773283e+002, 8.230223e+002
1.778104e+002, 8.228916e+002
1.782926e+002, 8.220801e+002
1.787747e+002, 8.210530e+002
1.792568e+002, 8.205712e+002
1.797389e+002, 8.206818e+002
1.802210e+002, 8.212159e+002
1.807031e+002, 8.222699e+002
1.811853e+002, 8.236728e+002
1.816674e+002, 8.247833e+002
1.821495e+002, 8.250113e+002
1.826316e+002, 8.247256e+002
1.831137e+002, 8.248429e+002
1.835958e+002, 8.254881e+002
1.840780e+002, 8.262793e+002
1.845601e+002, 8.266851e+002
1.850422e+002, 8.267707e+002
1.855243e+002, 8.269460e+002
1.860064e+002, 8.276808e+002
1.864885e+002, 8.287447e+002
1.869707e+002, 8.291434e+002
1.874528e+002, 8.286900e+002
1.879349e+002, 8.279797e+002
1.884170e+002, 8.279358e+002
1.888991e+002, 8.285284e+002
1.893812e+002, 8.292295e+002
1.898634e+002, 8.299000e+002
1.903455e+002, 8.304849e+002
1.908276e+002, 8.305967e+002
1.913097e+002, 8.300723e+002
1.917918e+002, 8.293344e+002
1.922739e+002, 8.291226e+002
1.927561e+002, 8.294398e+002
1.932382e+002, 8.299299e+002
1.937203e+002, 8.305742e+002
1.942024e+002, 8.313229e+002
1.946845e+002, 8.314998e+002
1.951666e+002, 8.308967e+002
1.956488e+002, 8.299492e+002
1.961309e+002, 8.297014e+002
1.966130e+002, 8.302813e+002
1.970951e+002, 8.305038e+002
1.975772e+002, 8.292238e+002
1.980593e+002, 8.264120e+002
1.985415e+002, 8.250598e+002
1.990236e+002, 8.256996e+002
1.995057e+002, 8.275068e+002
1.999878e+002, 8.286201e+002
2.004699e+002, 8.289277e+002
2.009520e+002, 8.291055e+002
2.014342e+002, 8.296102e+002
2.019163e+002, 8.304974e+002
2.023984e+002, 8.310296e+002
2.028805e+002, 8.310827e+002
2.033626e+002, 8.308186e+002
2.038447e+002, 8.305999e+002
2.043269e+002, 8.304030e+002
2.048090e+002, 8.303269e+002
2.052911e+002, 8.304283e+002
2.057732e+002, 8.307128e+002
2.062553e+002, 8.311383e+002
2.067374e+002, 8.317249e+002
2.072196e+002, 8.324395e+002
2.077017e+002, 8.332004e+002
2.081838e+002, 8.340236e+002
2.086659e+002, 8.348619e+002
2.091480e+002, 8.357262e+002
2.096301e+002, 8.366843e+002
2.101123e+002, 8.373561e+002
2.105944e+002, 8.375580e+002
2.110765e+002, 8.375533e+002
2.115586e+002, 8.382403e+002
2.120407e+002, 8.400227e+002
2.125228e+002, 8.415904e+002
2.130050e+002, 8.420318e+002
2.134871e+002, 8.408928e+002
2.139692e+002, 8.403027e+002
2.144513e+002, 8.404029e+002
2.149334e+002, 8.411031e+002
2.154155e+002, 8.422948e+002
2.158977e+002, 8.443558e+002
2.163798e+002, 8.461432e+002
2.168619e+002, 8.470088e+002
2.173440e+002, 8.467682e+002
2.178261e+002, 8.460908e+002
2.183082e+002, 8.447736e+002
2.187904e+002, 8.430988e+002
2.192725e+002, 8.419709e+002
2.197546e+002, 8.415749e+002
2.202367e+002, 8.414094e+002
2.207188e+002, 8.413160e+002
2.212009e+002, 8.415261e+002
2.216831e+002, 8.411713e+002
2.221652e+002, 8.400460e+002
2.226473e+002, 8.384094e+002
2.231294e+002, 8.370405e+002
2.236115e+002, 8.360349e+002
2.240936e+002, 8.351593e+002
2.245758e+002, 8.342538e+002
2.250579e+002, 8.331409e+002
2.255400e+002, 8.325631e+002
2.260221e+002, 8.329387e+002
2.265042e+002, 8.337571e+002
2.269863e+002, 8.335536e+002
2.274685e+002, 8.319264e+002
2.279506e+002, 8.298958e+002
2.284327e+002, 8.277682e+002
2.289148e+002, 8.249636e+002
2.293969e+002, 8.234024e+002
2.298790e+002, 8.235391e+002
2.303612e+002, 8.247803e+002
2.308433e+002, 8.256476e+002
2.313254e+002, 8.260189e+002
2.318075e+002, 8.261859e+002
2.322896e+002, 8.262399e+002
2.327717e+002, 8.260856e+002
2.332539e+002, 8.260234e+002
2.337360e+002, 8.260964e+002
2.342181e+002, 8.262314e+002
2.347002e+002, 8.262139e+002
2.351823e+002, 8.257098e+002
2.356644e+002, 8.255440e+002
2.361466e+002, 8.262198e+002
2.366287e+002, 8.284516e+002
2.371108e+002, 8.295004e+002
2.375929e+002, 8.288361e+002
2.380750e+002, 8.271951e+002
2.385571e+002, 8.260956e+002
2.390393e+002, 8.258027e+002
2.395214e+002, 8.256465e+002
2.400035e+002, 8.254031e+002
2.404856e+002, 8.250518e+002
2.409677e+002, 8.247126e+002
2.414498e+002, 8.244081e+002
2.419320e+002, 8.241316e+002
2.424141e+002, 8.238707e+002
2.428962e+002, 8.237074e+002
2.433783e+002, 8.234608e+002
2.438604e+002, 8.229960e+002
2.443425e+002, 8.221271e+002
2.448247e+002, 8.218092e+002
2.453068e+002, 8.223218e+002
2.457889e+002, 8.232206e+002
2.462710e+002, 8.237820e+002
2.467531e+002, 8.237601e+002
2.472352e+002, 8.238092e+002
2.477174e+002, 8.241140e+002
2.481995e+002, 8.246838e+002
2.486816e+002, 8.254266e+002
2.491637e+002, 8.264987e+002
2.496458e+002, 8.276102e+002
2.501279e+002, 8.283375e+002
2.506101e+002, 8.285688e+002
2.510922e+002, 8.286094e+002
2.515743e+002, 8.284724e+002
2.520564e+002, 8.281038e+002
2.525385e+002, 8.279279e+002
2.530206e+002, 8.279205e+002
2.535028e+002, 8.281295e+002
2.539849e+002, 8.286193e+002
2.544670e+002, 8.294558e+002
2.549491e+002, 8.304685e+002
2.554312e+002, 8.317784e+002
2.559133e+002, 8.334297e+002
2.563955e+002, 8.343700e+002
2.568776e+002, 8.342585e+002
2.573597e+002, 8.338156e+002
2.578418e+002, 8.338811e+002
2.583239e+002, 8.348517e+002
2.588061e+002, 8.353193e+002
2.592882e+002, 8.346402e+002
2.597703e+002, 8.328486e+002
2.602524e+002, 8.326778e+002
2.607345e+002, 8.349982e+002
2.612166e+002, 8.377132e+002
2.616988e+002, 8.389189e+002
2.621809e+002, 8.381642e+002
2.626630e+002, 8.370964e+002
2.631451e+002, 8.357726e+002
2.636272e+002, 8.342902e+002
2.641093e+002, 8.336892e+002
2.645915e+002, 8.342341e+002
2.650736e+002, 8.352002e+002
2.655557e+002, 8.361840e+002
2.660378e+002, 8.373701e+002
2.665199e+002, 8.378184e+002
2.670020e+002, 8.370927e+002
2.674842e+002, 8.355236e+002
2.679663e+002, 8.349014e+002
2.684484e+002, 8.355251e+002
2.689305e+002, 8.363947e+002
2.694126e+002, 8.368574e+002
2.698947e+002, 8.368715e+002
2.703769e+002, 8.365791e+002
2.708590e+002, 8.357871e+002
2.713411e+002, 8.347854e+002
2.718232e+002, 8.346837e+002
2.723053e+002, 8.357845e+002
2.727874e+002, 8.368516e+002
2.732696e+002, 8.368818e+002
2.737517e+002, 8.355533e+002
2.742338e+002, 8.355333e+002
2.747159e+002, 8.375543e+002
2.751980e+002, 8.404114e+002
2.756801e+002, 8.410062e+002
2.761623e+002, 8.388953e+002
2.766444e+002, 8.365389e+002
2.771265e+002, 8.351420e+002
2.776086e+002, 8.347457e+002
2.780907e+002, 8.348035e+002
2.785728e+002, 8.355754e+002
2.790550e+002, 8.363583e+002
2.795371e+002, 8.355334e+002
2.800192e+002, 8.328386e+002
2.805013e+002, 8.306730e+002
2.809834e+002, 8.303975e+002
2.814655e+002, 8.319492e+002
2.819477e+002, 8.329567e+002
2.824298e+002, 8.333569e+002
2.829119e+002, 8.333235e+002
2.833940e+002, 8.329012e+002
2.838761e+002, 8.320646e+002
2.843582e+002, 8.314869e+002
2.848404e+002, 8.316003e+002
2.853225e+002, 8.322282e+002
2.858046e+002, 8.322132e+002
2.862867e+002, 8.314287e+002
2.867688e+002, 8.305735e+002
2.872509e+002, 8.307029e+002
2.877331e+002, 8.317166e+002
2.882152e+002, 8.321401e+002
2.886973e+002, 8.312252e+002
2.891794e+002, 8.294717e+002
2.896615e+002, 8.286592e+002
2.901436e+002, 8.288684e+002
2.906258e+002, 8.291088e+002
2.911079e+002, 8.282557e+002
2.915900e+002, 8.265466e+002
2.920721e+002, 8.252371e+002
2.925542e+002, 8.247717e+002
2.930363e+002, 8.248060e+002
2.935185e+002, 8.245784e+002
2.940006e+002, 8.240999e+002
2.944827e+002, 8.238149e+002
2.949648e+002, 8.243059e+002
2.954469e+002, 8.252882e+002
2.959290e+002, 8.258141e+002
2.964112e+002, 8.255611e+002
2.968933e+002, 8.250217e+002
2.973754e+002, 8.249568e+002
2.978575e+002, 8.253016e+002
2.983396e+002, 8.256996e+002
2.988217e+002, 8.258970e+002
2.993039e+002, 8.259752e+002
2.997860e+002, 8.260978e+002
3.002681e+002, 8.262895e+002
3.007502e+002, 8.264993e+002
3.012323e+002, 8.266230e+002
3.017144e+002, 8.266998e+002
3.021966e+002, 8.268640e+002
3.026787e+002, 8.272342e+002
3.031608e+002, 8.277155e+002
3.036429e+002, 8.282883e+002
3.041250e+002, 8.289935e+002
3.046071e+002, 8.294386e+002
3.050893e+002, 8.291093e+002
3.055714e+002, 8.282487e+002
3.060535e+002, 8.273807e+002
3.065356e+002, 8.265900e+002
3.070177e+002, 8.259796e+002
3.074998e+002, 8.258597e+002
3.079820e+002, 8.262379e+002
3.084641e+002, 8.263444e+002
3.089462e+002, 8.251381e+002
3.094283e+002, 8.234507e+002
3.099104e+002, 8.224305e+002
3.103925e+002, 8.232054e+002
3.108747e+002, 8.242597e+002
3.113568e+002, 8.245800e+002
3.118389e+002, 8.242412e+002
3.123210e+002, 8.237644e+002
3.128031e+002, 8.231918e+002
3.132852e+002, 8.227292e+002
3.137674e+002, 8.226068e+002
3.142495e+002, 8.232984e+002
3.147316e+002, 8.238074e+002
3.152137e+002, 8.233508e+002
3.156958e+002, 8.222326e+002
3.161779e+002, 8.214817e+002
3.166601e+002, 8.220646e+002
3.171422e+002, 8.227983e+002
3.176243e+002, 8.227709e+002
3.181064e+002, 8.211998e+002
3.185885e+002, 8.201533e+002
3.190706e+002, 8.206940e+002
3.195528e+002, 8.222031e+002
3.200349e+002, 8.234870e+002
3.205170e+002, 8.244456e+002
3.209991e+002, 8.249045e+002
3.214812e+002, 8.245735e+002
3.219633e+002, 8.230768e+002
3.224455e+002, 8.221223e+002
3.229276e+002, 8.224512e+002
3.234097e+002, 8.233703e+002
3.238918e+002, 8.240294e+002
3.243739e+002, 8.238471e+002
3.248560e+002, 8.238479e+002
3.253382e+002, 8.244189e+002
3.258203e+002, 8.256646e+002
3.263024e+002, 8.266500e+002
3.267845e+002, 8.274965e+002
3.272666e+002, 8.279789e+002
3.277487e+002, 8.279141e+002
3.282309e+002, 8.270567e+002
3.287130e+002, 8.259387e+002
3.291951e+002, 8.241332e+002
3.296772e+002, 8.218227e+002
3.301593e+002, 8.209025e+002
3.306414e+002, 8.225472e+002
3.311236e+002, 8.244638e+002
3.316057e+002, 8.253453e+002
3.320878e+002, 8.241096e+002
3.325699e+002, 8.238248e+002
3.330520e+002, 8.252664e+002
3.335341e+002, 8.275811e+002
3.340163e+002, 8.282239e+002
3.344984e+002, 8.260563e+002
3.349805e+002, 8.241059e+002
3.354626e+002, 8.238330e+002
3.359447e+002, 8.259489e+002
3.364268e+002, 8.269139e+002
3.369090e+002, 8.263068e+002
3.373911e+002, 8.250052e+002
3.378732e+002, 8.245126e+002
3.383553e+002, 8.251569e+002
3.388374e+002, 8.254721e+002
3.393195e+002, 8.247366e+002
3.398017e+002, 8.230314e+002
3.402838e+002, 8.225642e+002
3.407659e+002, 8.236649e+002
3.412480e+002, 8.251879e+002
3.417301e+002, 8.259528e+002
3.422122e+002, 8.259108e+002
3.426944e+002, 8.257761e+002
3.431765e+002, 8.257383e+002
3.436586e+002, 8.257004e+002
3.441407e+002, 8.252114e+002
3.446228e+002, 8.242197e+002
3.451049e+002, 8.233467e+002
3.455871e+002, 8.231551e+002
3.460692e+002, 8.235507e+002
3.465513e+002, 8.239433e+002
3.470334e+002, 8.242796e+002
3.475155e+002, 8.245212e+002
3.479977e+002, 8.245753e+002
3.484798e+002, 8.244542e+002
3.489619e+002, 8.242620e+002
3.494440e+002, 8.239753e+002
3.499261e+002, 8.236707e+002
3.504082e+002, 8.234301e+002
3.508904e+002, 8.232143e+002
3.513725e+002, 8.233664e+002
3.518546e+002, 8.248704e+002
3.523367e+002, 8.270978e+002
3.528188e+002, 8.284130e+002
3.533009e+002, 8.274688e+002
3.537831e+002, 8.255686e+002
3.542652e+002, 8.240291e+002
3.547473e+002, 8.228627e+002
3.552294e+002, 8.222088e+002
3.557115e+002, 8.225899e+002
3.561936e+002, 8.234186e+002
3.566758e+002, 8.238929e+002
3.571579e+002, 8.234536e+002
3.576400e+002, 8.230196e+002
3.581221e+002, 8.235005e+002
3.586042e+002, 8.246138e+002
3.590863e+002, 8.253482e+002
3.595685e+002, 8.248186e+002
3.600506e+002, 8.239591e+002
3.605327e+002, 8.235469e+002
3.610148e+002, 8.239950e+002
3.614969e+002, 8.241467e+002
3.619790e+002, 8.230091e+002
3.624612e+002, 8.213365e+002
3.629433e+002, 8.203807e+002
3.634254e+002, 8.208055e+002
3.639075e+002, 8.217611e+002
3.643896e+002, 8.231492e+002
3.648717e+002, 8.250751e+002
3.653539e+002, 8.264191e+002
3.658360e+002, 8.265807e+002
3.663181e+002, 8.262244e+002
3.668002e+002, 8.259667e+002
3.672823e+002, 8.259670e+002
3.677644e+002, 8.259534e+002
3.682466e+002, 8.259753e+002
3.687287e+002, 8.259991e+002
3.692108e+002, 8.257029e+002
3.696929e+002, 8.247233e+002
3.701750e+002, 8.237409e+002
3.706571e+002, 8.231093e+002
3.711393e+002, 8.229615e+002
3.716214e+002, 8.229590e+002
3.721035e+002, 8.232650e+002
3.725856e+002, 8.236706e+002
3.730677e+002, 8.236280e+002
3.735498e+002, 8.227985e+002
3.740320e+002, 8.221804e+002
3.745141e+002, 8.221793e+002
3.749962e+002, 8.228619e+002
3.754783e+002, 8.236469e+002
3.759604e+002, 8.246938e+002
3.764425e+002, 8.255726e+002
3.769247e+002, 8.256892e+002
3.774068e+002, 8.249416e+002
3.778889e+002, 8.240107e+002
3.783710e+002, 8.228898e+002
3.788531e+002, 8.217519e+002
3.793352e+002, 8.214686e+002
3.798174e+002, 8.221477e+002
3.802995e+002, 8.229508e+002
3.807816e+002, 8.231357e+002
3.812637e+002, 8.227932e+002
3.817458e+002, 8.227196e+002
3.822279e+002, 8.231324e+002
3.827101e+002, 8.236322e+002
3.831922e+002, 8.233891e+002
3.836743e+002, 8.225291e+002
3.841564e+002, 8.219327e+002
3.846385e+002, 8.222032e+002
3.851206e+002, 8.230434e+002
3.856028e+002, 8.239805e+002
3.860849e+002, 8.250240e+002
3.865670e+002, 8.258137e+002
3.870491e+002, 8.257396e+002
3.875312e+002, 8.251884e+002
3.880133e+002, 8.249448e+002
3.884955e+002, 8.257072e+002
3.889776e+002, 8.265479e+002
3.894597e+002, 8.263902e+002
3.899418e+002, 8.254076e+002
3.904239e+002, 8.246599e+002
3.909060e+002, 8.248417e+002
3.913882e+002, 8.255146e+002
3.918703e+002, 8.263712e+002
3.923524e+002, 8.276306e+002
3.928345e+002, 8.284753e+002
3.933166e+002, 8.281218e+002
3.937987e+002, 8.270925e+002
3.942809e+002, 8.264410e+002
3.947630e+002, 8.267780e+002
3.952451e+002, 8.273289e+002
3.957272e+002, 8.277490e+002
3.962093e+002, 8.279641e+002
3.966914e+002, 8.283134e+002
3.971736e+002, 8.291097e+002
3.976557e+002, 8.299435e+002
3.981378e+002, 8.304385e+002
3.986199e+002, 8.297938e+002
3.991020e+002, 8.296571e+002
3.995841e+002, 8.307154e+002
4.000663e+002, 8.326693e+002
4.005484e+002, 8.334779e+002
4.010305e+002, 8.321718e+002
4.015126e+002, 8.307711e+002
4.019947e+002, 8.303199e+002
4.024768e+002, 8.314346e+002
4.029590e+002, 8.320189e+002
4.034411e+002, 8.317279e+002
4.039232e+002, 8.311854e+002
4.044053e+002, 8.316610e+002
4.048874e+002, 8.336467e+002
4.053695e+002, 8.351859e+002
4.058517e+002, 8.354350e+002
4.063338e+002, 8.345279e+002
4.068159e+002, 8.344935e+002
4.072980e+002, 8.354933e+002
4.077801e+002, 8.368271e+002
4.082622e+002, 8.377715e+002
4.087444e+002, 8.383531e+002
4.092265e+002, 8.391747e+002
4.097086e+002, 8.403932e+002
4.101907e+002, 8.418377e+002
4.106728e+002, 8.433002e+002
4.111549e+002, 8.447529e+002
4.116371e+002, 8.459028e+002
4.121192e+002, 8.461542e+002
4.126013e+002, 8.460107e+002
4.130834e+002, 8.464639e+002
4.135655e+002, 8.475510e+002
4.140476e+002, 8.494611e+002
4.145298e+002, 8.536541e+002
4.150119e+002, 8.587359e+002
4.154940e+002, 8.619794e+002
4.159761e+002, 8.602668e+002
4.164582e+002, 8.577538e+002
4.169403e+002, 8.583049e+002
4.174225e+002, 8.614902e+002
4.179046e+002, 8.646960e+002
4.183867e+002, 8.665090e+002
4.188688e+002, 8.676168e+002
4.193509e+002, 8.685411e+002
4.198330e+002, 8.694316e+002
4.203152e+002, 8.700984e+002
4.207973e+002, 8.702822e+002
4.212794e+002, 8.702321e+002
4.217615e+002, 8.703976e+002
4.222436e+002, 8.713860e+002
4.227257e+002, 8.721631e+002
4.232079e+002, 8.724392e+002
4.236900e+002, 8.721955e+002
4.241721e+002, 8.714589e+002
4.246542e+002, 8.697558e+002
4.251363e+002, 8.678489e+002
4.256184e+002, 8.662796e+002
4.261006e+002, 8.654958e+002
4.265827e+002, 8.643457e+002
4.270648e+002, 8.623792e+002
4.275469e+002, 8.599764e+002
4.280290e+002, 8.586501e+002
4.285111e+002, 8.589503e+002
4.289933e+002, 8.592157e+002
4.294754e+002, 8.586433e+002
4.299575e+002, 8.570775e+002
4.304396e+002, 8.556567e+002
4.309217e+002, 8.543157e+002
4.314038e+002, 8.532136e+002
4.318860e+002, 8.526227e+002
4.323681e+002, 8.525571e+002
4.328502e+002, 8.527145e+002
4.333323e+002, 8.531961e+002
4.338144e+002, 8.537465e+002
4.342965e+002, 8.533836e+002
4.347787e+002, 8.521396e+002
4.352608e+002, 8.512547e+002
4.357429e+002, 8.522076e+002
4.362250e+002, 8.541766e+002
4.367071e+002, 8.549463e+002
4.371892e+002, 8.540735e+002
4.376714e+002, 8.528292e+002
4.381535e+002, 8.524822e+002
4.386356e+002, 8.528063e+002
4.391177e+002, 8.533054e+002
4.395998e+002, 8.540150e+002
4.400819e+002, 8.546155e+002
4.405641e+002, 8.545223e+002
4.410462e+002, 8.538383e+002
4.415283e+002, 8.537158e+002
4.420104e+002, 8.551359e+002
4.424925e+002, 8.571803e+002
4.429746e+002, 8.590795e+002
4.434568e+002, 8.606625e+002
4.439389e+002, 8.621044e+002
4.444210e+002, 8.636247e+002
4.449031e+002, 8.650182e+002
4.453852e+002, 8.659024e+002
4.458673e+002, 8.655116e+002
4.463495e+002, 8.652570e+002
4.468316e+002, 8.656440e+002
4.473137e+002, 8.668040e+002
4.477958e+002, 8.678176e+002
4.482779e+002, 8.685293e+002
4.487600e+002, 8.692368e+002
4.492422e+002, 8.701506e+002
4.497243e+002, 8.713043e+002
4.502064e+002, 8.727120e+002
4.506885e+002, 8.747747e+002
4.511706e+002, 8.769398e+002
4.516527e+002, 8.774009e+002
4.521349e+002, 8.756317e+002
4.526170e+002, 8.740244e+002
4.530991e+002, 8.737393e+002
4.535812e+002, 8.747148e+002
4.540633e+002, 8.754738e+002
4.545454e+002, 8.760021e+002
4.550276e+002, 8.763845e+002
4.555097e+002, 8.767258e+002
4.559918e+002, 8.770047e+002
4.564739e+002, 8.771476e+002
4.569560e+002, 8.772689e+002
4.574381e+002, 8.770461e+002
4.579203e+002, 8.754017e+002
4.584024e+002, 8.727335e+002
4.588845e+002, 8.708573e+002
4.593666e+002, 8.721010e+002
4.598488e+002, 8.742052e+002
4.603309e+002, 8.739207e+002
4.608130e+002, 8.707661e+002
4.612951e+002, 8.680527e+002
4.617772e+002, 8.688316e+002
4.622593e+002, 8.711315e+002
4.627415e+002, 8.726276e+002
4.632236e+002, 8.720928e+002
4.637057e+002, 8.711022e+002
4.641878e+002, 8.698448e+002
4.646699e+002, 8.685405e+002
4.651520e+002, 8.679382e+002
4.656342e+002, 8.686915e+002
4.661163e+002, 8.698332e+002
4.665984e+002, 8.709852e+002
4.670805e+002, 8.721086e+002
4.675626e+002, 8.732836e+002
4.680447e+002, 8.747426e+002
4.685269e+002, 8.761127e+002
4.690090e+002, 8.769835e+002
4.694911e+002, 8.769735e+002
4.699732e+002, 8.771743e+002
4.704553e+002, 8.777680e+002
4.709374e+002, 8.786829e+002
4.714196e+002, 8.797331e+002
4.719017e+002, 8.810401e+002
4.723838e+002, 8.820510e+002
4.728659e+002, 8.821401e+002
4.733480e+002, 8.812998e+002
4.738301e+002, 8.816559e+002
4.743123e+002, 8.834591e+002
4.747944e+002, 8.855717e+002
4.752765e+002, 8.863215e+002
4.757586e+002, 8.860338e+002
4.762407e+002, 8.864860e+002
4.767228e+002, 8.885547e+002
4.772050e+002, 8.912686e+002
4.776871e+002, 8.931259e+002
4.781692e+002, 8.942675e+002
4.786513e+002, 8.953085e+002
4.791334e+002, 8.968776e+002
4.796155e+002, 8.984392e+002
4.800977e+002, 8.991580e+002
4.805798e+002, 8.987761e+002
4.810619e+002, 8.989210e+002
4.815440e+002, 9.010546e+002
4.820261e+002, 9.040872e+002
4.825082e+002, 9.067694e+002
4.829904e+002, 9.087990e+002
4.834725e+002, 9.103568e+002
4.839546e+002, 9.113805e+002
4.844367e+002, 9.119415e+002
4.849188e+002, 9.123329e+002
4.854009e+002, 9.123924e+002
4.858831e+002, 9.124556e+002
4.863652e+002, 9.126425e+002
4.868473e+002, 9.129589e+002
4.873294e+002, 9.132988e+002
4.878115e+002, 9.135660e+002
4.882936e+002, 9.139163e+002
4.887758e+002, 9.146126e+002
4.892579e+002, 9.158958e+002
4.897400e+002, 9.166562e+002
4.902221e+002, 9.165078e+002
4.907042e+002, 9.158370e+002
4.911863e+002, 9.160343e+002
4.916685e+002, 9.172287e+002
4.921506e+002, 9.180154e+002
4.926327e+002, 9.173655e+002
4.931148e+002, 9.155976e+002
4.935969e+002, 9.142579e+002
4.940790e+002, 9.134037e+002
4.945612e+002, 9.126187e+002
4.950433e+002, 9.115536e+002
4.955254e+002, 9.102565e+002
4.960075e+002, 9.087279e+002
4.964896e+002, 9.067543e+002
4.969717e+002, 9.049347e+002
4.974539e+002, 9.041117e+002
4.979360e+002, 9.039433e+002
4.984181e+002, 9.035742e+002
4.989002e+002, 9.022924e+002
4.993823e+002, 9.008931e+002
4.998644e+002, 9.000071e+002
5.003466e+002, 8.997200e+002
5.008287e+002, 8.989788e+002
5.013108e+002, 8.969989e+002
5.017929e+002, 8.946788e+002
5.022750e+002, 8.927080e+002
5.027571e+002, 8.910605e+002
5.032393e+002, 8.898676e+002
5.037214e+002, 8.896680e+002
5.042035e+002, 8.897921e+002
5.046856e+002, 8.886996e+002
5.051677e+002, 8.855143e+002
5.056498e+002, 8.827533e+002
5.061320e+002, 8.813795e+002
5.066141e+002, 8.813102e+002
5.070962e+002, 8.803262e+002
5.075783e+002, 8.781887e+002
5.080604e+002, 8.759855e+002
5.085425e+002, 8.746467e+002
5.090247e+002, 8.741243e+002
5.095068e+002, 8.737998e+002
5.099889e+002, 8.737405e+002
5.104710e+002, 8.734763e+002
5.109531e+002, 8.719476e+002
5.114352e+002, 8.695470e+002
5.119174e+002, 8.677076e+002
5.123995e+002, 8.674177e+002
5.128816e+002, 8.677546e+002
5.133637e+002, 8.677540e+002
5.138458e+002, 8.674352e+002
5.143279e+002, 8.669494e+002
5.148101e+002, 8.663093e+002
5.152922e+002, 8.655621e+002
5.157743e+002, 8.647206e+002
5.162564e+002, 8.637447e+002
5.167385e+002, 8.627743e+002
5.172206e+002, 8.618036e+002
5.177028e+002, 8.608813e+002
5.181849e+002, 8.600714e+002
5.186670e+002, 8.594938e+002
5.191491e+002, 8.589041e+002
5.196312e+002, 8.581219e+002
5.201133e+002, 8.572859e+002
5.205955e+002, 8.570036e+002
5.210776e+002, 8.577117e+002
5.215597e+002, 8.582869e+002
5.220418e+002, 8.581895e+002
5.225239e+002, 8.573441e+002
5.230060e+002, 8.567771e+002
5.234882e+002, 8.564853e+002
5.239703e+002, 8.565115e+002
5.244524e+002, 8.571944e+002
5.249345e+002, 8.584460e+002
5.254166e+002, 8.589158e+002
5.258987e+002, 8.581116e+002
5.263809e+002, 8.568839e+002
5.268630e+002, 8.567668e+002
5.273451e+002, 8.574531e+002
5.278272e+002, 8.577141e+002
5.283093e+002, 8.560577e+002
5.287914e+002, 8.541396e+002
5.292736e+002, 8.540800e+002
5.297557e+002, 8.557670e+002
5.302378e+002, 8.572618e+002
5.307199e+002, 8.569886e+002
5.312020e+002, 8.563223e+002
5.316841e+002, 8.565397e+002
5.321663e+002, 8.586074e+002
5.326484e+002, 8.599175e+002
5.331305e+002, 8.591085e+002
5.336126e+002, 8.573812e+002
5.340947e+002, 8.564528e+002
5.345768e+002, 8.572155e+002
5.350590e+002, 8.579105e+002
5.355411e+002, 8.584305e+002
5.360232e+002, 8.587271e+002
5.365053e+002, 8.582821e+002
5.369874e+002, 8.566320e+002
5.374695e+002, 8.553261e+002
5.379517e+002, 8.553327e+002
5.384338e+002, 8.567366e+002
5.389159e+002, 8.578770e+002
5.393980e+002, 8.587992e+002
5.398801e+002, 8.592746e+002
5.403622e+002, 8.586547e+002
5.408444e+002, 8.572316e+002
5.413265e+002, 8.564704e+002
5.418086e+002, 8.569418e+002
5.422907e+002, 8.576663e+002
5.427728e+002, 8.570580e+002
5.432549e+002, 8.556033e+002
5.437371e+002, 8.547229e+002
5.442192e+002, 8.556329e+002
5.447013e+002, 8.570193e+002
5.451834e+002, 8.579879e+002
5.456655e+002, 8.585261e+002
5.461476e+002, 8.588268e+002
5.466298e+002, 8.590137e+002
5.471119e+002, 8.589792e+002
5.475940e+002, 8.585910e+002
5.480761e+002, 8.574516e+002
5.485582e+002, 8.567701e+002
5.490403e+002, 8.568801e+002
5.495225e+002, 8.573739e+002
5.500046e+002, 8.577644e+002
5.504867e+002, 8.579417e+002
5.509688e+002, 8.582635e+002
5.514509e+002, 8.589277e+002
5.519330e+002, 8.597343e+002
5.524152e+002, 8.597354e+002
5.528973e+002, 8.587144e+002
5.533794e+002, 8.581246e+002
5.538615e+002, 8.590928e+002
5.543436e+002, 8.612307e+002
5.548257e+002, 8.624799e+002
5.553079e+002, 8.628043e+002
5.557900e+002, 8.626013e+002
5.562721e+002, 8.617900e+002
5.567542e+002, 8.607914e+002
5.572363e+002, 8.604686e+002
5.577184e+002, 8.611946e+002
5.582006e+002, 8.620819e+002
5.586827e+002, 8.625770e+002
5.591648e+002, 8.627430e+002
5.596469e+002, 8.626917e+002
5.601290e+002, 8.620706e+002
5.606111e+002, 8.616403e+002
5.610933e+002, 8.618724e+002
5.615754e+002, 8.626526e+002
5.620575e+002, 8.631780e+002
5.625396e+002, 8.632272e+002
5.630217e+002, 8.631035e+002
5.635038e+002, 8.629466e+002
5.639860e+002, 8.628129e+002
5.644681e+002, 8.622614e+002
5.649502e+002, 8.609490e+002
5.654323e+002, 8.597427e+002
5.659144e+002, 8.596349e+002
5.663965e+002, 8.607293e+002
5.668787e+002, 8.616794e+002
5.673608e+002, 8.623123e+002
5.678429e+002, 8.626961e+002
5.683250e+002, 8.627213e+002
5.688071e+002, 8.625004e+002
5.692892e+002, 8.626571e+002
5.697714e+002, 8.637664e+002
5.702535e+002, 8.652117e+002
5.707356e+002, 8.662452e+002
5.712177e+002, 8.668825e+002
5.716998e+002, 8.671481e+002
5.721819e+002, 8.666486e+002
5.726641e+002, 8.660615e+002
5.731462e+002, 8.659033e+002
5.736283e+002, 8.662638e+002
5.741104e+002, 8.668444e+002
5.745925e+002, 8.678210e+002
5.750746e+002, 8.688242e+002
5.755568e+002, 8.695339e+002
5.760389e+002, 8.698600e+002
5.765210e+002, 8.699275e+002
5.770031e+002, 8.695368e+002
5.774852e+002, 8.689801e+002
5.779673e+002, 8.689406e+002
5.784495e+002, 8.696685e+002
5.789316e+002, 8.701029e+002
5.794137e+002, 8.696699e+002
5.798958e+002, 8.687463e+002
5.803779e+002, 8.691652e+002
5.808600e+002, 8.709885e+002
5.813422e+002, 8.727849e+002
5.818243e+002, 8.733661e+002
5.823064e+002, 8.732401e+002
5.827885e+002, 8.734716e+002
5.832706e+002, 8.741349e+002
5.837527e+002, 8.752101e+002
5.842349e+002, 8.771544e+002
5.847170e+002, 8.793178e+002
5.851991e+002, 8.808284e+002
5.856812e+002, 8.810250e+002
5.861633e+002, 8.812898e+002
5.866454e+002, 8.824677e+002
5.871276e+002, 8.840622e+002
5.876097e+002, 8.851634e+002
5.880918e+002, 8.848965e+002
5.885739e+002, 8.849130e+002
5.890560e+002, 8.856520e+002
5.895381e+002, 8.870092e+002
5.900203e+002, 8.882059e+002
5.905024e+002, 8.891156e+002
5.909845e+002, 8.901373e+002
5.914666e+002, 8.913780e+002
5.919487e+002, 8.928463e+002
5.924308e+002, 8.950818e+002
5.929130e+002, 8.982490e+002
5.933951e+002, 9.014160e+002
5.938772e+002, 9.034294e+002
5.943593e+002, 9.046570e+002
5.948414e+002, 9.062863e+002
5.953235e+002, 9.085768e+002
5.958057e+002, 9.111016e+002
5.962878e+002, 9.133627e+002
5.967699e+002, 9.155546e+002
5.972520e+002, 9.180018e+002
5.977341e+002, 9.205822e+002
5.982162e+002, 9.237033e+002
5.986984e+002, 9.282577e+002
5.991805e+002, 9.336228e+002
5.996626e+002, 9.378166e+002
6.001447e+002, 9.392223e+002
6.006268e+002, 9.404753e+002
6.011089e+002, 9.426152e+002
6.015911e+002, 9.457604e+002
6.020732e+002, 9.484275e+002
6.025553e+002, 9.505731e+002
6.030374e+002, 9.522767e+002
6.035195e+002, 9.534907e+002
6.040016e+002, 9.541779e+002
6.044838e+002, 9.551238e+002
6.049659e+002, 9.566709e+002
6.054480e+002, 9.574857e+002
6.059301e+002, 9.550762e+002
6.064122e+002, 9.502592e+002
6.068943e+002, 9.464142e+002
6.073765e+002, 9.449492e+002
6.078586e+002, 9.439983e+002
6.083407e+002, 9.415283e+002
6.088228e+002, 9.379548e+002
6.093049e+002, 9.343694e+002
6.097870e+002, 9.300419e+002
6.102692e+002, 9.268769e+002
6.107513e+002, 9.268225e+002
6.112334e+002, 9.295282e+002
6.117155e+002, 9.307579e+002
6.121976e+002, 9.285742e+002
6.126797e+002, 9.256931e+002
6.131619e+002, 9.232066e+002
6.136440e+002, 9.210173e+002
6.141261e+002, 9.196451e+002
6.146082e+002, 9.192764e+002
6.150903e+002, 9.194238e+002
6.155724e+002, 9.197970e+002
6.160546e+002, 9.204191e+002
6.165367e+002, 9.206160e+002
6.170188e+002, 9.202150e+002
6.175009e+002, 9.196125e+002
6.179830e+002, 9.195505e+002
6.184651e+002, 9.198062e+002
6.189473e+002, 9.195599e+002
6.194294e+002, 9.179745e+002
6.199115e+002, 9.163863e+002
6.203936e+002, 9.165768e+002
6.208757e+002, 9.178928e+002
6.213578e+002, 9.183923e+002
6.218400e+002, 9.162633e+002
6.223221e+002, 9.139326e+002
6.228042e+002, 9.126437e+002
6.232863e+002, 9.124643e+002
6.237684e+002, 9.124167e+002
6.242505e+002, 9.129469e+002
6.247327e+002, 9.130621e+002
6.252148e+002, 9.121095e+002
6.256969e+002, 9.096378e+002
6.261790e+002, 9.080104e+002
6.266611e+002, 9.074521e+002
6.271432e+002, 9.073076e+002
6.276254e+002, 9.070252e+002
6.281075e+002, 9.065936e+002
6.285896e+002, 9.057542e+002
6.290717e+002, 9.043658e+002
6.295538e+002, 9.028495e+002
6.300359e+002, 9.016498e+002
6.305181e+002, 9.007726e+002
6.310002e+002, 9.002254e+002
6.314823e+002, 9.005507e+002
6.319644e+002, 9.006646e+002
6.324465e+002, 8.993965e+002
6.329286e+002, 8.972142e+002
6.334108e+002, 8.956174e+002
6.338929e+002, 8.955780e+002
6.343750e+002, 8.957588e+002
6.348571e+002, 8.956918e+002
6.353392e+002, 8.953543e+002
6.358214e+002, 8.948181e+002
6.363035e+002, 8.939390e+002
6.367856e+002, 8.930823e+002
6.372677e+002, 8.924871e+002
6.377498e+002, 8.922130e+002
6.382319e+002, 8.917775e+002
6.387141e+002, 8.910956e+002
6.391962e+002, 8.906051e+002
6.396783e+002, 8.911038e+002
6.401604e+002, 8.922448e+002
6.406425e+002, 8.925502e+002
6.411246e+002, 8.915520e+002
6.416068e+002, 8.903431e+002
6.420889e+002, 8.897863e+002
6.425710e+002, 8.898389e+002
6.430531e+002, 8.904383e+002
6.435352e+002, 8.925106e+002
6.440173e+002, 8.941277e+002
6.444995e+002, 8.939430e+002
6.449816e+002, 8.926416e+002
6.454637e+002, 8.922148e+002
6.459458e+002, 8.939632e+002
6.464279e+002, 8.955160e+002
6.469100e+002, 8.962822e+002
6.473922e+002, 8.963141e+002
6.478743e+002, 8.961613e+002
6.483564e+002, 8.956552e+002
6.488385e+002, 8.954492e+002
6.493206e+002, 8.961565e+002
6.498027e+002, 8.976310e+002
6.502849e+002, 8.983619e+002
6.507670e+002, 8.982976e+002
6.512491e+002, 8.982340e+002
6.517312e+002, 8.990889e+002
6.522133e+002, 9.003552e+002
6.526954e+002, 9.011683e+002
6.531776e+002, 9.012663e+002
6.536597e+002, 9.013604e+002
6.541418e+002, 9.020750e+002
6.546239e+002, 9.029598e+002
6.551060e+002, 9.034943e+002
6.555881e+002, 9.031498e+002
6.560703e+002, 9.029425e+002
6.565524e+002, 9.032045e+002
6.570345e+002, 9.036422e+002
6.575166e+002, 9.036854e+002
6.579987e+002, 9.030789e+002
6.584808e+002, 9.027645e+002
6.589630e+002, 9.031483e+002
6.594451e+002, 9.038875e+002
6.599272e+002, 9.035308e+002
6.604093e+002, 9.020752e+002
6.608914e+002, 9.010896e+002
6.613735e+002, 9.021149e+002
6.618557e+002, 9.039247e+002
6.623378e+002, 9.041705e+002
6.628199e+002, 9.029779e+002
6.633020e+002, 9.015145e+002
6.637841e+002, 9.001893e+002
6.642662e+002, 8.991382e+002
6.647484e+002, 8.984265e+002
6.652305e+002, 8.980471e+002
6.657126e+002, 8.981857e+002
6.661947e+002, 8.994606e+002
6.666768e+002, 9.008765e+002
6.671589e+002, 9.017050e+002
6.676411e+002, 9.015661e+002
6.681232e+002, 9.016396e+002
6.686053e+002, 9.019755e+002
6.690874e+002, 9.024319e+002
6.695695e+002, 9.027734e+002
6.700516e+002, 9.029958e+002
6.705338e+002, 9.035051e+002
6.710159e+002, 9.044586e+002
6.714980e+002, 9.055367e+002
6.719801e+002, 9.064229e+002
6.724622e+002, 9.070551e+002
6.729443e+002, 9.072296e+002
6.734265e+002, 9.060989e+002
6.739086e+002, 9.052334e+002
6.743907e+002, 9.060969e+002
6.748728e+002, 9.081531e+002
6.753549e+002, 9.097235e+002
6.758370e+002, 9.100477e+002
6.763192e+002, 9.100964e+002
6.768013e+002, 9.100254e+002
6.772834e+002, 9.098851e+002
6.777655e+002, 9.102958e+002
6.782476e+002, 9.114686e+002
6.787297e+002, 9.127615e+002
6.792119e+002, 9.139582e+002
6.796940e+002, 9.150424e+002
6.801761e+002, 9.154313e+002
6.806582e+002, 9.150497e+002
6.811403e+002, 9.147055e+002
6.816224e+002, 9.151898e+002
6.821046e+002, 9.161591e+002
6.825867e+002, 9.169898e+002
6.830688e+002, 9.176085e+002
6.835509e+002, 9.180673e+002
6.840330e+002, 9.182084e+002
6.845151e+002, 9.183068e+002
6.849973e+002, 9.187197e+002
6.854794e+002, 9.203776e+002
6.859615e+002, 9.209208e+002
6.864436e+002, 9.188318e+002
6.869257e+002, 9.159892e+002
6.874078e+002, 9.147012e+002
6.878900e+002, 9.157902e+002
6.883721e+002, 9.161860e+002
6.888542e+002, 9.153044e+002
6.893363e+002, 9.137032e+002
6.898184e+002, 9.124893e+002
6.903005e+002, 9.116431e+002
6.907827e+002, 9.108058e+002
6.912648e+002, 9.096376e+002
6.917469e+002, 9.086250e+002
6.922290e+002, 9.088718e+002
6.927111e+002, 9.099474e+002
6.931932e+002, 9.104597e+002
6.936754e+002, 9.088116e+002
6.941575e+002, 9.071803e+002
6.946396e+002, 9.071285e+002
6.951217e+002, 9.085147e+002
6.956038e+002, 9.090819e+002
6.960859e+002, 9.074161e+002
6.965681e+002, 9.060010e+002
6.970502e+002, 9.060277e+002
6.975323e+002, 9.076028e+002
6.980144e+002, 9.076652e+002
6.984965e+002, 9.058051e+002
6.989786e+002, 9.039235e+002
6.994608e+002, 9.036778e+002
6.999429e+002, 9.046779e+002
7.004250e+002, 9.049943e+002
7.009071e+002, 9.044776e+002
7.013892e+002, 9.041656e+002
7.018713e+002, 9.056583e+002
7.023535e+002, 9.075916e+002
7.028356e+002, 9.081159e+002
7.033177e+002, 9.064219e+002
7.037998e+002, 9.047372e+002
7.042819e+002, 9.038176e+002
7.047640e+002, 9.033788e+002
7.052462e+002, 9.031324e+002
7.057283e+002, 9.031068e+002
7.062104e+002, 9.031581e+002
7.066925e+002, 9.032627e+002
7.071746e+002, 9.034488e+002
7.076567e+002, 9.038195e+002
7.081389e+002, 9.043908e+002
7.086210e+002, 9.048030e+002
7.091031e+002, 9.049213e+002
7.095852e+002, 9.049402e+002
7.100673e+002, 9.052263e+002
7.105494e+002, 9.056912e+002
7.110316e+002, 9.060735e+002
7.115137e+002, 9.063338e+002
7.119958e+002, 9.063986e+002
7.124779e+002, 9.060078e+002
7.129600e+002, 9.053585e+002
7.134421e+002, 9.050552e+002
7.139243e+002, 9.056231e+002
7.144064e+002, 9.061762e+002
7.148885e+002, 9.065109e+002
7.153706e+002, 9.066221e+002
7.158527e+002, 9.063041e+002
7.163348e+002, 9.052275e+002
7.168170e+002, 9.047236e+002
7.172991e+002, 9.057986e+002
7.177812e+002, 9.080258e+002
7.182633e+002, 9.091780e+002
7.187454e+002, 9.092761e+002
7.192275e+002, 9.088539e+002
7.197097e+002, 9.076039e+002
7.201918e+002, 9.064266e+002
7.206739e+002, 9.066047e+002
7.211560e+002, 9.082455e+002
7.216381e+002, 9.099073e+002
7.221202e+002, 9.112577e+002
7.226024e+002, 9.121364e+002
7.230845e+002, 9.123630e+002
7.235666e+002, 9.117105e+002
7.240487e+002, 9.110501e+002
7.245308e+002, 9.101428e+002
7.250129e+002, 9.095467e+002
7.254951e+002, 9.098590e+002
7.259772e+002, 9.111422e+002
7.264593e+002, 9.122551e+002
7.269414e+002, 9.131301e+002
7.274235e+002, 9.137560e+002
7.279056e+002, 9.140358e+002
7.283878e+002, 9.140608e+002
7.288699e+002, 9.140256e+002
7.293520e+002, 9.139626e+002
7.298341e+002, 9.138621e+002
7.303162e+002, 9.134108e+002
7.307983e+002, 9.130330e+002
7.312805e+002, 9.132555e+002
7.317626e+002, 9.151017e+002
7.322447e+002, 9.163795e+002
7.327268e+002, 9.166342e+002
7.332089e+002, 9.163677e+002
7.336910e+002, 9.164070e+002
7.341732e+002, 9.168422e+002
7.346553e+002, 9.171671e+002
7.351374e+002, 9.171555e+002
7.356195e+002, 9.171690e+002
7.361016e+002, 9.181160e+002
7.365837e+002, 9.197722e+002
7.370659e+002, 9.211795e+002
7.375480e+002, 9.220197e+002
7.380301e+002, 9.223459e+002
7.385122e+002, 9.216754e+002
7.389943e+002, 9.204965e+002
7.394764e+002, 9.200858e+002
7.399586e+002, 9.218719e+002
7.404407e+002, 9.234388e+002
7.409228e+002, 9.237488e+002
7.414049e+002, 9.231176e+002
7.418870e+002, 9.229630e+002
7.423691e+002, 9.235002e+002
7.428513e+002, 9.239510e+002
7.433334e+002, 9.240010e+002
7.438155e+002, 9.237478e+002
7.442976e+002, 9.235185e+002
7.447797e+002, 9.233270e+002
7.452618e+002, 9.233019e+002
7.457440e+002, 9.234764e+002
7.462261e+002, 9.238935e+002
7.467082e+002, 9.248494e+002
7.471903e+002, 9.262376e+002
7.476724e+002, 9.271826e+002
7.481545e+002, 9.270455e+002
7.486367e+002, 9.265668e+002
7.491188e+002, 9.259111e+002
7.496009e+002, 9.249962e+002
7.500830e+002, 9.251289e+002
7.505651e+002, 9.269859e+002
7.510472e+002, 9.286415e+002
7.515294e+002, 9.287328e+002
7.520115e+002, 9.273189e+002
7.524936e+002, 9.264099e+002
7.529757e+002, 9.259992e+002
7.534578e+002, 9.260690e+002
7.539399e+002, 9.271696e+002
7.544221e+002, 9.285201e+002
7.549042e+002, 9.287480e+002
7.553863e+002, 9.276253e+002
7.558684e+002, 9.266655e+002
7.563505e+002, 9.269699e+002
7.568326e+002, 9.275420e+002
7.573148e+002, 9.275204e+002
7.577969e+002, 9.263154e+002
7.582790e+002, 9.259045e+002
7.587611e+002, 9.264548e+002
7.592432e+002, 9.275750e+002
7.597253e+002, 9.290744e+002
7.602075e+002, 9.309754e+002
7.606896e+002, 9.326216e+002
7.611717e+002, 9.340140e+002
7.616538e+002, 9.349195e+002
7.621359e+002, 9.349111e+002
7.626180e+002, 9.342998e+002
7.631002e+002, 9.335292e+002
7.635823e+002, 9.325149e+002
7.640644e+002, 9.319841e+002
7.645465e+002, 9.328620e+002
7.650286e+002, 9.341847e+002
7.655107e+002, 9.349094e+002
7.659929e+002, 9.343623e+002
7.664750e+002, 9.340485e+002
7.669571e+002, 9.340707e+002
7.674392e+002, 9.342481e+002
7.679213e+002, 9.342724e+002
7.684034e+002, 9.341262e+002
7.688856e+002, 9.342936e+002
7.693677e+002, 9.347598e+002
7.698498e+002, 9.358319e+002
7.703319e+002, 9.387786e+002
7.708140e+002, 9.425225e+002
7.712961e+002, 9.446661e+002
7.717783e+002, 9.434007e+002
7.722604e+002, 9.423554e+002
7.727425e+002, 9.443694e+002
7.732246e+002, 9.475192e+002
7.737067e+002, 9.488708e+002
7.741888e+002, 9.466480e+002
7.746710e+002, 9.447260e+002
7.751531e+002, 9.433331e+002
7.756352e+002, 9.424940e+002
7.761173e+002, 9.425010e+002
7.765994e+002, 9.433908e+002
7.770815e+002, 9.437304e+002
7.775637e+002, 9.429097e+002
7.780458e+002, 9.419470e+002
7.785279e+002, 9.425327e+002
7.790100e+002, 9.440966e+002
7.794921e+002, 9.453542e+002
7.799742e+002, 9.455772e+002
7.804564e+002, 9.455994e+002
7.809385e+002, 9.455762e+002
7.814206e+002, 9.456311e+002
7.819027e+002, 9.460828e+002
7.823848e+002, 9.474186e+002
7.828669e+002, 9.483128e+002
7.833491e+002, 9.484867e+002
7.838312e+002, 9.481514e+002
7.843133e+002, 9.477353e+002
7.847954e+002, 9.472509e+002
7.852775e+002, 9.468326e+002
7.857596e+002, 9.464481e+002
7.862418e+002, 9.462910e+002
7.867239e+002, 9.468378e+002
7.872060e+002, 9.478299e+002
7.876881e+002, 9.486470e+002
7.881702e+002, 9.489461e+002
7.886523e+002, 9.490740e+002
7.891345e+002, 9.489213e+002
7.896166e+002, 9.486960e+002
7.900987e+002, 9.490204e+002
7.905808e+002, 9.502490e+002
7.910629e+002, 9.513028e+002
7.915450e+002, 9.518955e+002
7.920272e+002, 9.521660e+002
7.925093e+002, 9.524699e+002
7.929914e+002, 9.528018e+002
7.934735e+002, 9.530912e+002
7.939556e+002, 9.533502e+002
7.944377e+002, 9.535120e+002
7.949199e+002, 9.532565e+002
7.954020e+002, 9.528307e+002
7.958841e+002, 9.528951e+002
7.963662e+002, 9.547885e+002
7.968483e+002, 9.560507e+002
7.973304e+002, 9.549344e+002
7.978126e+002, 9.524945e+002
7.982947e+002, 9.522518e+002
7.987768e+002, 9.552184e+002
7.992589e+002, 9.575547e+002
7.997410e+002, 9.581248e+002
8.002231e+002, 9.574014e+002
8.007053e+002, 9.562068e+002
8.011874e+002, 9.546910e+002
8.016695e+002, 9.536559e+002
8.021516e+002, 9.536365e+002
8.026337e+002, 9.541595e+002
8.031158e+002, 9.549688e+002
8.035980e+002, 9.559836e+002
8.040801e+002, 9.570186e+002
8.045622e+002, 9.581004e+002
8.050443e+002, 9.590793e+002
8.055264e+002, 9.599467e+002
8.060085e+002, 9.606793e+002
8.064907e+002, 9.612883e+002
8.069728e+002, 9.618547e+002
8.074549e+002, 9.617464e+002
8.079370e+002, 9.603735e+002
8.084191e+002, 9.586094e+002
8.089012e+002, 9.583975e+002
8.093834e+002, 9.594100e+002
8.098655e+002, 9.604725e+002
8.103476e+002, 9.609322e+002
8.108297e+002, 9.613422e+002
8.113118e+002, 9.624619e+002
8.117939e+002, 9.638372e+002
8.122761e+002, 9.640455e+002
8.127582e+002, 9.613839e+002
8.132403e+002, 9.597020e+002
8.137224e+002, 9.601009e+002
8.142045e+002, 9.618240e+002
8.146866e+002, 9.627131e+002
8.151688e+002, 9.627499e+002
8.156509e+002, 9.623567e+002
8.161330e+002, 9.612086e+002
8.166151e+002, 9.603038e+002
8.170972e+002, 9.615459e+002
8.175793e+002, 9.642207e+002
8.180615e+002, 9.665272e+002
8.185436e+002, 9.676324e+002
8.190257e+002, 9.682344e+002
8.195078e+002, 9.682777e+002
8.199899e+002, 9.680096e+002
8.204720e+002, 9.681423e+002
8.209542e+002, 9.689532e+002
8.214363e+002, 9.694553e+002
8.219184e+002, 9.693496e+002
8.224005e+002, 9.689071e+002
8.228826e+002, 9.688097e+002
8.233647e+002, 9.689747e+002
8.238469e+002, 9.688811e+002
8.243290e+002, 9.680635e+002
8.248111e+002, 9.673165e+002
8.252932e+002, 9.675172e+002
8.257753e+002, 9.683024e+002
8.262574e+002, 9.689380e+002
8.267396e+002, 9.685810e+002
8.272217e+002, 9.689234e+002
8.277038e+002, 9.708688e+002
8.281859e+002, 9.733453e+002
8.286681e+002, 9.741954e+002
8.291502e+002, 9.731478e+002
8.296323e+002, 9.723781e+002
8.301144e+002, 9.724696e+002
8.305966e+002, 9.728423e+002
8.310787e+002, 9.723082e+002
8.315608e+002, 9.713641e+002
8.320429e+002, 9.712767e+002
8.325250e+002, 9.732250e+002
8.330071e+002, 9.749124e+002
8.334893e+002, 9.748626e+002
8.339714e+002, 9.739216e+002
8.344535e+002, 9.734335e+002
8.349356e+002, 9.736591e+002
8.354177e+002, 9.739125e+002
8.358998e+002, 9.739211e+002
8.363820e+002, 9.742330e+002
8.368641e+002, 9.763497e+002
8.373462e+002, 9.798964e+002
8.378283e+002, 9.815125e+002
8.383104e+002, 9.801580e+002
8.387925e+002, 9.779241e+002
8.392747e+002, 9.764062e+002
8.397568e+002, 9.754477e+002
8.402389e+002, 9.748342e+002
8.407210e+002, 9.745726e+002
8.412031e+002, 9.745399e+002
8.416852e+002, 9.748270e+002
8.421674e+002, 9.752604e+002
8.426495e+002, 9.757328e+002
8.431316e+002, 9.762976e+002
8.436137e+002, 9.766053e+002
8.440958e+002, 9.765702e+002
8.445779e+002, 9.765727e+002
8.450601e+002, 9.773240e+002
8.455422e+002, 9.783856e+002
8.460243e+002, 9.786833e+002
8.465064e+002, 9.778586e+002
8.469885e+002, 9.772939e+002
8.474706e+002, 9.781721e+002
8.479528e+002, 9.793716e+002
8.484349e+002, 9.798625e+002
8.489170e+002, 9.792148e+002
8.493991e+002, 9.788611e+002
8.498812e+002, 9.787823e+002
8.503633e+002, 9.789838e+002
8.508455e+002, 9.796047e+002
8.513276e+002, 9.805564e+002
8.518097e+002, 9.813723e+002
8.522918e+002, 9.820460e+002
8.527739e+002, 9.821726e+002
8.532560e+002, 9.809039e+002
8.537382e+002, 9.793049e+002
8.542203e+002, 9.782998e+002
8.547024e+002, 9.780104e+002
8.551845e+002, 9.782883e+002
8.556666e+002, 9.801945e+002
8.561487e+002, 9.814938e+002
8.566309e+002, 9.807576e+002
8.571130e+002, 9.780461e+002
8.575951e+002, 9.768539e+002
8.580772e+002, 9.772384e+002
8.585593e+002, 9.784360e+002
8.590414e+002, 9.809640e+002
8.595236e+002, 9.834713e+002
8.600057e+002, 9.832528e+002
8.604878e+002, 9.806724e+002
8.609699e+002, 9.786064e+002
8.614520e+002, 9.786795e+002
8.619341e+002, 9.792354e+002
8.624163e+002, 9.794073e+002
8.628984e+002, 9.793142e+002
8.633805e+002, 9.801237e+002
8.638626e+002, 9.822880e+002
8.643447e+002, 9.838417e+002
8.648268e+002, 9.838377e+002
8.653090e+002, 9.828635e+002
8.657911e+002, 9.823854e+002
8.662732e+002, 9.822442e+002
8.667553e+002, 9.818197e+002
8.672374e+002, 9.801295e+002
8.677195e+002, 9.786730e+002
8.682017e+002, 9.787658e+002
8.686838e+002, 9.798023e+002
8.691659e+002, 9.799876e+002
8.696480e+002, 9.783685e+002
8.701301e+002, 9.774581e+002
8.706122e+002, 9.780439e+002
8.710944e+002, 9.792547e+002
8.715765e+002, 9.791819e+002
8.720586e+002, 9.779687e+002
8.725407e+002, 9.766075e+002
8.730228e+002, 9.753489e+002
8.735049e+002, 9.742063e+002
8.739871e+002, 9.730048e+002
8.744692e+002, 9.719993e+002
8.749513e+002, 9.715577e+002
8.754334e+002, 9.723063e+002
8.759155e+002, 9.729718e+002
8.763976e+002, 9.736555e+002
8.768798e+002, 9.740326e+002
8.773619e+002, 9.734584e+002
8.778440e+002, 9.718327e+002
8.783261e+002, 9.711135e+002
8.788082e+002, 9.716076e+002
8.792903e+002, 9.724949e+002
8.797725e+002, 9.730471e+002
8.802546e+002, 9.733438e+002
8.807367e+002, 9.735178e+002
8.812188e+002, 9.736014e+002
8.817009e+002, 9.734352e+002
8.821830e+002, 9.726697e+002
8.826652e+002, 9.718439e+002
8.831473e+002, 9.713644e+002
8.836294e+002, 9.713076e+002
8.841115e+002, 9.710975e+002
8.845936e+002, 9.707308e+002
8.850757e+002, 9.702713e+002
8.855579e+002, 9.695568e+002
8.860400e+002, 9.688660e+002
8.865221e+002, 9.690474e+002
8.870042e+002, 9.700355e+002
8.874863e+002, 9.705094e+002
8.879684e+002, 9.690652e+002
8.884506e+002, 9.675521e+002
8.889327e+002, 9.670966e+002
8.894148e+002, 9.676530e+002
8.898969e+002, 9.680873e+002
8.903790e+002, 9.684225e+002
8.908611e+002, 9.685170e+002
8.913433e+002, 9.681354e+002
8.918254e+002, 9.675706e+002
8.923075e+002, 9.678024e+002
8.927896e+002, 9.686042e+002
8.932717e+002, 9.690282e+002
8.937538e+002, 9.681005e+002
8.942360e+002, 9.671174e+002
8.947181e+002, 9.665663e+002
8.952002e+002, 9.665455e+002
8.956823e+002, 9.674582e+002
8.961644e+002, 9.701789e+002
8.966465e+002, 9.719147e+002
8.971287e+002, 9.719988e+002
8.976108e+002, 9.711904e+002
8.980929e+002, 9.707711e+002
8.985750e+002, 9.706759e+002
8.990571e+002, 9.706475e+002
8.995392e+002, 9.707734e+002
9.000214e+002, 9.705209e+002
9.005035e+002, 9.687893e+002
9.009856e+002, 9.667636e+002
9.014677e+002, 9.658317e+002
9.019498e+002, 9.671737e+002
9.024319e+002, 9.680812e+002
9.029141e+002, 9.684893e+002
9.033962e+002, 9.685295e+002
9.038783e+002, 9.681801e+002
9.043604e+002, 9.674996e+002
9.048425e+002, 9.670278e+002
9.053246e+002, 9.667861e+002
9.058068e+002, 9.668920e+002
9.062889e+002, 9.681336e+002
9.067710e+002, 9.692820e+002
9.072531e+002, 9.689680e+002
9.077352e+002, 9.669474e+002
9.082173e+002, 9.652987e+002
9.086995e+002, 9.639568e+002
9.091816e+002, 9.635370e+002
9.096637e+002, 9.646633e+002
9.101458e+002, 9.670113e+002
9.106279e+002, 9.685680e+002
9.111100e+002, 9.693268e+002
9.115922e+002, 9.690944e+002
9.120743e+002, 9.664201e+002
9.125564e+002, 9.637490e+002
9.130385e+002, 9.641497e+002
9.135206e+002, 9.666842e+002
9.140027e+002, 9.684551e+002
9.144849e+002, 9.682167e+002
9.149670e+002, 9.676360e+002
9.154491e+002, 9.667247e+002
9.159312e+002, 9.658664e+002
9.164133e+002, 9.660657e+002
9.168954e+002, 9.672953e+002
9.173776e+002, 9.681723e+002
9.178597e+002, 9.682964e+002
9.183418e+002, 9.681733e+002
9.188239e+002, 9.683389e+002
9.193060e+002, 9.686148e+002
9.197881e+002, 9.687218e+002
9.202703e+002, 9.683620e+002
9.207524e+002, 9.683180e+002
9.212345e+002, 9.689430e+002
9.217166e+002, 9.696481e+002
9.221987e+002, 9.698933e+002
9.226808e+002, 9.696525e+002
9.231630e+002, 9.696954e+002
9.236451e+002, 9.700738e+002
9.241272e+002, 9.704144e+002
9.246093e+002, 9.701725e+002
9.250914e+002, 9.698531e+002
9.255735e+002, 9.700002e+002
9.260557e+002, 9.706558e+002
9.265378e+002, 9.716481e+002
9.270199e+002, 9.736591e+002
9.275020e+002, 9.751795e+002
9.279841e+002, 9.755812e+002
9.284662e+002, 9.750408e+002
9.289484e+002, 9.746491e+002
9.294305e+002, 9.744032e+002
9.299126e+002, 9.739371e+002
9.303947e+002, 9.727755e+002
9.308768e+002, 9.716449e+002
9.313589e+002, 9.715957e+002
9.318411e+002, 9.722347e+002
9.323232e+002, 9.726936e+002
9.328053e+002, 9.726823e+002
9.332874e+002, 9.724891e+002
9.337695e+002, 9.719968e+002
9.342516e+002, 9.715157e+002
9.347338e+002, 9.716406e+002
9.352159e+002, 9.723702e+002
9.356980e+002, 9.727098e+002
9.361801e+002, 9.724462e+002
9.366622e+002, 9.720696e+002
9.371443e+002, 9.718815e+002
9.376265e+002, 9.719603e+002
9.381086e+002, 9.725430e+002
9.385907e+002, 9.739196e+002
9.390728e+002, 9.746503e+002
9.395549e+002, 9.736203e+002
9.400370e+002, 9.729765e+002
9.405192e+002, 9.744031e+002
9.410013e+002, 9.777032e+002
9.414834e+002, 9.786329e+002
9.419655e+002, 9.772438e+002
9.424476e+002, 9.760823e+002
9.429297e+002, 9.776215e+002
9.434119e+002, 9.796004e+002
9.438940e+002, 9.794478e+002
9.443761e+002, 9.776625e+002
9.448582e+002, 9.767529e+002
9.453403e+002, 9.780873e+002
9.458224e+002, 9.792884e+002
9.463046e+002, 9.799338e+002
9.467867e+002, 9.801437e+002
9.472688e+002, 9.800695e+002
9.477509e+002, 9.797613e+002
9.482330e+002, 9.795748e+002
9.487151e+002, 9.795781e+002
9.491973e+002, 9.798438e+002
9.496794e+002, 9.806872e+002
9.501615e+002, 9.817284e+002
9.506436e+002, 9.825281e+002
9.511257e+002, 9.831122e+002
9.516078e+002, 9.831232e+002
9.520900e+002, 9.822098e+002
9.525721e+002, 9.813272e+002
9.530542e+002, 9.812938e+002
9.535363e+002, 9.820131e+002
9.540184e+002, 9.829052e+002
9.545005e+002, 9.839396e+002
9.549827e+002, 9.852195e+002
9.554648e+002, 9.872638e+002
9.559469e+002, 9.891878e+002
9.564290e+002, 9.901799e+002
9.569111e+002, 9.902718e+002
9.573932e+002, 9.906451e+002
9.578754e+002, 9.913256e+002
9.583575e+002, 9.923259e+002
9.588396e+002, 9.938269e+002
9.593217e+002, 9.954254e+002
9.598038e+002, 9.959586e+002
9.602859e+002, 9.957039e+002
9.607681e+002, 9.956376e+002
9.612502e+002, 9.961623e+002
9.617323e+002, 9.969075e+002
9.622144e+002, 9.980930e+002
9.626965e+002, 9.991826e+002
9.631786e+002, 9.993560e+002
9.636608e+002, 9.978776e+002
9.641429e+002, 9.976701e+002
9.646250e+002, 9.990590e+002
9.651071e+002, 1.001028e+003
9.655892e+002, 1.002988e+003
9.660714e+002, 1.004668e+003
9.665535e+002, 1.005365e+003
9.670356e+002, 1.005053e+003
9.675177e+002, 1.004734e+003
9.679998e+002, 1.004384e+003
9.684819e+002, 1.004695e+003
9.689641e+002, 1.006202e+003
9.694462e+002, 1.008739e+003
9.699283e+002, 1.011391e+003
9.704104e+002, 1.014183e+003
9.708925e+002, 1.016808e+003
9.713746e+002, 1.019067e+003
9.718568e+002, 1.021210e+003
9.723389e+002, 1.023608e+003
9.728210e+002, 1.026214e+003
9.733031e+002, 1.028964e+003
9.737852e+002, 1.032077e+003
9.742673e+002, 1.034950e+003
9.747495e+002, 1.037085e+003
9.752316e+002, 1.039279e+003
9.757137e+002, 1.042380e+003
9.761958e+002, 1.046437e+003
9.766779e+002, 1.051210e+003
9.771600e+002, 1.056833e+003
9.776422e+002, 1.061765e+003
9.781243e+002, 1.063722e+003
9.786064e+002, 1.065028e+003
9.790885e+002, 1.068412e+003
9.795706e+002, 1.074126e+003
9.800527e+002, 1.079388e+003
9.805349e+002, 1.083200e+003
9.810170e+002, 1.087297e+003
9.814991e+002, 1.092346e+003
9.819812e+002, 1.098131e+003
9.824633e+002, 1.103903e+003
9.829454e+002, 1.109703e+003
9.834276e+002, 1.115836e+003
9.839097e+002, 1.122976e+003
9.843918e+002, 1.129800e+003
9.848739e+002, 1.134708e+003
9.853560e+002, 1.138998e+003
9.858381e+002, 1.144832e+003
9.863203e+002, 1.153550e+003
9.868024e+002, 1.161167e+003
9.872845e+002, 1.167573e+003
9.877666e+002, 1.172809e+003
9.882487e+002, 1.175905e+003
9.887308e+002, 1.178033e+003
9.892130e+002, 1.183195e+003
9.896951e+002, 1.191524e+003
9.901772e+002, 1.198108e+003
9.906593e+002, 1.198403e+003
9.911414e+002, 1.197990e+003
9.916235e+002, 1.200587e+003
9.921057e+002, 1.205329e+003
9.925878e+002, 1.206799e+003
9.930699e+002, 1.204552e+003
9.935520e+002, 1.202245e+003
9.940341e+002, 1.201360e+003
9.945162e+002, 1.200718e+003
9.949984e+002, 1.198722e+003
9.954805e+002, 1.195694e+003
9.959626e+002, 1.192223e+003
9.964447e+002, 1.188011e+003
9.969268e+002, 1.184170e+003
9.974089e+002, 1.181302e+003
9.978911e+002, 1.178479e+003
9.983732e+002, 1.174573e+003
9.988553e+002, 1.169701e+003
9.993374e+002, 1.166401e+003
9.998195e+002, 1.164819e+003
1.000302e+003, 1.162993e+003
1.000784e+003, 1.158697e+003
1.001266e+003, 1.154092e+003
1.001748e+003, 1.150848e+003
1.002230e+003, 1.148973e+003
1.002712e+003, 1.147598e+003
1.003194e+003, 1.146481e+003
1.003676e+003, 1.146172e+003
1.004159e+003, 1.147167e+003
1.004641e+003, 1.148514e+003
1.005123e+003, 1.147925e+003
1.005605e+003, 1.146060e+003
1.006087e+003, 1.144971e+003
1.006569e+003, 1.145426e+003
1.007051e+003, 1.146286e+003
1.007533e+003, 1.147080e+003
1.008016e+003, 1.148003e+003
1.008498e+003, 1.149248e+003
1.008980e+003, 1.150869e+003
1.009462e+003, 1.152391e+003
1.009944e+003, 1.153717e+003
1.010426e+003, 1.155838e+003
1.010908e+003, 1.159828e+003
1.011390e+003, 1.164784e+003
1.011872e+003, 1.169844e+003
1.012355e+003, 1.174855e+003
1.012837e+003, 1.179410e+003
1.013319e+003, 1.182601e+003
1.013801e+003, 1.186390e+003
1.014283e+003, 1.191438e+003
1.014765e+003, 1.196990e+003
1.015247e+003, 1.201677e+003
1.015729e+003, 1.205635e+003
1.016211e+003, 1.209548e+003
1.016694e+003, 1.213457e+003
1.017176e+003, 1.217885e+003
1.017658e+003, 1.224214e+003
1.018140e+003, 1.230633e+003
1.018622e+003, 1.235406e+003
1.019104e+003, 1.238139e+003
1.019586e+003, 1.241124e+003
1.020068e+003, 1.244463e+003
1.020551e+003, 1.247794e+003
1.021033e+003, 1.251065e+003
1.021515e+003, 1.254126e+003
1.021997e+003, 1.256894e+003
1.022479e+003, 1.259153e+003
1.022961e+003, 1.260219e+003
1.023443e+003, 1.258959e+003
1.023925e+003, 1.257483e+003
1.024407e+003, 1.256570e+003
1.024890e+003, 1.255604e+003
1.025372e+003, 1.253918e+003
1.025854e+003, 1.251530e+003
1.026336e+003, 1.247985e+003
1.026818e+003, 1.243172e+003
1.027300e+003, 1.237682e+003
1.027782e+003, 1.231449e+003
1.028264e+003, 1.225141e+003
1.028746e+003, 1.219660e+003
1.029229e+003, 1.215077e+003
1.029711e+003, 1.209408e+003
1.030193e+003, 1.202088e+003
1.030675e+003, 1.194625e+003
1.031157e+003, 1.187413e+003
1.031639e+003, 1.180482e+003
1.032121e+003, 1.173841e+003
1.032603e+003, 1.167359e+003
1.033086e+003, 1.160826e+003
1.033568e+003, 1.153801e+003
1.034050e+003, 1.147297e+003
1.034532e+003, 1.142448e+003
1.035014e+003, 1.137935e+003
1.035496e+003, 1.132500e+003
1.035978e+003, 1.125974e+003
1.036460e+003, 1.119936e+003
1.036943e+003, 1.114460e+003
1.037425e+003, 1.109827e+003
1.037907e+003, 1.107152e+003
1.038389e+003, 1.104839e+003
1.038871e+003, 1.100770e+003
1.039353e+003, 1.095454e+003
1.039835e+003, 1.091264e+003
1.040317e+003, 1.089040e+003
1.040799e+003, 1.087373e+003
1.041281e+003, 1.086263e+003
1.041764e+003, 1.085235e+003
1.042246e+003, 1.083609e+003
1.042728e+003, 1.081413e+003
1.043210e+003, 1.078483e+003
1.043692e+003, 1.074558e+003
1.044174e+003, 1.071595e+003
1.044656e+003, 1.071718e+003
1.045138e+003, 1.072219e+003
1.045621e+003, 1.071234e+003
1.046103e+003, 1.068894e+003
1.046585e+003, 1.067167e+003
1.047067e+003, 1.066100e+003
1.047549e+003, 1.065116e+003
1.048031e+003, 1.063795e+003
1.048513e+003, 1.062674e+003
1.048995e+003, 1.062802e+003
1.049478e+003, 1.063490e+003
1.049960e+003, 1.063564e+003
1.050442e+003, 1.062235e+003
1.050924e+003, 1.061005e+003
1.051406e+003, 1.059870e+003
1.051888e+003, 1.058871e+003
1.052370e+003, 1.058171e+003
1.052852e+003, 1.057621e+003
1.053334e+003, 1.056514e+003
1.053817e+003, 1.054923e+003
1.054299e+003, 1.053756e+003
1.054781e+003, 1.053816e+003
1.055263e+003, 1.054104e+003
1.055745e+003, 1.054062e+003
1.056227e+003, 1.053938e+003
1.056709e+003, 1.054528e+003
1.057191e+003, 1.055892e+003
1.057673e+003, 1.056698e+003
1.058156e+003, 1.056681e+003
1.058638e+003, 1.055956e+003
1.059120e+003, 1.053879e+003
1.059602e+003, 1.051603e+003
1.060084e+003, 1.050319e+003
1.060566e+003, 1.050263e+003
1.061048e+003, 1.051217e+003
1.061530e+003, 1.053725e+003
1.062013e+003, 1.055863e+003
1.062495e+003, 1.056806e+003
1.062977e+003, 1.056693e+003
1.063459e+003, 1.055332e+003
1.063941e+003, 1.053213e+003
1.064423e+003, 1.051707e+003
1.064905e+003, 1.051813e+003
1.065387e+003, 1.051975e+003
1.065870e+003, 1.051527e+003
1.066352e+003, 1.051089e+003
1.066834e+003, 1.051238e+003
1.067316e+003, 1.051979e+003
1.067798e+003, 1.053008e+003
1.068280e+003, 1.054321e+003
1.068762e+003, 1.055167e+003
1.069244e+003, 1.054547e+003
1.069726e+003, 1.053639e+003
1.070208e+003, 1.053639e+003
1.070691e+003, 1.054218e+003
1.071173e+003, 1.053624e+003
1.071655e+003, 1.050904e+003
1.072137e+003, 1.050219e+003
1.072619e+003, 1.052901e+003
1.073101e+003, 1.056162e+003
1.073583e+003, 1.055832e+003
1.074065e+003, 1.053695e+003
1.074548e+003, 1.052741e+003
1.075030e+003, 1.053632e+003
1.075512e+003, 1.054137e+003
1.075994e+003, 1.053285e+003
1.076476e+003, 1.052457e+003
1.076958e+003, 1.052309e+003
1.077440e+003, 1.052570e+003
1.077922e+003, 1.052202e+003
1.078405e+003, 1.051307e+003
1.078887e+003, 1.050323e+003
1.079369e+003, 1.049033e+003
1.079851e+003, 1.048390e+003
1.080333e+003, 1.050075e+003
1.080815e+003, 1.051949e+003
1.081297e+003, 1.051359e+003
1.081779e+003, 1.047448e+003
1.082261e+003, 1.046420e+003
1.082744e+003, 1.048494e+003
1.083226e+003, 1.050509e+003
1.083708e+003, 1.049616e+003
1.084190e+003, 1.047917e+003
1.084672e+003, 1.047635e+003
1.085154e+003, 1.048435e+003
1.085636e+003, 1.049052e+003
1.086118e+003, 1.049202e+003
1.086601e+003, 1.049410e+003
1.087083e+003, 1.049834e+003
1.087565e+003, 1.050098e+003
1.088047e+003, 1.049560e+003
1.088529e+003, 1.048555e+003
1.089011e+003, 1.047788e+003
1.089493e+003, 1.047336e+003
1.089975e+003, 1.046863e+003
1.090458e+003, 1.045769e+003
1.090940e+003, 1.045217e+003
1.091422e+003, 1.045838e+003
1.091904e+003, 1.047163e+003
1.092386e+003, 1.047850e+003
1.092868e+003, 1.047928e+003
1.093350e+003, 1.047573e+003
1.093832e+003, 1.046840e+003
1.094314e+003, 1.045674e+003
1.094797e+003, 1.043108e+003
1.095279e+003, 1.040780e+003
1.095761e+003, 1.040485e+003
1.096243e+003, 1.042405e+003
1.096725e+003, 1.043380e+003
1.097207e+003, 1.043344e+003
1.097689e+003, 1.043261e+003
1.098171e+003, 1.043789e+003
1.098653e+003, 1.044428e+003
1.099136e+003, 1.044656e+003
1.099618e+003, 1.044558e+003
1.100100e+003, 1.044293e+003
1.100582e+003, 1.043673e+003
1.101064e+003, 1.043255e+003
1.101546e+003, 1.043013e+003
1.102028e+003, 1.043035e+003
1.102510e+003, 1.043376e+003
1.102993e+003, 1.044036e+003
1.103475e+003, 1.045517e+003
1.103957e+003, 1.047535e+003
1.104439e+003, 1.048322e+003
1.104921e+003, 1.045377e+003
1.105403e+003, 1.043422e+003
1.105885e+003, 1.043953e+003
1.106367e+003, 1.045725e+003
1.106849e+003, 1.046672e+003
1.107332e+003, 1.046918e+003
1.107814e+003, 1.047021e+003
1.108296e+003, 1.047061e+003
1.108778e+003, 1.047151e+003
1.109260e+003, 1.047223e+003
1.109742e+003, 1.047514e+003
1.110224e+003, 1.048337e+003
1.110706e+003, 1.049519e+003
1.111188e+003, 1.050220e+003
1.111671e+003, 1.050429e+003
1.112153e+003, 1.050477e+003
1.112635e+003, 1.050310e+003
1.113117e+003, 1.050411e+003
1.113599e+003, 1.051644e+003
1.114081e+003, 1.053200e+003
1.114563e+003, 1.053991e+003
1.115045e+003, 1.053636e+003
1.115528e+003, 1.054192e+003
1.116010e+003, 1.056065e+003
1.116492e+003, 1.057119e+003
1.116974e+003, 1.055686e+003
1.117456e+003, 1.053140e+003
1.117938e+003, 1.051294e+003
1.118420e+003, 1.050126e+003
1.118902e+003, 1.049581e+003
1.119385e+003, 1.050318e+003
1.119867e+003, 1.050744e+003
1.120349e+003, 1.050904e+003
1.120831e+003, 1.050544e+003
1.121313e+003, 1.048987e+003
1.121795e+003, 1.046810e+003
1.122277e+003, 1.045583e+003
1.122759e+003, 1.045305e+003
1.123241e+003, 1.045625e+003
1.123724e+003, 1.047242e+003
1.124206e+003, 1.048325e+003
1.124688e+003, 1.048288e+003
1.125170e+003, 1.047539e+003
1.125652e+003, 1.046510e+003
1.126134e+003, 1.045273e+003
1.126616e+003, 1.044603e+003
1.127098e+003, 1.044612e+003
1.127580e+003, 1.044258e+003
1.128063e+003, 1.042201e+003
1.128545e+003, 1.040168e+003
1.129027e+003, 1.039584e+003
1.129509e+003, 1.039914e+003
1.129991e+003, 1.039203e+003
1.130473e+003, 1.037433e+003
1.130955e+003, 1.035969e+003
1.131437e+003, 1.035171e+003
1.131920e+003, 1.034731e+003
1.132402e+003, 1.034632e+003
1.132884e+003, 1.034551e+003
1.133366e+003, 1.034043e+003
1.133848e+003, 1.033033e+003
1.134330e+003, 1.032689e+003
1.134812e+003, 1.033191e+003
1.135294e+003, 1.033313e+003
1.135776e+003, 1.032373e+003
1.136259e+003, 1.031011e+003
1.136741e+003, 1.029775e+003
1.137223e+003, 1.028798e+003
1.137705e+003, 1.028255e+003
1.138187e+003, 1.028085e+003
1.138669e+003, 1.028778e+003
1.139151e+003, 1.030650e+003
1.139633e+003, 1.032547e+003
1.140115e+003, 1.033902e+003
1.140598e+003, 1.034634e+003
1.141080e+003, 1.034139e+003
1.141562e+003, 1.032882e+003
1.142044e+003, 1.032139e+003
1.142526e+003, 1.033219e+003
1.143008e+003, 1.033623e+003
1.143490e+003, 1.032925e+003
1.143972e+003, 1.031785e+003
1.144455e+003, 1.030469e+003
1.144937e+003, 1.029302e+003
1.145419e+003, 1.029702e+003
1.145901e+003, 1.031490e+003
1.146383e+003, 1.032993e+003
1.146865e+003, 1.033510e+003
1.147347e+003, 1.033374e+003
1.147829e+003, 1.032413e+003
1.148312e+003, 1.031212e+003
1.148794e+003, 1.030683e+003
1.149276e+003, 1.030750e+003
1.149758e+003, 1.031013e+003
1.150240e+003, 1.031425e+003
1.150722e+003, 1.031718e+003
1.151204e+003, 1.031577e+003
1.151686e+003, 1.031392e+003
1.152168e+003, 1.031229e+003
1.152651e+003, 1.031220e+003
1.153133e+003, 1.031961e+003
1.153615e+003, 1.033399e+003
1.154097e+003, 1.034343e+003
1.154579e+003, 1.034412e+003
1.155061e+003, 1.034461e+003
1.155543e+003, 1.035621e+003
1.156025e+003, 1.036706e+003
1.156507e+003, 1.036291e+003
1.156990e+003, 1.034624e+003
1.157472e+003, 1.034459e+003
1.157954e+003, 1.035910e+003
1.158436e+003, 1.037188e+003
1.158918e+003, 1.037730e+003
1.159400e+003, 1.037775e+003
1.159882e+003, 1.037083e+003
1.160364e+003, 1.036305e+003
1.160847e+003, 1.036319e+003
1.161329e+003, 1.037359e+003
1.161811e+003, 1.037962e+003
1.162293e+003, 1.038054e+003
1.162775e+003, 1.038096e+003
1.163257e+003, 1.038218e+003
1.163739e+003, 1.038528e+003
1.164221e+003, 1.039311e+003
1.164703e+003, 1.040320e+003
1.165186e+003, 1.041139e+003
1.165668e+003, 1.041616e+003
1.166150e+003, 1.042084e+003
1.166632e+003, 1.042620e+003
1.167114e+003, 1.042834e+003
1.167596e+003, 1.042001e+003
1.168078e+003, 1.040935e+003
1.168560e+003, 1.040936e+003
1.169042e+003, 1.041822e+003
1.169525e+003, 1.043100e+003
1.170007e+003, 1.045763e+003
1.170489e+003, 1.046807e+003
1.170971e+003, 1.045643e+003
1.171453e+003, 1.043995e+003
1.171935e+003, 1.043408e+003
1.172417e+003, 1.043559e+003
1.172899e+003, 1.043808e+003
1.173382e+003, 1.044183e+003
1.173864e+003, 1.044936e+003
1.174346e+003, 1.047024e+003
1.174828e+003, 1.048155e+003
1.175310e+003, 1.047696e+003
1.175792e+003, 1.046786e+003
1.176274e+003, 1.047048e+003
1.176756e+003, 1.047944e+003
1.177239e+003, 1.047961e+003
1.177721e+003, 1.047069e+003
1.178203e+003, 1.046838e+003
1.178685e+003, 1.048686e+003
1.179167e+003, 1.050232e+003
1.179649e+003, 1.050918e+003
1.180131e+003, 1.050998e+003
1.180613e+003, 1.050377e+003
1.181095e+003, 1.049583e+003
1.181578e+003, 1.050561e+003
1.182060e+003, 1.053716e+003
1.182542e+003, 1.056142e+003
1.183024e+003, 1.056201e+003
1.183506e+003, 1.055659e+003
1.183988e+003, 1.055005e+003
1.184470e+003, 1.054329e+003
1.184952e+003, 1.053949e+003
1.185434e+003, 1.053752e+003
1.185917e+003, 1.053168e+003
1.186399e+003, 1.051897e+003
1.186881e+003, 1.051211e+003
1.187363e+003, 1.051965e+003
1.187845e+003, 1.053262e+003
1.188327e+003, 1.054880e+003
1.188809e+003, 1.056582e+003
1.189291e+003, 1.057490e+003
1.189774e+003, 1.057682e+003
1.190256e+003, 1.057533e+003
1.190738e+003, 1.057028e+003
1.191220e+003, 1.056548e+003
1.191702e+003, 1.056099e+003
1.192184e+003, 1.055912e+003
1.192666e+003, 1.056155e+003
1.193148e+003, 1.056781e+003
1.193630e+003, 1.057586e+003
1.194113e+003, 1.058520e+003
1.194595e+003, 1.059297e+003
1.195077e+003, 1.059810e+003
1.195559e+003, 1.060119e+003
1.196041e+003, 1.060548e+003
1.196523e+003, 1.060496e+003
1.197005e+003, 1.059319e+003
1.197487e+003, 1.057114e+003
1.197969e+003, 1.055123e+003
1.198452e+003, 1.053476e+003
1.198934e+003, 1.053041e+003
1.199416e+003, 1.055359e+003
1.199898e+003, 1.057616e+003
1.200380e+003, 1.058593e+003
1.200862e+003, 1.058746e+003
1.201344e+003, 1.058342e+003
1.201826e+003, 1.057380e+003
1.202309e+003, 1.056797e+003
1.202791e+003, 1.056605e+003
1.203273e+003, 1.056883e+003
1.203755e+003, 1.058286e+003
1.204237e+003, 1.059470e+003
1.204719e+003, 1.059485e+003
1.205201e+003, 1.059043e+003
1.205683e+003, 1.059067e+003
1.206166e+003, 1.059534e+003
1.206648e+003, 1.059140e+003
1.207130e+003, 1.057909e+003
1.207612e+003, 1.057123e+003
1.208094e+003, 1.058067e+003
1.208576e+003, 1.059178e+003
1.209058e+003, 1.059573e+003
1.209540e+003, 1.059643e+003
1.210022e+003, 1.060003e+003
1.210505e+003, 1.060635e+003
1.210987e+003, 1.060647e+003
1.211469e+003, 1.060009e+003
1.211951e+003, 1.059873e+003
1.212433e+003, 1.062099e+003
1.212915e+003, 1.063891e+003
1.213397e+003, 1.062852e+003
1.213879e+003, 1.060800e+003
1.214361e+003, 1.061102e+003
1.214844e+003, 1.063547e+003
1.215326e+003, 1.064564e+003
1.215808e+003, 1.063738e+003
1.216290e+003, 1.062955e+003
1.216772e+003, 1.063582e+003
1.217254e+003, 1.064526e+003
1.217736e+003, 1.065433e+003
1.218218e+003, 1.066106e+003
1.218701e+003, 1.065828e+003
1.219183e+003, 1.064744e+003
1.219665e+003, 1.064832e+003
1.220147e+003, 1.066450e+003
1.220629e+003, 1.067800e+003
1.221111e+003, 1.066884e+003
1.221593e+003, 1.066301e+003
1.222075e+003, 1.068041e+003
1.222557e+003, 1.070795e+003
1.223040e+003, 1.070770e+003
1.223522e+003, 1.068421e+003
1.224004e+003, 1.067461e+003
1.224486e+003, 1.068698e+003
1.224968e+003, 1.069846e+003
1.225450e+003, 1.069026e+003
1.225932e+003, 1.068288e+003
1.226414e+003, 1.068756e+003
1.226896e+003, 1.070051e+003
1.227379e+003, 1.071135e+003
1.227861e+003, 1.072011e+003
1.228343e+003, 1.072625e+003
1.228825e+003, 1.072886e+003
1.229307e+003, 1.073417e+003
1.229789e+003, 1.075422e+003
1.230271e+003, 1.076751e+003
1.230753e+003, 1.075927e+003
1.231236e+003, 1.073881e+003
1.231718e+003, 1.074063e+003
1.232200e+003, 1.075850e+003
1.232682e+003, 1.076672e+003
1.233164e+003, 1.075706e+003
1.233646e+003, 1.074610e+003
1.234128e+003, 1.073270e+003
1.234610e+003, 1.073192e+003
1.235093e+003, 1.075754e+003
1.235575e+003, 1.079644e+003
1.236057e+003, 1.080255e+003
1.236539e+003, 1.078491e+003
1.237021e+003, 1.077289e+003
1.237503e+003, 1.077583e+003
1.237985e+003, 1.078086e+003
1.238467e+003, 1.078404e+003
1.238949e+003, 1.078750e+003
1.239432e+003, 1.079278e+003
1.239914e+003, 1.079856e+003
1.240396e+003, 1.079941e+003
1.240878e+003, 1.079744e+003
1.241360e+003, 1.079927e+003
1.241842e+003, 1.080911e+003
1.242324e+003, 1.081496e+003
1.242806e+003, 1.081252e+003
1.243288e+003, 1.080839e+003
1.243771e+003, 1.080448e+003
1.244253e+003, 1.080225e+003
1.244735e+003, 1.080638e+003
1.245217e+003, 1.081507e+003
1.245699e+003, 1.082442e+003
1.246181e+003, 1.083460e+003
1.246663e+003, 1.084174e+003
1.247145e+003, 1.084512e+003
1.247628e+003, 1.084697e+003
1.248110e+003, 1.085030e+003
1.248592e+003, 1.085106e+003
1.249074e+003, 1.083519e+003
1.249556e+003, 1.081172e+003
1.250038e+003, 1.079801e+003
1.250520e+003, 1.080204e+003
1.251002e+003, 1.080928e+003
1.251484e+003, 1.082166e+003
1.251967e+003, 1.082857e+003
1.252449e+003, 1.082175e+003
1.252931e+003, 1.080795e+003
1.253413e+003, 1.079540e+003
1.253895e+003, 1.078448e+003
1.254377e+003, 1.077612e+003
1.254859e+003, 1.077046e+003
1.255341e+003, 1.076813e+003
1.255823e+003, 1.076993e+003
1.256306e+003, 1.077086e+003
1.256788e+003, 1.076743e+003
1.257270e+003, 1.076228e+003
1.257752e+003, 1.075623e+003
1.258234e+003, 1.075168e+003
1.258716e+003, 1.075343e+003
1.259198e+003, 1.076394e+003
1.259680e+003, 1.077349e+003
1.260163e+003, 1.078311e+003
1.260645e+003, 1.078276e+003
1.261127e+003, 1.075895e+003
1.261609e+003, 1.073263e+003
1.262091e+003, 1.072251e+003
1.262573e+003, 1.072200e+003
1.263055e+003, 1.072180e+003
1.263537e+003, 1.072110e+003
1.264020e+003, 1.072271e+003
1.264502e+003, 1.072655e+003
1.264984e+003, 1.073359e+003
1.265466e+003, 1.074673e+003
1.265948e+003, 1.075990e+003
1.266430e+003, 1.077032e+003
1.266912e+003, 1.077732e+003
1.267394e+003, 1.078018e+003
1.267876e+003, 1.077877e+003
1.268359e+003, 1.077671e+003
1.268841e+003, 1.077399e+003
1.269323e+003, 1.077052e+003
1.269805e+003, 1.076217e+003
1.270287e+003, 1.075866e+003
1.270769e+003, 1.077020e+003
1.271251e+003, 1.078363e+003
1.271733e+003, 1.078867e+003
1.272215e+003, 1.078630e+003
1.272698e+003, 1.078323e+003
1.273180e+003, 1.077961e+003
1.273662e+003, 1.077604e+003
1.274144e+003, 1.077524e+003
1.274626e+003, 1.077059e+003
1.275108e+003, 1.075721e+003
1.275590e+003, 1.074504e+003
1.276072e+003, 1.074121e+003
1.276555e+003, 1.074504e+003
1.277037e+003, 1.075952e+003
1.277519e+003, 1.077975e+003
1.278001e+003, 1.079152e+003
1.278483e+003, 1.077711e+003
1.278965e+003, 1.077420e+003
1.279447e+003, 1.078969e+003
1.279929e+003, 1.080481e+003
1.280411e+003, 1.080162e+003
1.280894e+003, 1.079046e+003
1.281376e+003, 1.079025e+003
1.281858e+003, 1.079741e+003
1.282340e+003, 1.080373e+003
1.282822e+003, 1.080758e+003
1.283304e+003, 1.081046e+003
1.283786e+003, 1.081230e+003
1.284268e+003, 1.081395e+003
1.284750e+003, 1.081377e+003
1.285233e+003, 1.081583e+003
1.285715e+003, 1.083143e+003
1.286197e+003, 1.085003e+003
1.286679e+003, 1.085039e+003
1.287161e+003, 1.082285e+003
1.287643e+003, 1.081857e+003
1.288125e+003, 1.083832e+003
1.288607e+003, 1.085832e+003
1.289090e+003, 1.086364e+003
1.289572e+003, 1.086336e+003
1.290054e+003, 1.086076e+003
1.290536e+003, 1.085791e+003
1.291018e+003, 1.085702e+003
1.291500e+003, 1.085802e+003
1.291982e+003, 1.086430e+003
1.292464e+003, 1.087467e+003
1.292947e+003, 1.087864e+003
1.293429e+003, 1.086584e+003
1.293911e+003, 1.085249e+003
1.294393e+003, 1.084348e+003
1.294875e+003, 1.083957e+003
1.295357e+003, 1.084367e+003
1.295839e+003, 1.085367e+003
1.296321e+003, 1.085799e+003
1.296803e+003, 1.085871e+003
1.297286e+003, 1.086244e+003
1.297768e+003, 1.087642e+003
1.298250e+003, 1.088577e+003
1.298732e+003, 1.088695e+003
1.299214e+003, 1.088709e+003
1.299696e+003, 1.089147e+003
1.300178e+003, 1.089693e+003
1.300660e+003, 1.090171e+003
##END=



