##NAMES=Mosesite
##RRUFFID=R180030
##IDEAL CHEMISTRY=(Hg^2+^_2_N^3-^)Cl
##LOCALITY=Terlingua, Brewster Co., Texas, USA
##OWNER=RRUFF
##SOURCE=Tom Loomis
##DESCRIPTION=Aggregates of granular yellow crystals
##STATUS=The identification of this mineral has been confirmed only by single crystal X-ray diffraction.
##URL=rruff.info/R180030
98.67072, 0.0000000E+00
99.15283, 11.66089
99.63495, 17.63818
100.1171, 15.24463
100.5992, 7.070313
101.0813, 1.706177
101.5634, 0.9033200
102.0455, 1.805298
102.5277, 7.039917
103.0098, 14.54297
103.4919, 25.39868
103.9740, 36.55896
104.4561, 44.99207
104.9382, 47.74670
105.4204, 51.19421
105.9025, 58.02747
106.3846, 66.24609
106.8667, 72.14111
107.3488, 72.72607
107.8309, 68.25244
108.3131, 68.24695
108.7952, 76.35400
109.2773, 84.61145
109.7594, 87.75208
110.2415, 85.10901
110.7236, 79.93530
111.2058, 75.71033
111.6879, 73.10571
112.1700, 69.69678
112.6521, 65.77588
113.1342, 62.71985
113.6163, 61.21790
114.0985, 61.36670
114.5806, 64.14783
115.0627, 70.47400
115.5448, 77.28027
116.0269, 80.30798
116.5090, 77.92957
116.9912, 74.56738
117.4733, 71.20581
117.9554, 67.37415
118.4375, 64.17712
118.9196, 61.18420
119.4017, 58.66748
119.8839, 57.78650
120.3660, 59.40051
120.8481, 63.08350
121.3302, 72.63330
121.8123, 88.07788
122.2944, 107.7499
122.7766, 134.3324
123.2587, 167.2632
123.7408, 199.5143
124.2229, 217.8153
124.7050, 216.3651
125.1871, 205.9407
125.6693, 180.9948
126.1514, 148.5184
126.6335, 116.5974
127.1156, 88.05420
127.5977, 63.38208
128.0798, 44.42212
128.5620, 31.70178
129.0441, 21.51978
129.5262, 13.01233
130.0083, 5.986694
130.4904, 0.2163090
130.9725, 6.163086
131.4547, 10.74109
131.9368, 12.55603
132.4189, 11.46606
132.9010, 7.807251
133.3831, 0.8809810
133.8652, 10.08252
134.3474, 19.92615
134.8295, 23.62195
135.3116, 25.35718
135.7937, 29.96436
136.2758, 40.11902
136.7579, 53.62244
137.2401, 65.09741
137.7222, 72.84387
138.2043, 82.01843
138.6864, 93.49268
139.1685, 106.3270
139.6507, 118.9137
140.1328, 129.6361
140.6149, 138.6085
141.0970, 149.9758
141.5791, 165.6090
142.0612, 181.5804
142.5434, 198.3096
143.0255, 215.0411
143.5076, 230.4688
143.9897, 243.6979
144.4718, 252.6909
144.9539, 264.0194
145.4361, 279.1831
145.9182, 295.6970
146.4003, 312.1782
146.8824, 329.6425
147.3645, 346.8949
147.8466, 360.6982
148.3288, 372.0551
148.8109, 383.5663
149.2930, 396.0620
149.7751, 408.1038
150.2572, 418.1929
150.7393, 426.1189
151.2215, 431.8489
151.7036, 434.6791
152.1857, 434.9500
152.6678, 433.6368
153.1499, 431.4824
153.6320, 427.9508
154.1142, 421.9183
154.5963, 413.2605
155.0784, 401.5919
155.5605, 386.6833
156.0426, 368.6761
156.5247, 353.1451
157.0069, 336.1907
157.4890, 317.8608
157.9711, 300.8578
158.4532, 287.3483
158.9353, 274.4487
159.4174, 260.6013
159.8996, 245.7060
160.3817, 230.1069
160.8638, 213.4301
161.3459, 194.5833
161.8280, 178.5374
162.3102, 167.8150
162.7923, 158.7694
163.2744, 149.1912
163.7565, 138.3704
164.2386, 127.3427
164.7207, 117.8065
165.2029, 111.0160
165.6850, 103.8928
166.1671, 95.80176
166.6492, 87.65167
167.1313, 80.07440
167.6134, 73.42401
168.0956, 67.51392
168.5777, 61.86438
169.0598, 56.26477
169.5419, 51.28082
170.0240, 46.90411
170.5061, 43.15240
170.9883, 40.30377
171.4704, 38.64569
171.9525, 37.60785
172.4346, 34.66211
172.9167, 27.57697
173.3988, 21.37866
173.8810, 18.12775
174.3631, 17.04980
174.8452, 16.22052
175.3273, 14.83948
175.8094, 12.77393
176.2915, 9.933350
176.7737, 4.950623
177.2558, 0.7265010
177.7379, 0.4791260
178.2200, 1.132385
178.7021, 2.866150
179.1842, 3.226257
179.6664, 2.748596
180.1485, 2.522461
180.6306, 2.661377
181.1127, 3.114441
181.5948, 4.076599
182.0769, 5.736084
182.5591, 6.782166
183.0412, 5.046570
183.5233, 2.760986
184.0054, 2.647156
184.4875, 6.562988
184.9696, 11.83759
185.4518, 13.09998
185.9339, 8.287598
186.4160, 3.927307
186.8981, 2.863403
187.3802, 3.306152
187.8623, 3.102722
188.3445, 0.9080810
188.8266, 2.464478
189.3087, 3.593872
189.7908, 0.9666750
190.2729, 3.439941
190.7550, 1.012085
191.2372, 3.837891
191.7193, 8.194946
192.2014, 10.72198
192.6835, 11.66046
193.1656, 11.48370
193.6477, 7.282043
194.1299, 4.824402
194.6120, 7.190674
195.0941, 11.82428
195.5762, 14.14154
196.0583, 10.70831
196.5404, 2.028564
197.0226, 2.491760
197.5047, 1.378418
197.9868, 4.665039
198.4689, 4.810913
198.9510, 2.380432
199.4331, 0.9738160
199.9153, 4.115295
200.3974, 7.038696
200.8795, 9.752502
201.3616, 12.74280
201.8437, 15.11517
202.3258, 15.88837
202.8080, 15.51080
203.2901, 15.63165
203.7722, 17.50659
204.2543, 21.07031
204.7364, 24.26788
205.2185, 27.58575
205.7007, 30.19128
206.1828, 30.88239
206.6649, 29.89728
207.1470, 29.51208
207.6291, 31.55927
208.1112, 35.65955
208.5934, 39.30743
209.0755, 42.43433
209.5576, 45.05688
210.0397, 46.95276
210.5218, 48.09283
211.0039, 49.33240
211.4861, 51.34351
211.9682, 53.85077
212.4503, 56.31921
212.9324, 58.98999
213.4145, 61.34296
213.8967, 62.37378
214.3788, 61.68872
214.8609, 61.43268
215.3430, 63.99072
215.8251, 67.47424
216.3072, 69.34125
216.7894, 67.89941
217.2715, 65.25665
217.7536, 65.40588
218.2357, 69.52368
218.7178, 73.16925
219.1999, 73.48053
219.6821, 72.57605
220.1642, 73.06827
220.6463, 76.48502
221.1284, 81.17538
221.6105, 83.23911
222.0926, 81.27454
222.5748, 79.44366
223.0569, 79.24731
223.5390, 79.79907
224.0211, 80.04681
224.5032, 79.43488
224.9853, 78.43646
225.4675, 78.45779
225.9496, 80.59012
226.4317, 82.02444
226.9138, 81.68115
227.3959, 80.60657
227.8780, 79.86819
228.3602, 79.96155
228.8423, 80.77530
229.3244, 82.06155
229.8065, 85.22864
230.2886, 86.79578
230.7707, 84.91986
231.2529, 81.77814
231.7350, 79.85406
232.2171, 80.35129
232.6992, 82.60638
233.1813, 84.50125
233.6634, 86.41705
234.1456, 87.36560
234.6277, 86.38861
235.1098, 84.57654
235.5919, 83.55853
236.0740, 84.21417
236.5561, 85.79022
237.0383, 86.02682
237.5204, 84.04077
238.0025, 81.56778
238.4846, 77.39154
238.9667, 73.22607
239.4488, 71.48416
239.9310, 73.21820
240.4131, 77.01608
240.8952, 79.31470
241.3773, 79.36588
241.8594, 78.96576
242.3415, 77.46747
242.8237, 75.91940
243.3058, 75.94427
243.7879, 78.20987
244.2700, 81.37967
244.7521, 82.55887
245.2342, 80.61819
245.7164, 79.14151
246.1985, 78.99548
246.6806, 79.32318
247.1627, 79.26160
247.6448, 78.74643
248.1269, 77.99390
248.6091, 77.74655
249.0912, 77.93512
249.5733, 77.90778
250.0554, 77.73926
250.5375, 77.47690
251.0196, 77.07104
251.5018, 76.71725
251.9839, 76.47861
252.4660, 76.37848
252.9481, 76.27325
253.4302, 76.03979
253.9123, 76.21255
254.3945, 76.76019
254.8766, 76.59979
255.3587, 75.19092
255.8408, 73.84320
256.3229, 75.07800
256.8051, 78.60742
257.2872, 81.06418
257.7693, 80.78827
258.2514, 78.99719
258.7335, 77.47479
259.2156, 76.35852
259.6978, 75.82343
260.1799, 76.39078
260.6620, 77.75952
261.1441, 79.08151
261.6262, 80.59766
262.1083, 81.76492
262.5905, 81.32108
263.0726, 78.70947
263.5547, 76.23050
264.0368, 76.07758
264.5189, 77.38211
265.0010, 78.58160
265.4832, 79.62952
265.9653, 80.14462
266.4474, 79.09503
266.9295, 75.96103
267.4116, 73.21249
267.8937, 73.24222
268.3759, 74.47818
268.8580, 74.73383
269.3401, 73.04214
269.8222, 70.34732
270.3043, 67.79333
270.7864, 65.25488
271.2686, 63.40945
271.7507, 63.12906
272.2328, 63.52890
272.7149, 63.88550
273.1970, 64.22260
273.6791, 64.02563
274.1613, 61.98636
274.6434, 57.43390
275.1255, 54.31665
275.6076, 55.81952
276.0897, 58.64789
276.5718, 60.14011
277.0540, 59.55222
277.5361, 58.43658
278.0182, 58.63556
278.5003, 60.32391
278.9824, 62.24930
279.4645, 64.89740
279.9467, 67.10168
280.4288, 67.78143
280.9109, 66.81171
281.3930, 65.47433
281.8751, 65.14172
282.3572, 65.91180
282.8394, 66.44702
283.3215, 66.26199
283.8036, 66.02594
284.2857, 66.00635
284.7678, 66.24551
285.2499, 66.79395
285.7321, 67.87747
286.2142, 69.51447
286.6963, 70.81607
287.1784, 71.81113
287.6605, 72.31622
288.1426, 71.66138
288.6248, 70.29721
289.1069, 69.59464
289.5890, 70.76251
290.0711, 73.67239
290.5532, 76.60089
291.0353, 80.14896
291.5175, 82.88416
291.9996, 83.94724
292.4817, 83.89005
292.9638, 83.75909
293.4459, 84.26086
293.9280, 85.16754
294.4102, 85.44690
294.8923, 84.93808
295.3744, 83.99921
295.8565, 82.69247
296.3386, 81.12524
296.8207, 79.43243
297.3029, 77.69690
297.7850, 75.89166
298.2671, 73.87717
298.7492, 71.51074
299.2313, 69.23517
299.7134, 67.42935
300.1956, 65.62036
300.6777, 63.38855
301.1598, 60.58234
301.6419, 57.35550
302.1240, 53.84940
302.6061, 49.76123
303.0883, 46.26599
303.5704, 43.28018
304.0525, 41.03156
304.5346, 40.14832
305.0167, 40.58112
305.4988, 41.09277
305.9810, 39.96463
306.4631, 36.69934
306.9452, 34.11945
307.4273, 33.14673
307.9094, 32.30185
308.3915, 30.65811
308.8737, 28.37192
309.3558, 26.37097
309.8379, 25.72556
310.3200, 26.53104
310.8021, 26.85654
311.2842, 26.50104
311.7664, 25.79150
312.2485, 24.52054
312.7306, 22.98346
313.2127, 21.77972
313.6948, 21.45172
314.1769, 21.81012
314.6591, 21.56564
315.1412, 20.00381
315.6233, 18.72366
316.1054, 18.18567
316.5875, 18.21234
317.0696, 18.65506
317.5518, 19.52109
318.0339, 20.56921
318.5160, 21.15900
318.9981, 21.37958
319.4802, 20.73047
319.9623, 17.98178
320.4445, 15.07074
320.9266, 14.02548
321.4087, 15.45264
321.8908, 17.84186
322.3729, 18.77402
322.8550, 17.76080
323.3372, 16.63245
323.8193, 15.11188
324.3014, 13.94901
324.7835, 13.79709
325.2656, 14.66528
325.7477, 15.88144
326.2299, 16.71164
326.7120, 17.03445
327.1941, 17.00110
327.6762, 16.49823
328.1583, 15.73962
328.6404, 14.27133
329.1226, 12.62714
329.6047, 12.15387
330.0868, 14.14267
330.5689, 17.80225
331.0510, 19.49448
331.5331, 17.84805
332.0153, 16.52472
332.4974, 17.44128
332.9795, 19.46735
333.4616, 20.89828
333.9437, 20.83755
334.4258, 19.57730
334.9080, 17.81668
335.3901, 14.99652
335.8722, 13.33926
336.3543, 14.70462
336.8365, 16.92798
337.3186, 17.90219
337.8007, 16.88239
338.2828, 15.25058
338.7649, 15.01733
339.2470, 16.47351
339.7292, 17.96442
340.2113, 19.31866
340.6934, 20.34543
341.1755, 20.88666
341.6576, 20.99789
342.1397, 20.98172
342.6219, 21.08548
343.1040, 21.33151
343.5861, 21.42279
344.0682, 20.76846
344.5503, 20.32455
345.0324, 20.92676
345.5146, 22.26083
345.9967, 23.40286
346.4788, 23.68021
346.9609, 23.44409
347.4430, 23.78403
347.9251, 25.16498
348.4073, 25.99326
348.8894, 24.50104
349.3715, 22.21588
349.8536, 21.15512
350.3357, 22.30008
350.8178, 24.02850
351.3000, 24.32803
351.7821, 23.13318
352.2642, 21.91925
352.7463, 20.99042
353.2284, 20.43024
353.7105, 20.52213
354.1927, 21.37448
354.6748, 21.82425
355.1569, 20.90979
355.6390, 18.87888
356.1211, 16.67935
356.6032, 14.13980
357.0854, 12.06985
357.5675, 11.52191
358.0496, 12.18671
358.5317, 12.58328
359.0138, 11.82162
359.4959, 10.55161
359.9781, 9.833740
360.4602, 9.796356
360.9423, 9.849152
361.4244, 9.480103
361.9065, 8.915771
362.3886, 8.752350
362.8708, 9.618683
363.3529, 10.34387
363.8350, 9.754486
364.3171, 8.036896
364.7992, 6.392883
365.2813, 5.202942
365.7635, 4.560303
366.2456, 4.784912
366.7277, 6.398926
367.2098, 7.250793
367.6919, 5.784210
368.1740, 3.073639
368.6562, 1.152496
369.1383, 0.5598450
369.6204, 0.6345520
370.1025, 0.7442930
370.5846, 0.9167480
371.0667, 0.7231750
371.5489, 0.5676880
372.0310, 1.801361
372.5131, 1.617889
372.9952, 7.5103998E-02
373.4773, 1.358643
373.9594, 1.627106
374.4416, 0.7792050
374.9237, 0.2404170
375.4058, 1.973328
375.8879, 3.286591
376.3700, 3.457672
376.8521, 2.894653
377.3343, 2.383362
377.8164, 2.251831
378.2985, 2.478668
378.7806, 3.066162
379.2627, 4.681976
379.7448, 5.521301
380.2270, 4.952789
380.7091, 3.836395
381.1912, 2.795837
381.6733, 2.024170
382.1554, 1.719208
382.6375, 2.236877
383.1197, 3.945801
383.6018, 4.530945
384.0839, 3.333496
384.5660, 1.872925
385.0481, 0.3325810
385.5302, 0.9226380
386.0124, 1.016632
386.4945, 0.7967220
386.9766, 3.904999
387.4587, 5.026978
387.9408, 1.654877
388.4229, 0.7788700
388.9051, 1.527985
389.3872, 1.188812
389.8693, 5.6793001E-02
390.3514, 1.672089
390.8335, 3.307922
391.3156, 3.600677
391.7978, 1.855103
392.2799, 0.6615910
392.7620, 8.5418999E-02
393.2441, 1.1871000E-02
393.7262, 0.8500060
394.2083, 2.264771
394.6905, 2.964752
395.1726, 1.621063
395.6547, 1.465790
396.1368, 3.081879
396.6189, 2.046204
397.1010, 1.180908
397.5832, 1.764984
398.0653, 2.884277
398.5474, 3.344330
399.0295, 2.647552
399.5116, 1.247589
399.9937, 0.4506230
400.4759, 2.727020
400.9580, 3.824585
401.4401, 2.232208
401.9222, 5.3893998E-02
402.4043, 1.275269
402.8864, 1.680420
403.3686, 1.962738
403.8507, 2.890839
404.3328, 4.230042
404.8149, 4.771942
405.2970, 3.929230
405.7791, 3.360504
406.2613, 4.538696
406.7434, 6.780518
407.2255, 8.776978
407.7076, 10.12061
408.1897, 11.06027
408.6718, 11.88559
409.1540, 12.58911
409.6361, 12.83813
410.1182, 12.01001
410.6003, 11.07138
411.0824, 11.79980
411.5645, 14.64932
412.0467, 17.28192
412.5288, 18.51575
413.0109, 18.90366
413.4930, 19.51715
413.9751, 20.61542
414.4572, 21.43408
414.9394, 20.73016
415.4215, 18.44589
415.9036, 18.21631
416.3857, 21.89389
416.8678, 26.19025
417.3499, 28.89868
417.8321, 30.31747
418.3142, 31.88971
418.7963, 34.40768
419.2784, 37.62537
419.7605, 40.69467
420.2426, 42.89450
420.7248, 45.95093
421.2069, 51.23242
421.6890, 56.84390
422.1711, 60.43106
422.6532, 61.63037
423.1353, 62.40488
423.6175, 65.14923
424.0996, 70.32260
424.5817, 75.15555
425.0638, 79.29855
425.5459, 83.47702
426.0280, 88.05682
426.5102, 92.88739
426.9923, 97.56506
427.4744, 101.8083
427.9565, 105.8941
428.4386, 110.7574
428.9207, 117.3971
429.4029, 122.9892
429.8850, 127.2961
430.3671, 130.5075
430.8492, 132.5533
431.3313, 133.4985
431.8134, 133.7709
432.2956, 133.7308
432.7777, 133.3710
433.2598, 132.8260
433.7419, 132.2712
434.2241, 131.3574
434.7062, 129.4323
435.1883, 127.0675
435.6704, 125.4428
436.1525, 125.2427
436.6346, 125.8963
437.1168, 126.7658
437.5989, 128.0002
438.0810, 128.2847
438.5631, 126.5258
439.0452, 124.1588
439.5273, 122.5617
440.0095, 121.6497
440.4916, 121.4689
440.9737, 123.0515
441.4558, 125.3136
441.9379, 125.5357
442.4200, 123.0642
442.9022, 120.4595
443.3843, 119.8745
443.8664, 121.0829
444.3485, 122.0460
444.8306, 122.0590
445.3127, 121.9811
445.7949, 122.8033
446.2770, 124.1468
446.7591, 125.0476
447.2412, 125.0956
447.7233, 124.3734
448.2054, 123.0636
448.6876, 120.7756
449.1697, 119.2227
449.6518, 119.2401
450.1339, 119.6568
450.6160, 119.6768
451.0981, 119.0034
451.5803, 117.4876
452.0624, 115.0631
452.5445, 112.0255
453.0266, 109.8678
453.5087, 109.0527
453.9908, 108.3948
454.4730, 108.0425
454.9551, 107.5694
455.4372, 106.5318
455.9193, 104.8089
456.4014, 102.7252
456.8835, 100.6753
457.3657, 98.59421
457.8478, 96.59454
458.3299, 94.97003
458.8120, 93.13718
459.2941, 90.58286
459.7762, 87.80661
460.2584, 85.96317
460.7405, 86.15735
461.2226, 87.05359
461.7047, 85.44675
462.1868, 80.64792
462.6689, 76.69522
463.1511, 75.55090
463.6332, 75.50403
464.1153, 74.95026
464.5974, 73.75671
465.0795, 72.63791
465.5616, 72.41272
466.0438, 72.49509
466.5259, 71.41949
467.0080, 68.88217
467.4901, 66.02353
467.9722, 63.53745
468.4543, 61.46515
468.9365, 59.82629
469.4186, 58.80936
469.9007, 58.05280
470.3828, 58.06818
470.8649, 58.15097
471.3470, 56.42923
471.8292, 52.11646
472.3113, 46.90115
472.7934, 43.26331
473.2755, 41.55655
473.7576, 40.77994
474.2397, 42.18625
474.7219, 43.39127
475.2040, 42.90634
475.6861, 40.96136
476.1682, 38.47433
476.6503, 35.98862
477.1324, 33.55432
477.6146, 31.39594
478.0967, 29.43808
478.5788, 27.90274
479.0609, 27.24033
479.5430, 26.66092
480.0251, 25.38550
480.5073, 23.42035
480.9894, 21.53485
481.4715, 20.50845
481.9536, 20.28442
482.4357, 20.13354
482.9178, 20.38873
483.4000, 20.12109
483.8821, 18.39407
484.3642, 16.13699
484.8463, 14.71039
485.3284, 14.70901
485.8105, 14.77457
486.2927, 13.20581
486.7748, 10.35172
487.2569, 8.483032
487.7390, 8.321930
488.2211, 8.749146
488.7032, 8.694824
489.1854, 8.229706
489.6675, 7.605865
490.1496, 6.932678
490.6317, 6.071594
491.1138, 4.604156
491.5959, 2.783966
492.0781, 1.637634
492.5602, 1.765320
493.0423, 2.537079
493.5244, 2.569641
494.0065, 1.478271
494.4886, 0.3430480
494.9708, 0.6684880
495.4529, 1.817413
495.9350, 3.675140
496.4171, 5.972473
496.8992, 7.626251
497.3813, 7.728607
497.8635, 6.566895
498.3456, 5.911011
498.8277, 6.036072
499.3098, 6.295654
499.7919, 6.240295
500.2740, 6.480743
500.7562, 7.928619
501.2383, 10.56955
501.7204, 12.99625
502.2025, 13.66031
502.6846, 12.70517
503.1667, 11.84390
503.6489, 11.25284
504.1310, 10.44928
504.6131, 8.610321
505.0952, 6.555084
505.5773, 5.582977
506.0594, 6.222473
506.5416, 7.384735
507.0237, 8.754272
507.5058, 9.998291
507.9879, 9.573608
508.4700, 6.703400
508.9521, 3.713104
509.4343, 3.674286
509.9164, 6.561798
510.3985, 6.964569
510.8806, 2.147919
511.3627, 2.864288
511.8448, 5.047607
512.3270, 5.255493
512.8091, 5.785400
513.2912, 7.635986
513.7733, 9.872650
514.2554, 10.60934
514.7375, 8.193420
515.2197, 8.290344
515.7018, 12.53925
516.1839, 17.38977
516.6660, 21.32220
517.1481, 24.33084
517.6302, 26.76688
518.1124, 28.73270
518.5945, 30.59180
519.0766, 33.48465
519.5587, 37.97919
520.0408, 41.61407
520.5229, 42.53827
521.0051, 43.39252
521.4872, 46.05026
521.9693, 50.38782
522.4514, 54.88324
522.9335, 58.33838
523.4156, 61.44806
523.8978, 65.86627
524.3799, 71.73502
524.8620, 76.63928
525.3441, 78.92508
525.8262, 79.86169
526.3083, 82.01367
526.7905, 85.44839
527.2726, 89.68924
527.7547, 95.42801
528.2368, 101.4302
528.7189, 105.9446
529.2010, 109.0350
529.6832, 112.5414
530.1653, 118.0381
530.6474, 125.0595
531.1295, 130.6678
531.6116, 132.4558
532.0938, 135.8049
532.5759, 142.1187
533.0580, 149.5624
533.5401, 156.4683
534.0222, 162.6087
534.5043, 169.0124
534.9865, 176.8451
535.4686, 185.9344
535.9507, 194.0374
536.4328, 200.5550
536.9149, 207.2799
537.3970, 214.1937
537.8792, 222.0013
538.3613, 231.7590
538.8434, 243.8217
539.3255, 256.1892
539.8076, 267.4346
540.2897, 277.8237
540.7719, 287.6395
541.2540, 296.5911
541.7361, 307.0587
542.2182, 321.0513
542.7003, 338.0988
543.1824, 355.3598
543.6646, 372.5788
544.1467, 390.2651
544.6288, 408.4681
545.1109, 427.3314
545.5930, 446.7865
546.0751, 466.9803
546.5573, 488.5735
547.0394, 512.2227
547.5215, 537.8438
548.0036, 566.9052
548.4857, 602.3275
548.9678, 638.4537
549.4500, 673.1557
549.9321, 708.5623
550.4142, 747.1696
550.8963, 789.7011
551.3784, 835.0337
551.8605, 881.7515
552.3427, 929.9706
552.8248, 982.0551
553.3069, 1039.360
553.7890, 1097.809
554.2711, 1151.897
554.7532, 1206.193
555.2354, 1268.291
555.7175, 1341.494
556.1996, 1417.198
556.6817, 1490.147
557.1638, 1561.508
557.6459, 1635.010
558.1281, 1711.031
558.6102, 1786.692
559.0923, 1859.362
559.5744, 1929.266
560.0565, 1998.788
560.5386, 2070.155
561.0208, 2138.405
561.5029, 2205.065
561.9850, 2267.206
562.4671, 2322.157
562.9492, 2369.259
563.4313, 2409.066
563.9135, 2441.607
564.3956, 2467.039
564.8777, 2489.301
565.3598, 2512.903
565.8419, 2525.615
566.3240, 2522.029
566.8062, 2508.266
567.2883, 2490.044
567.7704, 2468.527
568.2525, 2442.531
568.7346, 2410.990
569.2167, 2374.225
569.6989, 2333.216
570.1810, 2287.576
570.6631, 2240.109
571.1452, 2192.684
571.6273, 2144.512
572.1094, 2094.319
572.5916, 2040.967
573.0737, 1987.857
573.5558, 1936.302
574.0379, 1885.117
574.5200, 1833.600
575.0021, 1781.683
575.4843, 1729.538
575.9664, 1677.265
576.4485, 1625.376
576.9306, 1577.275
577.4127, 1536.769
577.8948, 1494.090
578.3770, 1445.045
578.8591, 1396.007
579.3412, 1351.562
579.8233, 1312.214
580.3054, 1275.078
580.7875, 1238.984
581.2697, 1203.471
581.7518, 1167.578
582.2339, 1131.058
582.7161, 1095.592
583.1982, 1061.360
583.6803, 1029.256
584.1624, 1001.290
584.6445, 977.7393
585.1266, 953.1905
585.6088, 924.9803
586.0909, 896.1483
586.5730, 869.1479
587.0551, 843.9838
587.5372, 819.5952
588.0193, 795.6376
588.5015, 772.3687
588.9836, 750.4355
589.4657, 729.8287
589.9478, 710.7003
590.4299, 693.3798
590.9120, 676.9798
591.3942, 661.9157
591.8763, 647.3820
592.3584, 631.5624
592.8405, 613.1160
593.3226, 594.7388
593.8047, 581.0906
594.2869, 572.0216
594.7690, 562.3107
595.2511, 550.9619
595.7332, 538.7782
596.2153, 525.5526
596.6974, 511.8649
597.1796, 500.0454
597.6617, 493.0139
598.1438, 485.0654
598.6259, 471.4036
599.1080, 455.1928
599.5901, 442.3747
600.0723, 434.3074
600.5544, 427.3725
601.0365, 417.6415
601.5186, 405.0155
602.0007, 393.5876
602.4828, 384.6115
602.9650, 375.3284
603.4471, 365.4299
603.9292, 354.9573
604.4113, 343.7089
604.8934, 331.7911
605.3755, 319.7852
605.8577, 307.7800
606.3398, 296.0913
606.8219, 286.0695
607.3040, 278.0039
607.7861, 269.9661
608.2682, 261.1356
608.7504, 251.8191
609.2325, 242.5100
609.7146, 233.2108
610.1967, 223.6364
610.6788, 213.1766
611.1609, 202.7883
611.6431, 193.1971
612.1252, 184.4536
612.6073, 176.7247
613.0894, 170.1125
613.5715, 164.1177
614.0536, 157.9731
614.5358, 152.1395
615.0179, 145.0936
615.5000, 135.0176
615.9821, 125.6810
616.4642, 118.7712
616.9464, 113.7125
617.4285, 109.2693
617.9106, 104.9348
618.3927, 100.8201
618.8748, 97.68387
619.3569, 95.20139
619.8391, 90.97485
620.3212, 84.21652
620.8033, 76.77322
621.2854, 69.69446
621.7675, 63.22165
622.2496, 58.55051
622.7318, 56.52167
623.2139, 55.29996
623.6960, 55.07654
624.1781, 54.79773
624.6602, 53.32721
625.1423, 50.79425
625.6245, 48.07858
626.1066, 45.60660
626.5887, 43.40500
627.0708, 42.27795
627.5529, 43.24393
628.0350, 43.09299
628.5172, 39.59055
628.9993, 35.87933
629.4814, 34.02060
629.9635, 33.85223
630.4456, 33.99411
630.9277, 33.97311
631.4099, 33.86002
631.8920, 33.84769
632.3741, 33.90833
632.8562, 33.67874
633.3383, 32.87857
633.8204, 31.53430
634.3026, 29.77359
634.7847, 27.59381
635.2668, 26.56128
635.7489, 28.19830
636.2310, 28.93039
636.7131, 26.85052
637.1953, 23.71005
637.6774, 21.64313
638.1595, 21.13708
638.6416, 21.20825
639.1237, 21.07831
639.6058, 20.62152
640.0880, 19.10748
640.5701, 16.02005
641.0522, 14.22473
641.5343, 15.40588
642.0164, 17.97861
642.4985, 20.17032
642.9807, 22.06506
643.4628, 22.41370
643.9449, 19.60898
644.4270, 16.21988
644.9091, 14.21234
645.3912, 13.34741
645.8734, 12.62769
646.3555, 11.65503
646.8376, 11.04929
647.3197, 12.07587
647.8018, 15.36203
648.2839, 16.67416
648.7661, 14.36292
649.2482, 12.02924
649.7303, 10.55511
650.2124, 9.759979
650.6945, 9.615448
651.1766, 10.13184
651.6588, 10.33453
652.1409, 8.902771
652.6230, 6.821808
653.1051, 6.258270
653.5872, 7.302917
654.0693, 8.678741
654.5515, 9.883789
655.0336, 10.77579
655.5157, 11.04590
655.9978, 10.51935
656.4799, 9.705414
656.9620, 8.069519
657.4442, 6.688232
657.9263, 6.411133
658.4084, 6.741180
658.8905, 6.680634
659.3726, 5.839325
659.8547, 4.761932
660.3369, 4.260956
660.8190, 4.279388
661.3011, 3.819641
661.7832, 2.536163
662.2653, 1.614685
662.7474, 2.028625
663.2296, 3.102631
663.7117, 3.600464
664.1938, 3.570190
664.6759, 2.725006
665.1580, 9.5337003E-02
665.6401, 2.728394
666.1223, 4.480988
666.6044, 5.102570
667.0865, 4.602783
667.5686, 2.940033
668.0507, 0.8723450
668.5328, 0.2884220
669.0150, 0.6214290
669.4971, 0.3955990
669.9792, 4.500000
670.4613, 7.756195
670.9434, 8.124390
671.4255, 6.785492
671.9077, 5.357605
672.3898, 4.047516
672.8719, 3.309143
673.3540, 3.824005
673.8361, 4.896729
674.3182, 5.628754
674.8004, 5.909149
675.2825, 5.395172
675.7646, 3.692993
676.2467, 1.693451
676.7288, 1.564301
677.2109, 4.598785
677.6931, 6.487915
678.1752, 6.701294
678.6573, 6.437622
679.1394, 5.805847
679.6215, 5.186493
680.1036, 5.351135
680.5858, 6.638214
681.0679, 7.510437
681.5500, 5.634308
682.0321, 2.255280
682.5142, 1.334320
682.9963, 3.315826
683.4785, 5.081329
683.9606, 4.806000
684.4427, 3.350891
684.9248, 2.741730
685.4069, 3.445496
685.8890, 3.906921
686.3712, 4.031769
686.8533, 3.961517
687.3354, 3.647339
687.8175, 3.225311
688.2996, 2.845490
688.7817, 2.560272
689.2639, 2.528625
689.7460, 3.473755
690.2281, 5.060303
690.7102, 4.468658
691.1923, 1.024200
691.6744, 2.013733
692.1566, 2.872162
692.6387, 2.442657
693.1208, 2.388123
693.6029, 2.703552
694.0850, 3.305481
694.5671, 4.788788
695.0493, 5.973206
695.5314, 5.602386
696.0135, 4.465271
696.4956, 4.247833
696.9777, 5.525970
697.4598, 7.237976
697.9420, 7.928253
698.4241, 7.656403
698.9062, 7.942261
699.3883, 8.879089
699.8704, 10.11258
700.3525, 11.79782
700.8347, 13.50168
701.3168, 14.52142
701.7989, 14.77359
702.2810, 15.37296
702.7631, 16.91772
703.2452, 18.62784
703.7274, 19.91159
704.2095, 20.94434
704.6916, 22.26614
705.1737, 23.99872
705.6558, 25.42651
706.1379, 25.34561
706.6201, 23.92618
707.1022, 24.99252
707.5843, 29.95074
708.0664, 34.10464
708.5485, 35.31186
709.0306, 35.55939
709.5128, 36.93387
709.9949, 39.34067
710.4770, 40.63403
710.9591, 38.97061
711.4412, 37.07352
711.9233, 36.95026
712.4055, 38.03421
712.8876, 39.51364
713.3697, 41.05573
713.8518, 41.92252
714.3339, 41.23114
714.8160, 39.31213
715.2982, 38.76639
715.7803, 40.79370
716.2624, 41.35007
716.7445, 37.41620
717.2266, 33.66016
717.7087, 34.01178
718.1909, 37.52008
718.6730, 39.94635
719.1551, 39.58835
719.6372, 38.30771
720.1193, 37.11270
720.6014, 35.91980
721.0836, 34.42197
721.5657, 32.66583
722.0478, 31.25024
722.5299, 30.64801
723.0120, 30.68930
723.4941, 30.89172
723.9763, 31.69800
724.4584, 31.41437
724.9405, 29.07822
725.4226, 26.56561
725.9047, 24.52643
726.3868, 23.05826
726.8690, 22.37280
727.3511, 22.60092
727.8332, 23.24734
728.3153, 24.48331
728.7974, 25.87387
729.2795, 26.95953
729.7617, 27.57715
730.2438, 27.25092
730.7259, 25.61664
731.2080, 23.34088
731.6901, 21.86017
732.1722, 21.35757
732.6544, 21.02780
733.1365, 21.10788
733.6186, 21.20914
734.1007, 21.24698
734.5828, 21.07425
735.0649, 20.23129
735.5471, 18.65903
736.0292, 17.72717
736.5113, 18.85751
736.9934, 20.33200
737.4755, 20.26379
737.9576, 19.01367
738.4398, 17.80539
738.9219, 17.13110
739.4040, 16.97168
739.8861, 17.22714
740.3682, 17.73874
740.8503, 18.08215
741.3325, 18.37503
741.8146, 18.41479
742.2967, 18.01840
742.7788, 17.46594
743.2609, 16.89713
743.7430, 16.34140
744.2252, 15.85300
744.7073, 15.83850
745.1894, 15.51486
745.6715, 14.05716
746.1536, 12.08783
746.6357, 10.42352
747.1179, 9.275513
747.6000, 8.778442
748.0821, 9.129456
748.5642, 10.15039
749.0463, 11.03461
749.5284, 11.75131
750.0106, 12.14706
750.4927, 12.02661
750.9748, 11.72580
751.4569, 11.49084
751.9390, 11.26431
752.4211, 10.88403
752.9033, 10.13177
753.3854, 9.564484
753.8675, 9.647736
754.3496, 9.800323
754.8317, 9.434387
755.3138, 8.687225
755.7960, 7.921661
756.2781, 7.291351
756.7602, 7.049652
757.2423, 7.801086
757.7244, 9.498627
758.2065, 10.56473
758.6887, 10.90201
759.1708, 10.78049
759.6529, 10.07047
760.1350, 9.159760
760.6171, 8.698364
761.0992, 8.722473
761.5814, 8.482758
762.0635, 7.687408
762.5456, 6.842072
763.0277, 5.663940
763.5098, 4.835602
763.9919, 5.637543
764.4741, 7.962158
764.9562, 9.971436
765.4383, 10.10248
765.9204, 9.125610
766.4025, 8.812836
766.8846, 9.132324
767.3668, 8.923401
767.8489, 7.710571
768.3310, 6.820282
768.8131, 7.703796
769.2952, 9.855988
769.7773, 10.39404
770.2595, 7.115112
770.7416, 5.519409
771.2237, 7.042694
771.7058, 9.292114
772.1879, 11.41962
772.6700, 12.94971
773.1522, 12.91672
773.6343, 10.81351
774.1164, 8.963409
774.5985, 10.60168
775.0806, 13.84488
775.5627, 13.93646
776.0449, 10.89731
776.5270, 8.174530
777.0091, 7.244446
777.4912, 7.432007
777.9733, 7.813812
778.4554, 8.437866
778.9376, 8.891541
779.4197, 9.204803
779.9019, 9.299164
780.3840, 8.771790
780.8661, 8.314392
781.3482, 8.683289
781.8303, 9.776245
782.3124, 10.71320
782.7946, 11.13605
783.2767, 11.25781
783.7588, 11.10345
784.2409, 10.80756
784.7230, 10.61612
785.2051, 10.57220
785.6873, 10.58084
786.1694, 10.57089
786.6515, 10.64355
787.1336, 11.23480
787.6157, 12.59244
788.0978, 12.99167
788.5800, 11.78802
789.0621, 10.51450
789.5442, 9.776459
790.0263, 9.593964
790.5084, 10.13766
790.9905, 11.63336
791.4727, 12.75513
791.9548, 12.63104
792.4369, 12.57144
792.9190, 13.74969
793.4011, 15.42764
793.8832, 16.27682
794.3654, 16.05450
794.8475, 15.67432
795.3296, 16.01630
795.8117, 16.70605
796.2938, 16.62271
796.7759, 15.78577
797.2581, 15.37756
797.7402, 15.75571
798.2223, 16.26517
798.7044, 16.23239
799.1865, 15.84140
799.6686, 16.18536
800.1508, 18.01132
800.6329, 19.50299
801.1150, 20.75128
801.5971, 21.54291
802.0792, 21.23538
802.5613, 20.55530
803.0435, 20.86758
803.5256, 22.62842
804.0077, 24.62466
804.4898, 26.19620
804.9719, 27.34256
805.4540, 28.07040
805.9362, 28.38940
806.4183, 28.17719
806.9004, 27.39316
807.3825, 26.53146
807.8646, 26.15683
808.3467, 26.24063
808.8289, 26.65707
809.3110, 27.96603
809.7931, 28.02509
810.2752, 25.23236
810.7573, 22.29456
811.2394, 21.70444
811.7216, 22.75424
812.2037, 23.14127
812.6858, 22.40747
813.1679, 21.28668
813.6500, 19.74738
814.1321, 18.12817
814.6143, 16.52951
815.0964, 15.15854
815.5785, 14.56409
816.0606, 14.94141
816.5427, 15.21567
817.0248, 13.86789
817.5070, 11.43173
817.9891, 9.739624
818.4712, 8.814636
818.9533, 8.470154
819.4354, 8.789368
819.9175, 9.085663
820.3997, 8.397339
820.8818, 6.751709
821.3639, 6.229156
821.8460, 8.326813
822.3281, 9.369751
822.8102, 8.038971
823.2924, 6.407806
823.7745, 6.092163
824.2566, 6.568512
824.7387, 6.196259
825.2208, 4.155212
825.7029, 2.331085
826.1851, 2.191437
826.6672, 2.697937
827.1493, 2.631073
827.6314, 2.085938
828.1135, 1.653625
828.5956, 1.576660
829.0778, 1.813934
829.5599, 2.408997
830.0420, 3.279510
830.5241, 3.902649
831.0062, 4.265717
831.4883, 3.777039
831.9705, 1.692322
832.4526, 0.1027830
832.9347, 0.5148620
833.4168, 3.203644
833.8989, 4.716003
834.3810, 3.995026
834.8632, 3.895203
835.3453, 5.366547
835.8274, 6.574585
836.3095, 6.267548
836.7916, 4.998993
837.2737, 3.783966
837.7559, 2.899628
838.2380, 2.277130
838.7201, 1.685211
839.2022, 1.332184
839.6843, 1.808685
840.1664, 2.843353
840.6486, 3.578125
841.1307, 3.645844
841.6128, 3.507446
842.0949, 3.890320
842.5770, 4.523285
843.0591, 3.885620
843.5413, 1.553162
844.0234, 0.3404850
844.5055, 1.066864
844.9876, 1.929443
845.4697, 1.741852
845.9518, 0.9346920
846.4340, 0.6915590
846.9161, 1.218872
847.3982, 1.630219
847.8803, 1.967590
848.3624, 2.031738
848.8445, 1.291718
849.3267, 0.4475710
849.8088, 0.5556030
850.2909, 1.861755
850.7730, 3.436005
851.2551, 4.889984
851.7372, 5.642334
852.2194, 4.792725
852.7015, 3.009735
853.1836, 1.715637
853.6657, 1.174957
854.1478, 1.195374
854.6299, 1.686798
855.1121, 2.426147
855.5942, 2.940491
856.0763, 3.221588
856.5584, 3.302307
857.0405, 3.071808
857.5226, 2.915009
858.0048, 2.920898
858.4869, 3.169983
858.9690, 4.021210
859.4511, 5.570465
859.9332, 5.974335
860.4153, 3.858459
860.8975, 2.290802
861.3796, 2.627106
861.8617, 3.441589
862.3438, 3.313934
862.8259, 2.523041
863.3080, 2.413574
863.7902, 3.754059
864.2723, 5.013428
864.7544, 4.488464
865.2365, 3.305176
865.7186, 3.295059
866.2007, 4.294022
866.6829, 5.246719
867.1650, 5.741364
867.6471, 5.864594
868.1292, 5.655746
868.6113, 5.174744
869.0934, 4.842651
869.5756, 4.729874
870.0577, 4.126083
870.5398, 2.482864
871.0219, 1.323227
871.5040, 2.302979
871.9861, 4.605331
872.4683, 5.133469
872.9504, 2.254395
873.4325, 0.6477970
873.9146, 1.313568
874.3967, 2.156311
874.8788, 2.211624
875.3610, 1.976959
875.8431, 2.284653
876.3252, 3.181839
876.8073, 3.662384
877.2894, 2.814499
877.7715, 1.825668
878.2537, 1.682175
878.7358, 1.958145
879.2179, 1.863495
879.7000, 1.468338
880.1821, 1.745331
880.6642, 3.335129
881.1464, 4.934769
881.6285, 3.969147
882.1106, 1.094696
882.5927, 0.3013310
883.0748, 1.822296
883.5569, 3.281250
884.0391, 3.858673
884.5212, 3.735794
885.0033, 3.013580
885.4854, 1.736237
885.9675, 0.7350010
886.4496, 5.1116999E-02
886.9318, 0.4281160
887.4139, 0.9702760
887.8960, 1.028015
888.3781, 0.2495570
888.8602, 2.072556
889.3423, 2.787079
889.8245, 1.947952
890.3066, 1.218811
890.7887, 1.553497
891.2708, 1.627975
891.7529, 2.9785000E-02
892.2350, 1.987167
892.7172, 2.507248
893.1993, 1.467819
893.6814, 0.4638820
894.1635, 0.4808040
894.6456, 0.9126430
895.1277, 1.348785
895.6099, 1.559982
896.0920, 0.5601810
896.5741, 1.418503
897.0562, 2.229477
897.5383, 0.8041230
898.0204, 1.171463
898.5026, 1.169785
898.9847, 0.6299440
899.4668, 2.109604
899.9489, 3.414673
900.4310, 3.428696
900.9131, 1.279373
901.3953, 0.8845060
901.8774, 1.073074
902.3595, 0.2470700
902.8416, 0.9006650
903.3237, 0.2465820
903.8058, 9.0332001E-02
904.2880, 0.8533330
904.7701, 1.623932
905.2522, 2.307449
905.7343, 2.646759
906.2164, 2.315994
906.6985, 1.296219
907.1807, 0.1100620
907.6628, 3.026550
908.1449, 4.845352
908.6270, 3.191772
909.1091, 0.3400570
909.5912, 1.349655
910.0734, 1.791122
910.5555, 1.706299
911.0376, 1.390457
911.5197, 1.243378
912.0018, 1.962296
912.4839, 3.040359
912.9661, 3.329056
913.4482, 2.955933
913.9303, 2.736298
914.4124, 2.885132
914.8945, 2.827408
915.3766, 1.933151
915.8588, 0.7164920
916.3409, 1.030914
916.8230, 3.124191
917.3051, 4.254044
917.7872, 3.778412
918.2693, 3.786499
918.7515, 5.752975
919.2336, 8.155853
919.7157, 8.494751
920.1978, 6.506989
920.6799, 5.010223
921.1620, 3.581680
921.6442, 3.270157
922.1263, 5.133163
922.6084, 7.292160
923.0905, 8.649185
923.5726, 9.297806
924.0547, 9.540573
924.5369, 9.320343
925.0190, 9.133682
925.5011, 9.090668
925.9832, 9.211380
926.4653, 9.379349
926.9474, 9.790756
927.4296, 10.88333
927.9117, 12.56688
928.3938, 14.11290
928.8759, 15.03938
929.3580, 15.82033
929.8401, 16.87402
930.3223, 18.18140
930.8044, 19.79984
931.2865, 21.65790
931.7686, 23.38101
932.2507, 24.82623
932.7328, 26.56645
933.2150, 29.27698
933.6971, 32.80551
934.1792, 36.91760
934.6613, 41.59868
935.1434, 44.91161
935.6255, 46.22058
936.1077, 47.96082
936.5898, 51.82529
937.0719, 57.41934
937.5540, 63.50365
938.0361, 69.93132
938.5182, 75.78519
939.0004, 80.11548
939.4825, 85.89912
939.9646, 94.15656
940.4467, 104.0584
940.9288, 115.1830
941.4109, 127.4531
941.8931, 139.9979
942.3752, 151.0170
942.8573, 165.3976
943.3394, 185.2222
943.8215, 206.9059
944.3036, 227.5796
944.7858, 249.4638
945.2679, 275.3612
945.7500, 305.6084
946.2321, 338.7919
946.7142, 373.3072
947.1964, 411.7474
947.6785, 456.6108
948.1606, 505.7776
948.6427, 557.3025
949.1248, 610.8804
949.6069, 667.2100
950.0891, 726.1673
950.5712, 787.4536
951.0533, 852.9172
951.5354, 919.1953
952.0175, 982.3378
952.4996, 1041.558
952.9818, 1095.269
953.4639, 1143.086
953.9460, 1183.660
954.4281, 1216.271
954.9102, 1240.257
955.3923, 1255.115
955.8745, 1260.543
956.3566, 1253.264
956.8387, 1233.165
957.3208, 1202.624
957.8029, 1161.862
958.2850, 1112.972
958.7672, 1057.112
959.2493, 995.2255
959.7314, 930.9398
960.2135, 863.5892
960.6956, 795.7416
961.1777, 726.5535
961.6599, 659.0523
962.1420, 593.3523
962.6241, 531.5925
963.1062, 476.3014
963.5883, 427.5919
964.0704, 382.7162
964.5526, 342.1430
965.0347, 304.5291
965.5168, 268.7585
965.9989, 236.7755
966.4810, 210.9445
966.9631, 189.3761
967.4453, 168.7665
967.9274, 148.5424
968.4095, 130.3753
968.8916, 114.6729
969.3737, 101.0808
969.8558, 89.76370
970.3380, 80.13699
970.8201, 71.96851
971.3022, 65.00952
971.7843, 58.97026
972.2664, 53.83305
972.7485, 48.87030
973.2307, 43.07753
973.7128, 37.72870
974.1949, 34.51515
974.6770, 32.49316
975.1591, 30.02277
975.6412, 26.91911
976.1234, 23.93137
976.6055, 21.47868
977.0876, 19.14203
977.5698, 15.97055
978.0519, 12.72821
978.5340, 11.36803
979.0161, 11.53809
979.4982, 11.47029
979.9803, 10.73155
980.4625, 10.19553
980.9446, 10.63350
981.4267, 11.47696
981.9088, 11.56822
982.3909, 10.92998
982.8730, 9.496735
983.3552, 7.235931
983.8373, 5.846893
984.3194, 6.099930
984.8015, 6.421341
985.2836, 4.984818
985.7657, 2.330551
986.2479, 1.260056
986.7300, 2.126968
987.2121, 2.702698
987.6942, 2.736298
988.1763, 2.716339
988.6584, 2.894135
989.1406, 3.079758
989.6227, 2.918854
990.1048, 2.420166
990.5869, 2.641144
991.0690, 4.489471
991.5511, 5.268951
992.0333, 4.107681
992.5154, 2.581070
992.9975, 1.760605
993.4796, 0.9680330
993.9617, 1.349564
994.4438, 5.536285
994.9260, 7.527771
995.4081, 5.477051
995.8902, 3.430252
996.3723, 2.116562
996.8544, 1.173767
997.3365, 0.1833500
997.8187, 0.5730290
998.3008, 0.3437810
998.7829, 1.101685
999.2650, 2.161972
999.7471, 2.141541
1000.229, 1.897247
1000.711, 2.304489
1001.193, 2.290192
1001.676, 0.1499940
1002.158, 3.760422
1002.640, 4.958542
1003.122, 2.444946
1003.604, 1.0700000E-04
1004.086, 0.3626100
1004.568, 0.3004300
1005.050, 1.904892
1005.533, 3.542252
1006.015, 3.816437
1006.497, 2.920746
1006.979, 2.084503
1007.461, 1.830566
1007.943, 1.966949
1008.425, 2.341888
1008.907, 2.998093
1009.389, 4.444031
1009.872, 6.062912
1010.354, 6.183380
1010.836, 4.911514
1011.318, 4.220108
1011.800, 5.282333
1012.282, 7.103210
1012.764, 8.935150
1013.246, 10.41260
1013.729, 10.30806
1014.211, 9.108932
1014.693, 8.740646
1015.175, 9.591721
1015.657, 10.78388
1016.139, 11.77161
1016.621, 12.36783
1017.103, 11.87756
1017.585, 10.69797
1018.068, 10.73602
1018.550, 11.94142
1019.032, 13.34953
1019.514, 14.67798
1019.996, 15.47833
1020.478, 15.32735
1020.960, 14.60126
1021.442, 13.86752
1021.924, 13.18063
1022.407, 14.45664
1022.889, 17.93832
1023.371, 19.80957
1023.853, 18.62216
1024.335, 17.26123
1024.817, 18.39951
1025.299, 21.15576
1025.781, 22.92059
1026.264, 23.70462
1026.746, 23.14447
1027.228, 20.72717
1027.710, 19.40292
1028.192, 20.49588
1028.674, 22.05054
1029.156, 22.12006
1029.638, 21.16074
1030.120, 20.96429
1030.603, 21.49304
1031.085, 23.10672
1031.567, 26.60568
1032.049, 29.20685
1032.531, 29.97119
1033.013, 29.37531
1033.495, 27.14667
1033.977, 24.04257
1034.459, 24.09415
1034.942, 29.51675
1035.424, 32.78210
1035.906, 32.81989
1036.388, 32.46362
1036.870, 32.49225
1037.352, 32.71750
1037.834, 32.96243
1038.316, 33.24249
1038.799, 33.65329
1039.281, 34.35907
1039.763, 34.88165
1040.245, 35.55765
1040.727, 35.62100
1041.209, 33.29105
1041.691, 31.44028
1042.173, 33.84134
1042.656, 39.40021
1043.138, 42.24600
1043.620, 40.41513
1044.102, 39.38684
1044.584, 39.92221
1045.066, 40.75641
1045.548, 41.60587
1046.030, 42.40903
1046.512, 43.17273
1046.995, 43.85779
1047.477, 44.22263
1047.959, 43.67090
1048.441, 44.13028
1048.923, 46.62939
1049.405, 49.28461
1049.887, 52.02365
1050.369, 54.02274
1050.851, 53.99625
1051.334, 52.46982
1051.816, 51.65024
1052.298, 52.36267
1052.780, 52.00638
1053.262, 48.28674
1053.744, 45.94272
1054.226, 48.63651
1054.708, 52.50470
1055.191, 53.60843
1055.673, 52.27429
1056.155, 50.89532
1056.637, 49.88055
1057.119, 48.92563
1057.601, 47.85190
1058.083, 47.05453
1058.565, 46.92914
1059.047, 46.97339
1059.530, 46.69846
1060.012, 46.11807
1060.494, 45.78836
1060.976, 45.90451
1061.458, 45.97903
1061.940, 46.07123
1062.422, 45.80887
1062.904, 44.39758
1063.386, 42.97336
1063.869, 43.07626
1064.351, 44.08795
1064.833, 43.91336
1065.315, 41.79874
1065.797, 40.31564
1066.279, 41.26208
1066.761, 42.19516
1067.243, 41.51791
1067.726, 40.45084
1068.208, 40.54892
1068.690, 41.22198
1069.172, 40.68106
1069.654, 38.41611
1070.136, 36.32272
1070.618, 34.96069
1071.100, 34.30399
1071.583, 35.25394
1072.065, 36.11765
1072.547, 34.94098
1073.029, 32.51971
1073.511, 30.47232
1073.993, 29.19214
1074.475, 29.17496
1074.957, 32.08759
1075.439, 34.45612
1075.922, 34.03174
1076.404, 32.74142
1076.886, 32.21854
1077.368, 32.17136
1077.850, 31.87585
1078.332, 31.17221
1078.814, 30.06628
1079.296, 27.82062
1079.779, 26.21924
1080.261, 26.85178
1080.743, 27.77313
1081.225, 27.38806
1081.707, 26.23370
1082.189, 25.18329
1082.671, 24.56262
1083.153, 24.67795
1083.635, 26.38959
1084.118, 27.58331
1084.600, 27.05331
1085.082, 25.76620
1085.564, 23.68173
1086.046, 21.75275
1086.528, 21.42926
1087.010, 22.55621
1087.492, 23.49786
1087.974, 23.71567
1088.457, 23.92474
1088.939, 24.42416
1089.421, 24.71481
1089.903, 24.29422
1090.385, 23.91785
1090.867, 24.91565
1091.349, 26.74841
1091.831, 27.17807
1092.314, 25.26428
1092.796, 23.40558
1093.278, 22.33246
1093.760, 21.93190
1094.242, 22.54965
1094.724, 23.47166
1095.206, 23.98840
1095.688, 24.27838
1096.171, 24.94406
1096.653, 26.17142
1097.135, 27.04163
1097.617, 26.77219
1098.099, 26.75082
1098.581, 27.97723
1099.063, 29.20038
1099.545, 29.00455
1100.027, 28.26337
1100.510, 29.30766
1100.992, 32.52458
1101.474, 33.19858
1101.956, 27.31772
1102.438, 23.00165
1102.920, 23.48578
1103.402, 24.94424
1103.884, 24.99706
1104.366, 24.55798
1104.849, 25.34128
1105.331, 27.31477
1105.813, 28.33441
1106.295, 27.45898
1106.777, 26.59756
1107.259, 25.78915
1107.741, 25.29893
1108.223, 25.19914
1108.706, 25.50867
1109.188, 26.93089
1109.670, 28.93430
1110.152, 28.68085
1110.634, 24.45906
1111.116, 21.62350
1111.598, 21.38124
1112.080, 21.06909
1112.563, 19.46994
1113.045, 18.11966
1113.527, 18.67374
1114.009, 20.31438
1114.491, 20.76651
1114.973, 19.62473
1115.455, 19.07201
1115.937, 19.69450
1116.419, 19.86749
1116.901, 18.90701
1117.384, 18.04214
1117.866, 18.36618
1118.348, 18.85605
1118.830, 17.72946
1119.312, 14.91922
1119.794, 13.22566
1120.276, 13.14117
1120.758, 12.89291
1121.241, 12.23236
1121.723, 11.52191
1122.205, 10.86157
1122.687, 10.31691
1123.169, 9.906509
1123.651, 9.704376
1124.133, 10.33221
1124.615, 12.23376
1125.098, 12.76369
1125.580, 11.59027
1126.062, 9.940750
1126.544, 7.963669
1127.026, 6.575333
1127.508, 6.662323
1127.990, 7.641144
1128.472, 8.045166
1128.954, 7.855804
1129.437, 8.100021
1129.919, 8.879272
1130.401, 8.186401
1130.883, 5.393738
1131.365, 3.142746
1131.847, 3.071762
1132.329, 3.883759
1132.811, 3.704010
1133.293, 2.700150
1133.776, 1.346741
1134.258, 0.2049410
1134.740, 0.1698150
1135.222, 1.494720
1135.704, 2.396530
1136.186, 1.574173
1136.668, 0.8036650
1137.150, 2.098907
1137.633, 3.877380
1138.115, 1.994583
1138.597, 1.853119
1139.079, 1.719452
1139.561, 1.536789
1140.043, 2.903793
1140.525, 1.334274
1141.007, 0.7339320
1141.490, 1.827942
1141.972, 2.135391
1142.454, 1.663635
1142.936, 0.7087400
1143.418, 0.7122960
1143.900, 2.045181
1144.382, 2.006073
1144.864, 0.7492070
1145.346, 0.8135220
1145.828, 2.278854
1146.311, 2.734146
1146.793, 0.7427980
1147.275, 1.740997
1147.757, 3.575455
1148.239, 4.347137
1148.721, 2.588654
1149.203, 0.2504880
1149.685, 1.206711
1150.168, 7.3592998E-02
1150.650, 1.235184
1151.132, 1.251343
1151.614, 0.9327240
1152.096, 0.5942990
1152.578, 0.1742100
1153.060, 0.5211330
1153.542, 1.215912
1154.025, 1.610489
1154.507, 1.715424
1154.989, 1.685562
1155.471, 1.558823
1155.953, 1.259903
1156.435, 0.6264500
1156.917, 1.2726000E-02
1157.399, 0.5713350
1157.881, 0.9971310
1158.364, 1.163345
1158.846, 1.126617
1159.328, 0.8363190
1159.810, 0.2820590
1160.292, 0.3544310
1160.774, 1.799210
1161.256, 2.513412
1161.738, 2.004837
1162.220, 1.408859
1162.703, 1.013107
1163.185, 0.8858640
1163.667, 1.210587
1164.149, 1.787537
1164.631, 1.898193
1165.113, 1.406036
1165.595, 1.367493
1166.077, 1.982056
1166.560, 2.135773
1167.042, 1.537216
1167.524, 0.6270450
1168.006, 0.4657590
1168.488, 1.179337
1168.970, 0.5524290
1169.452, 1.126694
1169.934, 2.462219
1170.417, 3.458221
1170.899, 4.045502
1171.381, 4.254425
1171.863, 4.787338
1172.345, 5.855042
1172.827, 6.679550
1173.309, 6.655823
1173.791, 5.684372
1174.273, 3.375885
1174.755, 0.7087400
1175.238, 0.1218260
1175.720, 1.143463
1176.202, 2.579453
1176.684, 4.024796
1177.166, 5.010742
1177.648, 5.343399
1178.130, 5.223267
1178.612, 4.664810
1179.095, 3.924469
1179.577, 2.813614
1180.059, 2.019043
1180.541, 2.859253
1181.023, 4.485611
1181.505, 5.048935
1181.987, 4.409439
1182.469, 4.062592
1182.952, 4.791321
1183.434, 5.327087
1183.916, 4.884308
1184.398, 4.355606
1184.880, 3.757385
1185.362, 3.714920
1185.844, 5.878098
1186.326, 8.774872
1186.808, 8.319122
1187.291, 3.472000
1187.773, 1.157394
1188.255, 4.521942
1188.737, 6.514664
1189.219, 5.171402
1189.701, 4.095535
1190.183, 5.150330
1190.665, 6.860001
1191.147, 7.602692
1191.630, 7.402969
1192.112, 7.234650
1192.594, 7.257919
1193.076, 6.395432
1193.558, 4.187500
1194.040, 3.430527
1194.522, 5.018143
1195.004, 6.529663
1195.487, 6.494247
1195.969, 5.732040
1196.451, 5.202133
1196.933, 5.016632
1197.415, 5.532135
1197.897, 6.482620
1198.379, 6.747726
1198.861, 6.312912
1199.344, 5.787704
1199.826, 5.435654
1200.308, 5.380356
1200.790, 5.725708
1201.272, 6.228668
1201.754, 6.728424
1202.236, 7.080292
1202.718, 6.899170
1203.200, 6.462585
1203.682, 6.375641
1204.165, 6.561249
1204.647, 6.625092
1205.129, 6.329498
1205.611, 5.736694
1206.093, 4.414413
1206.575, 3.621521
1207.057, 4.242813
1207.539, 5.276215
1208.022, 6.832031
1208.504, 8.008133
1208.986, 7.476486
1209.468, 5.759109
1209.950, 4.971603
1210.432, 5.735001
1210.914, 5.710007
1211.396, 3.534866
1211.879, 2.454269
1212.361, 3.305878
1212.843, 4.850525
1213.325, 7.098984
1213.807, 8.856491
1214.289, 8.551788
1214.771, 6.582916
1215.253, 4.601654
1215.735, 2.424286
1216.218, 2.214645
1216.700, 4.231949
1217.182, 5.255646
1217.664, 4.500793
1218.146, 3.247116
1218.628, 2.175995
1219.110, 1.863510
1219.592, 3.466461
1220.074, 5.903931
1220.557, 6.531677
1221.039, 5.909637
1221.521, 5.328369
1222.003, 4.921570
1222.485, 4.785599
1222.967, 4.806656
1223.449, 4.300797
1223.931, 2.750824
1224.414, 1.533493
1224.896, 1.850220
1225.378, 2.756042
1225.860, 3.863113
1226.342, 5.059174
1226.824, 5.970825
1227.306, 6.380341
1227.788, 5.700638
1228.271, 3.972015
1228.753, 2.742844
1229.235, 2.970322
1229.717, 2.610550
1230.199, 0.2121730
1230.681, 1.560440
1231.163, 0.9060520
1231.645, 3.819916
1232.127, 4.718170
1232.609, 4.421112
1233.092, 4.510559
1233.574, 4.966446
1234.056, 4.979965
1234.538, 4.478683
1235.020, 4.101273
1235.502, 3.886658
1235.984, 3.751877
1236.466, 3.634766
1236.949, 3.380157
1237.431, 2.840317
1237.913, 2.290817
1238.395, 1.786530
1238.877, 1.814194
1239.359, 4.741196
1239.841, 8.698883
1240.323, 8.467789
1240.806, 5.001572
1241.288, 3.446548
1241.770, 4.994675
1242.252, 5.930389
1242.734, 3.722656
1243.216, 1.647842
1243.698, 2.432144
1244.180, 3.390335
1244.662, 2.263367
1245.145, 0.7076420
1245.627, 0.5475310
1246.109, 1.353882
1246.591, 2.055084
1247.073, 2.580246
1247.555, 2.180908
1248.037, 0.5527650
1248.519, 1.498856
1249.001, 0.7023320
1249.484, 2.155624
1249.966, 1.176407
1250.448, 0.1639100
1250.930, 1.164764
1251.412, 2.971512
1251.894, 3.095474
1252.376, 1.872482
1252.858, 2.119370
1253.341, 3.566650
1253.823, 3.426056
1254.305, 1.770462
1254.787, 1.332245
1255.269, 2.829895
1255.751, 4.481262
1256.233, 5.146423
1256.715, 4.862625
1257.198, 4.685883
1257.680, 4.445755
1258.162, 4.644333
1258.644, 4.674683
1259.126, 3.067291
1259.608, 0.9283290
1260.090, 0.7872470
1260.572, 2.861465
1261.054, 4.949371
1261.536, 6.969177
1262.019, 7.847702
1262.501, 6.736603
1262.983, 5.328812
1263.465, 3.753937
1263.947, 2.500626
1264.429, 1.971771
1264.911, 1.947891
1265.393, 1.826431
1265.876, 1.516907
1266.358, 1.199188
1266.840, 0.2971650
1267.322, 0.2017820
1267.804, 0.8621370
1268.286, 1.216141
1268.768, 1.028122
1269.250, 1.081421
1269.733, 1.793274
1270.215, 2.633286
1270.697, 3.053406
1271.179, 3.198883
1271.661, 3.314697
1272.143, 3.357712
1272.625, 3.121246
1273.107, 2.724792
1273.589, 2.378311
1274.072, 2.104645
1274.554, 1.818314
1275.036, 1.344742
1275.518, 1.150116
1276.000, 1.620071
1276.482, 1.758438
1276.964, 0.8158260
1277.446, 0.1591640
1277.929, 0.6992490
1278.411, 1.367966
1278.893, 1.051849
1279.375, 0.1824490
1279.857, 6.8282999E-02
1280.339, 0.2648470
1280.821, 0.5915680
1281.303, 0.3734890
1281.786, 0.1623990
1282.268, 0.0000000E+00
##END=



