##NAMES=Mosesite
##RRUFFID=R180030
##IDEAL CHEMISTRY=(Hg^2+^_2_N^3-^)Cl
##LOCALITY=Terlingua, Brewster Co., Texas, USA
##OWNER=RRUFF
##SOURCE=Tom Loomis
##DESCRIPTION=Aggregates of granular yellow crystals
##STATUS=The identification of this mineral has been confirmed only by single crystal X-ray diffraction.
##URL=rruff.info/R180030
88.13672, 0.0000000E+00
88.61884, 2.908447
89.10095, 1.157166
89.58307, 8.0779999E-02
90.06519, 0.4092710
90.54730, 0.2813720
91.02942, 0.2658390
91.51154, 0.6156010
91.99365, 1.166229
92.47577, 1.509857
92.95789, 0.5421750
93.44000, 3.108124
93.92212, 8.053955
94.40424, 11.31967
94.88635, 12.73868
95.36847, 14.72906
95.85059, 20.69131
96.33270, 30.44128
96.81482, 41.30127
97.29694, 52.32458
97.77905, 63.45926
98.26117, 73.46304
98.74329, 82.59433
99.22540, 90.02478
99.70752, 93.65640
100.1896, 93.13422
100.6718, 90.12933
101.1539, 84.74109
101.6360, 75.78381
102.1181, 69.81293
102.6002, 67.85504
103.0823, 69.57602
103.5645, 72.75922
104.0466, 77.20105
104.5287, 83.33646
105.0108, 91.85104
105.4929, 104.0341
105.9750, 116.1912
106.4572, 127.7434
106.9393, 138.7073
107.4214, 149.4832
107.9035, 160.8746
108.3856, 171.8375
108.8677, 181.0407
109.3499, 186.2114
109.8320, 192.0605
110.3141, 199.7844
110.7962, 210.3093
111.2783, 220.2651
111.7604, 229.7641
112.2426, 238.6498
112.7247, 246.4932
113.2068, 252.7617
113.6889, 258.3710
114.1710, 263.5318
114.6531, 267.9464
115.1353, 272.5209
115.6174, 278.3513
116.0995, 284.6469
116.5816, 289.4679
117.0637, 291.1680
117.5458, 291.6198
118.0280, 291.9547
118.5101, 291.5222
118.9922, 292.2276
119.4743, 295.8876
119.9564, 301.9084
120.4385, 307.6115
120.9207, 309.9565
121.4028, 311.6320
121.8849, 315.7281
122.3670, 325.2055
122.8491, 336.1241
123.3312, 343.9519
123.8134, 348.9364
124.2955, 355.3242
124.7776, 368.3536
125.2597, 385.2600
125.7418, 400.4826
126.2239, 413.2545
126.7061, 422.4597
127.1882, 425.1062
127.6703, 420.8306
128.1524, 413.6198
128.6345, 406.3946
129.1166, 399.4223
129.5988, 393.8435
130.0809, 390.0316
130.5630, 388.0673
131.0451, 388.3258
131.5272, 391.0472
132.0093, 395.4976
132.4915, 400.8753
132.9736, 407.1848
133.4557, 414.1214
133.9378, 421.2321
134.4199, 428.5879
134.9020, 437.2215
135.3842, 447.3622
135.8663, 458.5786
136.3484, 470.5073
136.8305, 483.1775
137.3126, 496.2462
137.7947, 509.5671
138.2769, 523.2997
138.7590, 536.2112
139.2411, 547.6341
139.7232, 558.2474
140.2053, 569.8311
140.6874, 582.2361
141.1696, 596.2596
141.6517, 612.8765
142.1338, 633.8913
142.6159, 653.0222
143.0980, 669.1371
143.5801, 682.9271
144.0623, 698.1946
144.5444, 714.9651
145.0265, 733.1075
145.5086, 751.6937
145.9907, 767.7092
146.4728, 784.6716
146.9550, 803.0137
147.4371, 822.7676
147.9192, 843.4914
148.4013, 866.6666
148.8834, 889.9673
149.3655, 911.5241
149.8477, 929.8135
150.3298, 947.6063
150.8119, 966.3950
151.2940, 987.3693
151.7761, 1002.236
152.2583, 1006.230
152.7404, 1005.475
153.2225, 1006.418
153.7046, 1014.767
154.1867, 1020.159
154.6688, 1020.201
155.1510, 1014.616
155.6331, 1004.032
156.1152, 987.2015
156.5973, 965.8585
157.0794, 942.4362
157.5615, 916.2964
158.0437, 888.8716
158.5258, 860.7617
159.0079, 832.2923
159.4900, 802.4123
159.9721, 769.1208
160.4542, 734.3441
160.9364, 701.4781
161.4185, 672.8821
161.9006, 645.6394
162.3827, 618.0356
162.8648, 589.5060
163.3469, 561.3163
163.8291, 533.2921
164.3112, 506.0966
164.7933, 480.5752
165.2754, 457.6266
165.7575, 436.2715
166.2396, 415.7500
166.7218, 395.7337
167.2039, 376.8754
167.6860, 360.1833
168.1681, 345.2298
168.6502, 330.0461
169.1323, 312.9380
169.6145, 295.5338
170.0966, 279.5701
170.5787, 265.7556
171.0608, 253.0086
171.5429, 240.3317
172.0250, 227.7702
172.5072, 216.2844
172.9893, 206.5331
173.4714, 197.9200
173.9535, 189.6930
174.4356, 181.8735
174.9177, 174.1069
175.3999, 165.5481
175.8820, 156.2608
176.3641, 147.6091
176.8462, 140.5966
177.3283, 134.7433
177.8104, 129.1275
178.2926, 123.6608
178.7747, 118.2504
179.2568, 112.4691
179.7389, 106.4345
180.2210, 101.0293
180.7031, 97.75613
181.1853, 95.88187
181.6674, 93.56125
182.1495, 90.16019
182.6316, 86.02634
183.1137, 81.59488
183.5958, 76.80234
184.0780, 72.60568
184.5601, 70.42340
185.0422, 69.78198
185.5243, 68.34177
186.0064, 64.78900
186.4885, 60.12936
186.9707, 57.46109
187.4528, 56.93225
187.9349, 56.56741
188.4170, 54.19058
188.8991, 50.00873
189.3812, 45.64752
189.8634, 41.40134
190.3455, 37.36395
190.8276, 33.82355
191.3097, 30.76056
191.7918, 28.08673
192.2739, 25.84091
192.7561, 23.96948
193.2382, 22.01947
193.7203, 19.91418
194.2024, 17.61060
194.6845, 14.41739
195.1666, 10.00607
195.6488, 5.892395
196.1309, 4.468567
196.6130, 5.906555
197.0951, 6.576263
197.5772, 4.885712
198.0593, 1.114105
198.5415, 1.728760
199.0236, 3.591858
199.5057, 4.629333
199.9878, 4.417297
200.4699, 2.606964
200.9520, 2.125214
201.4342, 4.606354
201.9163, 9.928772
202.3984, 13.33252
202.8805, 14.60709
203.3626, 14.38681
203.8447, 13.07877
204.3269, 10.33072
204.8090, 8.194794
205.2911, 7.454681
205.7732, 8.139526
206.2553, 9.130005
206.7374, 10.77011
207.2196, 12.20172
207.7017, 12.07510
208.1838, 10.01175
208.6659, 7.721558
209.1480, 5.619659
209.6301, 3.664612
210.1123, 2.459290
210.5944, 2.173248
211.0765, 2.413788
211.5586, 2.809662
212.0407, 3.661346
212.5228, 3.794830
213.0050, 2.520264
213.4871, 0.4062500
213.9692, 2.224884
214.4513, 2.553192
214.9334, 2.192078
215.4155, 2.290344
215.8977, 3.078217
216.3798, 3.776184
216.8619, 4.202423
217.3440, 4.382477
217.8261, 4.030914
218.3082, 2.776062
218.7904, 1.382538
219.2725, 1.018372
219.7546, 2.161621
220.2367, 3.318604
220.7188, 4.072296
221.2009, 4.384064
221.6831, 4.598541
222.1652, 4.736511
222.6473, 4.766693
223.1294, 4.623962
223.6115, 4.168060
224.0936, 3.806610
224.5758, 3.605865
225.0579, 3.550934
225.5400, 3.833435
226.0221, 4.628387
226.5042, 5.604156
226.9863, 6.298462
227.4685, 6.500702
227.9506, 6.826843
228.4327, 7.593842
228.9148, 8.964752
229.3969, 9.381866
229.8790, 8.061279
230.3612, 6.448273
230.8433, 6.475891
231.3254, 9.356140
231.8075, 11.63651
232.2896, 12.19540
232.7717, 10.74734
233.2539, 10.32648
233.7360, 11.41409
234.2181, 13.12119
234.7002, 14.54993
235.1823, 15.97180
235.6644, 16.59091
236.1466, 15.90240
236.6287, 13.72742
237.1108, 12.66348
237.5929, 13.43182
238.0750, 14.69159
238.5571, 14.87268
239.0393, 12.76257
239.5214, 11.88733
240.0035, 13.49368
240.4856, 17.81290
240.9677, 20.28345
241.4498, 19.86774
241.9320, 18.59512
242.4141, 18.43903
242.8962, 20.10400
243.3783, 21.52850
243.8604, 22.22296
244.3425, 22.18161
244.8247, 22.51517
245.3068, 23.37607
245.7889, 24.43491
246.2710, 25.43372
246.7531, 26.39804
247.2352, 27.22836
247.7174, 27.80591
248.1995, 28.16040
248.6816, 28.81949
249.1637, 29.60300
249.6458, 30.92422
250.1279, 33.34940
250.6101, 38.05212
251.0922, 41.33609
251.5743, 42.29056
252.0564, 41.24155
252.5385, 40.67801
253.0206, 40.47235
253.5028, 40.93277
253.9849, 42.50229
254.4670, 46.09598
254.9491, 48.53348
255.4312, 49.01077
255.9133, 47.98508
256.3955, 47.84959
256.8776, 49.09230
257.3597, 50.53397
257.8418, 51.43073
258.3239, 51.53592
258.8061, 52.10248
259.2882, 53.38271
259.7703, 54.78424
260.2524, 54.67010
260.7345, 52.39885
261.2166, 50.27641
261.6988, 49.81778
262.1809, 51.91156
262.6630, 53.11691
263.1451, 53.00528
263.6272, 51.83804
264.1093, 50.39685
264.5915, 48.37161
265.0736, 46.64819
265.5557, 45.85953
266.0378, 46.42783
266.5199, 46.85971
267.0020, 47.01138
267.4842, 47.08176
267.9663, 47.54358
268.4484, 48.55096
268.9305, 49.23621
269.4126, 49.13934
269.8947, 48.07654
270.3769, 47.07657
270.8590, 46.17566
271.3411, 45.56924
271.8232, 45.42126
272.3053, 45.77820
272.7874, 45.97733
273.2696, 45.67960
273.7517, 44.85446
274.2338, 44.46594
274.7159, 44.56323
275.1980, 44.94925
275.6801, 45.31357
276.1623, 45.57347
276.6444, 46.12766
277.1265, 47.29997
277.6086, 49.11372
278.0907, 50.56409
278.5728, 51.63098
279.0550, 52.35471
279.5371, 52.55690
280.0192, 52.16216
280.5013, 52.36783
280.9834, 53.86333
281.4655, 56.22116
281.9477, 57.09991
282.4298, 56.30005
282.9119, 54.98335
283.3940, 53.55710
283.8761, 52.06358
284.3582, 52.97163
284.8404, 57.81404
285.3225, 64.82756
285.8046, 68.32974
286.2867, 68.03970
286.7688, 66.93874
287.2509, 67.05731
287.7331, 68.34291
288.2152, 70.62219
288.6973, 74.35666
289.1794, 78.49004
289.6615, 80.49393
290.1436, 80.38921
290.6258, 79.80031
291.1079, 79.45386
291.5900, 79.45685
292.0721, 80.44762
292.5542, 82.76947
293.0363, 85.42148
293.5185, 86.76143
294.0006, 86.90320
294.4827, 86.86429
294.9648, 87.21143
295.4469, 87.81329
295.9290, 88.42902
296.4112, 89.12479
296.8933, 89.43030
297.3754, 88.64053
297.8575, 86.95041
298.3396, 85.00055
298.8217, 82.90709
299.3039, 80.81033
299.7860, 79.20880
300.2681, 78.15741
300.7502, 76.84625
301.2323, 74.11966
301.7144, 70.48811
302.1966, 67.32230
302.6787, 65.28246
303.1608, 63.85606
303.6429, 62.60872
304.1250, 61.52969
304.6071, 60.08069
305.0893, 57.45482
305.5714, 54.25000
306.0535, 51.55115
306.5356, 49.99637
307.0177, 48.69928
307.4998, 46.78378
307.9820, 44.36221
308.4641, 42.13968
308.9462, 40.72748
309.4283, 39.67209
309.9104, 38.45102
310.3925, 36.71423
310.8747, 35.20166
311.3568, 34.66460
311.8389, 34.81641
312.3210, 34.85269
312.8031, 34.19000
313.2852, 33.35919
313.7674, 32.77092
314.2495, 32.56204
314.7316, 32.42418
315.2137, 32.39221
315.6958, 32.31378
316.1779, 31.92859
316.6601, 31.10208
317.1422, 29.99486
317.6243, 28.32802
318.1064, 25.83537
318.5885, 24.53149
319.0706, 26.48677
319.5528, 29.54037
320.0349, 31.24428
320.5170, 29.74284
320.9991, 27.91595
321.4812, 26.50641
321.9633, 25.56631
322.4455, 25.19203
322.9276, 26.39870
323.4097, 27.63150
323.8918, 27.69867
324.3739, 24.72800
324.8560, 22.48451
325.3382, 21.86044
325.8203, 22.56099
326.3024, 22.94270
326.7845, 22.36835
327.2666, 21.90395
327.7487, 22.08258
328.2309, 23.55058
328.7130, 24.72534
329.1951, 25.65454
329.6772, 26.30969
330.1593, 26.58591
330.6414, 26.38680
331.1236, 25.93269
331.6057, 25.25003
332.0878, 24.24072
332.5699, 23.37051
333.0520, 22.35878
333.5341, 21.60973
334.0163, 21.90721
334.4984, 23.96672
334.9805, 25.76825
335.4626, 26.65256
335.9447, 26.54272
336.4268, 27.06912
336.9090, 28.66051
337.3911, 30.36183
337.8732, 30.85429
338.3553, 29.51740
338.8374, 28.89171
339.3195, 29.75258
339.8017, 31.76955
340.2838, 33.10410
340.7659, 33.69513
341.2480, 33.69733
341.7301, 33.15482
342.2122, 32.07002
342.6944, 30.79706
343.1765, 29.12413
343.6586, 27.60699
344.1407, 27.80904
344.6228, 29.75934
345.1049, 31.57727
345.5871, 32.10274
346.0692, 31.58496
346.5513, 31.30919
347.0334, 31.32889
347.5155, 31.55577
347.9977, 32.21179
348.4798, 33.15318
348.9619, 33.50513
349.4440, 32.21611
349.9261, 30.17819
350.4082, 29.54388
350.8904, 30.34445
351.3725, 31.33249
351.8546, 31.41089
352.3367, 30.82368
352.8188, 30.09933
353.3009, 29.26636
353.7831, 28.50078
354.2652, 28.10735
354.7473, 28.02393
355.2294, 27.89713
355.7115, 27.52293
356.1936, 26.94998
356.6758, 26.18282
357.1579, 25.09714
357.6400, 24.15112
358.1221, 24.05034
358.6042, 24.33025
359.0863, 24.04070
359.5685, 22.16727
360.0506, 20.01077
360.5327, 18.28136
361.0148, 17.04694
361.4969, 16.29991
361.9790, 16.60321
362.4612, 17.16194
362.9433, 17.14128
363.4254, 15.45341
363.9075, 13.99585
364.3896, 13.58313
364.8717, 14.10883
365.3539, 14.25809
365.8360, 13.76776
366.3181, 12.80367
366.8002, 11.43448
367.2823, 8.344391
367.7644, 6.521225
368.2466, 7.131729
368.7287, 9.215958
369.2108, 10.07764
369.6929, 8.758591
370.1750, 7.221039
370.6571, 6.112747
371.1393, 5.541183
371.6214, 4.994858
372.1035, 4.316528
372.5856, 3.775009
373.0677, 3.870346
373.5498, 5.257721
374.0320, 5.820923
374.5141, 4.719101
374.9962, 2.127045
375.4783, 0.7452850
375.9604, 1.004745
376.4425, 1.561218
376.9247, 1.142914
377.4068, 0.4639130
377.8889, 1.236557
378.3710, 0.5878910
378.8531, 0.7225340
379.3352, 0.6802670
379.8174, 0.8288570
380.2995, 2.320953
380.7816, 2.890350
381.2637, 2.667343
381.7458, 2.521652
382.2279, 2.549500
382.7101, 2.420563
383.1922, 1.360748
383.6743, 0.3624270
384.1564, 1.423111
384.6385, 0.8200530
385.1206, 0.5240940
385.6028, 0.8552250
386.0849, 0.2207790
386.5670, 0.4738160
387.0491, 0.5058290
387.5312, 0.1331790
388.0133, 0.2155300
388.4955, 0.3886260
388.9776, 0.5859990
389.4597, 1.122345
389.9418, 1.846664
390.4239, 2.329758
390.9060, 2.071548
391.3882, 1.658951
391.8703, 1.574738
392.3524, 1.930603
392.8345, 2.304062
393.3166, 2.350052
393.7987, 2.341003
394.2809, 2.618698
394.7630, 4.274460
395.2451, 5.274567
395.7272, 4.490402
396.2093, 2.036377
396.6914, 0.1611330
397.1736, 0.2182010
397.6557, 0.1793060
398.1378, 0.3824920
398.6199, 1.454514
399.1020, 2.046371
399.5841, 1.782623
400.0663, 1.029999
400.5484, 0.6572880
401.0305, 0.7163090
401.5126, 1.098663
401.9947, 1.910156
402.4768, 3.328369
402.9590, 4.154297
403.4411, 4.194748
403.9232, 3.864807
404.4053, 3.651871
404.8874, 3.661636
405.3695, 3.362213
405.8517, 2.385727
406.3338, 1.067917
406.8159, 1.111832
407.2980, 2.807648
407.7801, 4.470535
408.2622, 4.640976
408.7444, 3.464737
409.2265, 2.973969
409.7086, 3.389328
410.1907, 4.441971
410.6728, 6.125137
411.1549, 8.279800
411.6371, 9.825470
412.1192, 9.681107
412.6013, 8.716461
413.0834, 8.672134
413.5655, 9.547531
414.0476, 10.79817
414.5298, 12.47894
415.0119, 14.13396
415.4940, 14.92371
415.9761, 13.95418
416.4582, 13.04416
416.9403, 14.13924
417.4225, 16.60754
417.9046, 18.63683
418.3867, 18.48872
418.8688, 18.07526
419.3509, 18.84705
419.8330, 21.22647
420.3152, 23.51843
420.7973, 24.64049
421.2794, 25.48579
421.7615, 27.10010
422.2436, 30.34169
422.7257, 33.74222
423.2079, 37.16931
423.6900, 40.55916
424.1721, 43.46153
424.6542, 45.40791
425.1363, 47.20583
425.6184, 49.27437
426.1006, 51.56065
426.5827, 54.19035
427.0648, 57.36879
427.5469, 60.77431
428.0290, 63.66180
428.5111, 65.51210
428.9933, 68.06206
429.4754, 72.33978
429.9575, 78.25757
430.4396, 81.60696
430.9217, 81.80313
431.4038, 81.25076
431.8860, 82.11902
432.3681, 84.43372
432.8502, 86.57941
433.3323, 88.40247
433.8144, 89.82797
434.2965, 90.61688
434.7787, 90.82974
435.2608, 90.95358
435.7429, 91.26605
436.2250, 91.70604
436.7071, 92.19092
437.1892, 92.69855
437.6714, 93.10287
438.1535, 93.20343
438.6356, 93.13831
439.1177, 93.08286
439.5998, 92.54967
440.0819, 92.57144
440.5641, 94.77570
441.0462, 98.53687
441.5283, 101.4350
442.0104, 101.4041
442.4925, 100.5135
442.9746, 100.0953
443.4568, 100.3959
443.9389, 100.8902
444.4210, 101.5399
444.9031, 102.3186
445.3852, 103.2775
445.8673, 104.6866
446.3495, 105.6426
446.8316, 105.4413
447.3137, 104.2085
447.7958, 104.0656
448.2779, 106.5212
448.7600, 108.6687
449.2422, 108.8865
449.7243, 105.8391
450.2064, 104.0157
450.6885, 103.6169
451.1706, 104.0518
451.6527, 104.6724
452.1349, 105.8708
452.6170, 106.2734
453.0991, 105.2434
453.5812, 103.0249
454.0633, 101.3552
454.5454, 100.3399
455.0276, 99.94275
455.5097, 100.8038
455.9918, 102.5073
456.4739, 102.7626
456.9560, 101.0035
457.4381, 98.31108
457.9203, 95.86792
458.4024, 93.66321
458.8845, 91.65163
459.3666, 89.43738
459.8488, 87.64432
460.3309, 87.44054
460.8130, 88.68611
461.2951, 89.49657
461.7772, 88.46475
462.2593, 86.47166
462.7415, 84.27460
463.2236, 81.71223
463.7057, 79.55032
464.1878, 78.45709
464.6699, 77.99146
465.1520, 77.25528
465.6342, 75.34720
466.1163, 73.67874
466.5984, 72.89212
467.0805, 73.19644
467.5626, 72.91061
468.0447, 71.92549
468.5269, 70.43832
469.0090, 68.49458
469.4911, 65.64926
469.9732, 63.22234
470.4553, 61.40038
470.9374, 59.95885
471.4196, 58.38321
471.9017, 56.65468
472.3838, 54.86609
472.8659, 52.93042
473.3480, 50.89325
473.8301, 49.47237
474.3123, 48.73657
474.7944, 48.13849
475.2765, 47.23299
475.7586, 46.03645
476.2407, 44.56563
476.7228, 42.75024
477.2050, 40.83604
477.6871, 39.28653
478.1692, 37.93906
478.6513, 36.31865
479.1334, 33.83139
479.6155, 31.16214
480.0977, 28.79927
480.5798, 26.77586
481.0619, 25.43420
481.5440, 25.66478
482.0261, 26.31616
482.5082, 26.33734
482.9904, 25.05157
483.4725, 23.76942
483.9546, 22.91788
484.4367, 22.32269
484.9188, 21.61053
485.4009, 20.67056
485.8831, 19.67389
486.3652, 18.76755
486.8473, 17.99429
487.3294, 16.68268
487.8115, 14.46704
488.2936, 12.14288
488.7758, 10.32935
489.2579, 9.252655
489.7400, 7.755188
490.2221, 5.435394
490.7042, 3.034637
491.1863, 2.471008
491.6685, 3.898712
492.1506, 4.480225
492.6327, 2.425690
493.1148, 1.269043
493.5969, 2.940125
494.0790, 2.610199
494.5612, 2.012848
495.0433, 2.565735
495.5254, 3.840881
496.0075, 5.082764
496.4896, 6.221222
496.9717, 7.087311
497.4539, 7.286102
497.9360, 7.129211
498.4181, 7.207855
498.9002, 8.041718
499.3823, 8.931976
499.8644, 9.552277
500.3466, 9.896881
500.8287, 10.04828
501.3108, 9.259552
501.7929, 8.840790
502.2750, 9.716827
502.7571, 13.36441
503.2393, 15.55341
503.7214, 15.54492
504.2035, 14.36536
504.6856, 13.25369
505.1677, 12.06879
505.6498, 11.26520
506.1320, 10.99945
506.6141, 11.17139
507.0962, 11.52576
507.5783, 12.28619
508.0604, 12.29883
508.5425, 10.11557
509.0247, 6.111725
509.5068, 4.512085
509.9889, 5.893707
510.4710, 7.425598
510.9531, 5.193420
511.4352, 0.3930360
511.9174, 3.367737
512.3995, 4.539764
512.8816, 4.837585
513.3637, 5.871368
513.8458, 7.565735
514.3279, 9.670135
514.8101, 12.28336
515.2922, 15.10132
515.7743, 18.02832
516.2564, 21.09219
516.7385, 23.85611
517.2206, 25.50635
517.7028, 27.12576
518.1849, 29.57785
518.6670, 33.90869
519.1491, 37.91342
519.6312, 40.79401
520.1133, 43.36795
520.5955, 47.64200
521.0776, 54.49997
521.5597, 61.30823
522.0418, 67.29343
522.5239, 72.50388
523.0060, 77.57065
523.4882, 82.58337
523.9703, 87.22104
524.4524, 90.81265
524.9345, 93.52341
525.4166, 97.39185
525.8987, 102.7982
526.3809, 108.9288
526.8630, 115.3559
527.3451, 121.8270
527.8272, 127.3502
528.3093, 130.3410
528.7914, 133.3315
529.2736, 139.1051
529.7557, 147.3169
530.2378, 156.1047
530.7199, 165.3067
531.2020, 174.3144
531.6841, 182.5690
532.1663, 190.0504
532.6484, 197.1496
533.1305, 203.9807
533.6126, 210.6025
534.0947, 217.1706
534.5768, 222.1974
535.0590, 229.1147
535.5411, 238.5629
536.0232, 249.9703
536.5053, 261.6956
536.9874, 273.7820
537.4695, 285.5787
537.9517, 296.0939
538.4338, 305.6826
538.9159, 318.4045
539.3980, 334.5492
539.8801, 351.6993
540.3622, 367.2834
540.8444, 381.8067
541.3265, 398.0354
541.8086, 416.7265
542.2907, 436.3242
542.7728, 454.4414
543.2549, 472.2844
543.7371, 492.0419
544.2192, 514.5894
544.7013, 539.4544
545.1834, 566.7135
545.6655, 596.4216
546.1476, 627.7459
546.6298, 660.9050
547.1119, 695.1979
547.5940, 729.6906
548.0761, 763.4689
548.5582, 801.1949
549.0403, 844.5397
549.5225, 891.5759
550.0046, 940.1934
550.4867, 989.6956
550.9688, 1041.794
551.4509, 1096.619
551.9330, 1154.641
552.4152, 1215.170
552.8973, 1278.090
553.3794, 1345.843
553.8615, 1420.339
554.3436, 1500.120
554.8257, 1580.336
555.3079, 1660.405
555.7900, 1743.142
556.2721, 1829.961
556.7542, 1919.938
557.2363, 2011.294
557.7184, 2103.917
558.2006, 2197.403
558.6827, 2292.251
559.1648, 2387.342
559.6469, 2482.970
560.1290, 2579.976
560.6111, 2675.289
561.0933, 2769.156
561.5754, 2860.432
562.0575, 2944.523
562.5396, 3019.416
563.0217, 3088.267
563.5038, 3152.934
563.9860, 3213.769
564.4681, 3265.916
564.9502, 3309.274
565.4323, 3343.981
565.9144, 3370.029
566.3965, 3387.815
566.8787, 3395.236
567.3608, 3391.725
567.8429, 3378.150
568.3250, 3355.639
568.8071, 3324.532
569.2892, 3285.405
569.7714, 3236.965
570.2535, 3182.595
570.7356, 3126.312
571.2177, 3067.582
571.6998, 3007.935
572.1819, 2948.173
572.6641, 2886.135
573.1462, 2819.390
573.6283, 2747.190
574.1104, 2675.906
574.5925, 2608.349
575.0746, 2541.216
575.5568, 2470.919
576.0389, 2395.107
576.5210, 2322.301
577.0031, 2251.880
577.4852, 2184.238
577.9673, 2120.217
578.4495, 2060.274
578.9316, 2000.117
579.4137, 1937.751
579.8958, 1875.773
580.3779, 1819.309
580.8600, 1768.555
581.3422, 1718.109
581.8243, 1663.368
582.3064, 1607.103
582.7885, 1556.634
583.2706, 1511.730
583.7527, 1469.620
584.2349, 1429.644
584.7170, 1390.091
585.1991, 1348.639
585.6812, 1303.063
586.1633, 1260.082
586.6454, 1224.124
587.1276, 1191.586
587.6097, 1158.553
588.0918, 1121.995
588.5739, 1087.454
589.0560, 1056.017
589.5381, 1027.082
590.0203, 998.7585
590.5024, 970.6360
590.9845, 944.1478
591.4666, 920.8401
591.9487, 900.0922
592.4308, 876.4501
592.9130, 849.5198
593.3951, 822.8485
593.8772, 799.2568
594.3593, 778.2717
594.8414, 759.0384
595.3235, 741.7558
595.8057, 725.3223
596.2878, 709.1420
596.7699, 693.0214
597.2520, 676.9355
597.7341, 660.8980
598.2162, 644.6005
598.6984, 627.3512
599.1805, 609.9036
599.6626, 593.1045
600.1447, 577.6752
600.6268, 562.3405
601.1089, 546.9731
601.5911, 531.5186
602.0732, 515.7404
602.5553, 499.2671
603.0374, 483.4227
603.5195, 469.0370
604.0016, 456.1886
604.4838, 444.4756
604.9659, 434.2823
605.4480, 423.9362
605.9301, 411.6194
606.4122, 397.7425
606.8943, 383.4732
607.3765, 368.9308
607.8586, 354.3972
608.3407, 340.0087
608.8228, 325.9992
609.3049, 313.1588
609.7870, 302.7405
610.2692, 292.3925
610.7513, 280.6295
611.2334, 267.9351
611.7155, 256.1343
612.1976, 245.8673
612.6797, 236.1124
613.1619, 226.6674
613.6440, 217.4874
614.1261, 208.3103
614.6082, 198.8990
615.0903, 189.5731
615.5724, 180.2333
616.0546, 170.8972
616.5367, 162.7176
617.0188, 155.9988
617.5009, 149.8597
617.9830, 143.4200
618.4651, 136.7181
618.9473, 129.6194
619.4294, 121.5525
619.9115, 114.0645
620.3936, 109.1688
620.8757, 105.8577
621.3578, 102.0063
621.8400, 96.52158
622.3221, 90.53488
622.8042, 83.96225
623.2863, 77.20456
623.7684, 72.36310
624.2505, 70.41669
624.7327, 69.20016
625.2148, 68.45667
625.6969, 68.39688
626.1790, 66.15527
626.6611, 61.23004
627.1432, 55.53665
627.6254, 50.07123
628.1075, 45.02325
628.5896, 42.27179
629.0717, 42.27328
629.5538, 42.83801
630.0359, 41.22784
630.5181, 38.40414
631.0002, 36.51480
631.4823, 36.89444
631.9644, 37.49747
632.4465, 36.45264
632.9286, 34.41727
633.4108, 32.90427
633.8929, 32.72208
634.3750, 32.73132
634.8571, 32.60675
635.3392, 32.38947
635.8214, 32.35840
636.3035, 32.54630
636.7856, 32.81754
637.2677, 33.32953
637.7498, 34.05511
638.2319, 33.02408
638.7141, 29.90622
639.1962, 26.87466
639.6783, 26.22299
640.1604, 27.16852
640.6425, 26.57208
641.1246, 23.76370
641.6068, 21.39011
642.0889, 23.06210
642.5710, 26.38501
643.0531, 27.88596
643.5352, 25.40164
644.0173, 22.94601
644.4995, 22.34671
644.9816, 22.80032
645.4637, 22.85031
645.9458, 21.90887
646.4279, 21.02515
646.9100, 20.38571
647.3922, 19.91934
647.8743, 19.41315
648.3564, 18.79330
648.8385, 18.31290
649.3206, 18.18555
649.8027, 18.27423
650.2849, 18.02274
650.7670, 17.43793
651.2491, 16.63867
651.7312, 15.75867
652.2133, 14.74075
652.6954, 13.21252
653.1776, 11.06296
653.6597, 9.608063
654.1418, 10.71518
654.6239, 12.21378
655.1060, 11.91318
655.5881, 7.197052
656.0703, 4.726166
656.5524, 7.737671
657.0345, 12.25659
657.5166, 13.48581
657.9987, 10.03503
658.4808, 7.112274
658.9630, 5.528412
659.4451, 4.771362
659.9272, 3.348175
660.4093, 1.326019
660.8914, 0.6698000
661.3735, 3.225067
661.8557, 6.723724
662.3378, 7.388092
662.8199, 5.660187
663.3020, 3.449707
663.7841, 0.8703920
664.2662, 1.036133
664.7484, 0.9777530
665.2305, 1.102051
665.7126, 2.184845
666.1947, 0.5365910
666.6768, 1.496460
667.1589, 2.674805
667.6411, 2.796036
668.1232, 2.876923
668.6053, 2.923233
669.0874, 2.965988
669.5695, 2.958206
670.0516, 2.919647
670.5338, 3.329712
671.0159, 4.372375
671.4980, 5.410492
671.9801, 5.525940
672.4622, 5.016693
672.9443, 4.464386
673.4265, 3.832764
673.9086, 3.587784
674.3907, 4.281937
674.8728, 5.563019
675.3549, 6.740814
675.8370, 8.020111
676.3192, 8.744095
676.8013, 8.440887
677.2834, 7.398956
677.7655, 6.579880
678.2476, 5.984085
678.7297, 5.560333
679.2119, 5.127716
679.6940, 4.829330
680.1761, 5.928009
680.6582, 8.479797
681.1403, 10.55028
681.6224, 10.50439
682.1046, 9.202942
682.5867, 7.959793
683.0688, 6.863770
683.5509, 5.930374
684.0330, 5.037964
684.5151, 4.403336
684.9973, 4.321274
685.4794, 5.181168
685.9615, 5.573624
686.4436, 4.952682
686.9257, 3.984894
687.4078, 3.064789
687.8900, 1.849442
688.3721, 1.840240
688.8542, 3.564438
689.3363, 5.731308
689.8184, 6.299271
690.3005, 5.407974
690.7827, 4.204605
691.2648, 2.828873
691.7469, 1.570099
692.2290, 0.9207000
692.7111, 0.6916500
693.1932, 0.4411620
693.6754, 0.1792910
694.1575, 0.3883970
694.6396, 1.683411
695.1217, 3.455856
695.6038, 4.803848
696.0859, 5.514511
696.5681, 5.831207
697.0502, 5.514267
697.5323, 4.719803
698.0144, 5.184082
698.4965, 7.190002
698.9786, 9.204468
699.4608, 10.23663
699.9429, 10.55597
700.4250, 11.15077
700.9071, 12.01924
701.3892, 13.16660
701.8713, 14.77348
702.3535, 16.58093
702.8356, 18.36003
703.3177, 20.10301
703.7998, 21.64668
704.2819, 22.60562
704.7640, 23.54233
705.2462, 24.92545
705.7283, 26.99625
706.2104, 29.00389
706.6925, 30.86414
707.1746, 32.75238
707.6567, 35.09030
708.1389, 37.91414
708.6210, 39.65070
709.1031, 39.77550
709.5852, 39.71106
710.0673, 41.81630
710.5494, 45.24934
711.0316, 47.97289
711.5137, 49.11238
711.9958, 49.61539
712.4779, 49.93665
712.9600, 50.09833
713.4421, 50.13702
713.9243, 49.59044
714.4064, 49.48375
714.8885, 50.36670
715.3706, 51.81659
715.8527, 52.56683
716.3348, 52.65215
716.8170, 51.86415
717.2991, 49.80043
717.7812, 46.97218
718.2633, 45.03111
718.7454, 43.91783
719.2275, 43.36697
719.7097, 43.64424
720.1918, 44.08932
720.6739, 44.05083
721.1560, 43.51657
721.6381, 42.55141
722.1202, 40.42725
722.6024, 38.51828
723.0845, 37.79710
723.5666, 38.50793
724.0487, 38.54762
724.5308, 37.55179
725.0129, 36.39574
725.4951, 35.67924
725.9772, 35.41795
726.4593, 34.85802
726.9414, 33.95468
727.4235, 33.07182
727.9056, 32.54482
728.3878, 32.26500
728.8699, 32.12080
729.3520, 32.14549
729.8341, 31.92203
730.3162, 30.54388
730.7983, 29.14525
731.2805, 28.85728
731.7626, 30.73950
732.2447, 32.10732
732.7268, 32.49129
733.2089, 32.44972
733.6910, 32.62061
734.1732, 33.14371
734.6553, 33.47432
735.1374, 33.65709
735.6195, 33.45964
736.1016, 32.12195
736.5837, 30.03175
737.0659, 28.61833
737.5480, 28.53015
738.0301, 28.72896
738.5122, 28.56348
738.9943, 27.99052
739.4764, 27.01491
739.9586, 24.91461
740.4407, 23.36098
740.9228, 23.04967
741.4049, 23.49942
741.8870, 23.70303
742.3691, 23.54007
742.8513, 23.39619
743.3334, 23.36476
743.8155, 23.36261
744.2976, 23.24008
744.7797, 22.99696
745.2618, 22.42751
745.7440, 21.05191
746.2261, 19.53223
746.7082, 18.56027
747.1903, 17.99797
747.6724, 17.51628
748.1545, 17.25233
748.6367, 16.92627
749.1188, 16.02707
749.6009, 14.69678
750.0830, 14.91975
750.5651, 17.64319
751.0472, 19.86734
751.5294, 20.08211
752.0115, 18.63219
752.4936, 17.78831
752.9757, 17.56145
753.4578, 17.28018
753.9399, 16.14572
754.4221, 14.81248
754.9042, 14.14664
755.3863, 14.15387
755.8684, 14.58975
756.3505, 16.27843
756.8326, 17.67209
757.3148, 17.45018
757.7969, 15.02708
758.2790, 14.05226
758.7611, 15.40854
759.2432, 16.82236
759.7253, 16.68854
760.2075, 14.99763
760.6896, 13.70085
761.1717, 12.77168
761.6538, 12.48946
762.1359, 13.79906
762.6180, 15.64122
763.1002, 16.14577
763.5823, 14.96336
764.0644, 13.73987
764.5465, 13.27924
765.0286, 13.17166
765.5107, 13.11519
765.9929, 13.15427
766.4750, 13.03120
766.9571, 12.63461
767.4392, 12.22032
767.9213, 11.97015
768.4034, 11.88148
768.8856, 12.22707
769.3677, 13.12663
769.8498, 13.85939
770.3319, 13.22037
770.8140, 11.99205
771.2961, 11.67540
771.7783, 12.85864
772.2604, 14.00465
772.7425, 14.14005
773.2246, 13.91203
773.7067, 14.00598
774.1888, 15.15033
774.6710, 15.48981
775.1531, 14.53215
775.6352, 13.34956
776.1173, 13.36102
776.5994, 14.56894
777.0815, 15.66118
777.5637, 16.42238
778.0458, 17.13423
778.5279, 18.65082
779.0100, 20.25172
779.4921, 20.50073
779.9742, 18.27090
780.4564, 16.08014
780.9385, 14.74165
781.4206, 14.19766
781.9027, 14.45107
782.3848, 16.04286
782.8669, 17.36430
783.3491, 18.37538
783.8312, 18.98488
784.3133, 18.92079
784.7954, 18.21330
785.2775, 17.39871
785.7596, 16.52393
786.2418, 15.81724
786.7239, 15.81219
787.2060, 16.13773
787.6881, 16.06970
788.1702, 14.41260
788.6523, 13.59839
789.1345, 15.77489
789.6166, 18.98245
790.0987, 19.65407
790.5808, 15.58904
791.0629, 13.91974
791.5450, 16.45193
792.0272, 20.73268
792.5093, 21.83412
792.9914, 20.17653
793.4735, 18.89264
793.9556, 18.94090
794.4377, 19.55424
794.9199, 20.36395
795.4020, 21.06334
795.8841, 21.05731
796.3662, 18.84561
796.8483, 17.43539
797.3304, 18.35364
797.8126, 20.32112
798.2947, 21.02454
798.7768, 19.78778
799.2589, 19.51344
799.7410, 21.00026
800.2231, 23.24310
800.7053, 24.37959
801.1874, 24.62596
801.6695, 24.88828
802.1516, 25.55214
802.6337, 26.21629
803.1158, 26.17043
803.5980, 25.95728
804.0801, 26.53038
804.5622, 29.29813
805.0443, 31.47676
805.5264, 32.60117
806.0085, 32.94026
806.4907, 32.94728
806.9728, 32.61200
807.4549, 31.79176
807.9370, 30.21265
808.4191, 28.67291
808.9012, 28.62204
809.3834, 29.63231
809.8655, 30.59332
810.3476, 31.23552
810.8297, 31.53703
811.3118, 31.58624
811.7939, 31.25496
812.2761, 30.30457
812.7582, 28.17415
813.2403, 26.18335
813.7224, 24.26912
814.2045, 22.74072
814.6866, 22.46307
815.1688, 23.40428
815.6509, 23.73698
816.1330, 22.87483
816.6151, 21.58884
817.0972, 20.93350
817.5793, 20.55424
818.0615, 19.74928
818.5436, 17.88332
819.0257, 16.11195
819.5078, 14.31772
819.9899, 13.08148
820.4720, 13.48918
820.9542, 16.87485
821.4363, 18.09352
821.9184, 15.86661
822.4005, 12.39136
822.8826, 11.34584
823.3647, 12.17206
823.8469, 12.39728
824.3290, 11.30638
824.8111, 10.01083
825.2932, 9.573517
825.7753, 9.522354
826.2574, 9.186584
826.7396, 7.800629
827.2217, 6.957901
827.7038, 6.992050
828.1859, 7.459137
828.6681, 8.020584
829.1502, 8.801239
829.6323, 8.505203
830.1144, 6.620789
830.5966, 4.714233
831.0787, 5.162888
831.5608, 6.955765
832.0429, 8.042236
832.5250, 7.709244
833.0071, 7.161285
833.4893, 7.089828
833.9714, 7.099335
834.4535, 6.746719
834.9356, 5.332687
835.4177, 4.832138
835.8998, 5.634689
836.3820, 6.770981
836.8641, 7.361176
837.3462, 7.414215
837.8283, 6.804092
838.3104, 5.409821
838.7925, 4.126053
839.2747, 3.511398
839.7568, 3.574051
840.2389, 4.566788
840.7210, 7.035583
841.2031, 8.545395
841.6852, 8.033783
842.1674, 6.917587
842.6495, 5.959625
843.1316, 5.134659
843.6137, 4.533096
844.0958, 4.181946
844.5779, 3.918472
845.0601, 3.416962
845.5422, 2.896667
846.0243, 3.168121
846.5064, 4.331451
846.9885, 5.056320
847.4706, 4.075989
847.9528, 2.887619
848.4349, 2.530701
848.9170, 3.180603
849.3991, 3.520645
849.8812, 3.549088
850.3633, 3.303970
850.8455, 2.604492
851.3276, 1.606018
851.8097, 1.083008
852.2918, 1.050278
852.7739, 1.665695
853.2560, 3.865311
853.7382, 5.879791
854.2203, 6.057022
854.7024, 4.523788
855.1845, 3.438843
855.6666, 3.222092
856.1487, 3.384872
856.6309, 3.921402
857.1130, 4.738846
857.5951, 5.311996
858.0772, 5.586426
858.5593, 5.608856
859.0414, 5.342010
859.5236, 4.901611
860.0057, 4.268799
860.4878, 3.608459
860.9699, 3.339752
861.4520, 4.027313
861.9341, 4.584183
862.4163, 4.739014
862.8984, 4.466446
863.3805, 3.418564
863.8626, 1.140198
864.3447, 9.2178002E-02
864.8268, 0.6162410
865.3090, 2.150024
865.7911, 2.229233
866.2732, 1.365921
866.7553, 1.107239
867.2374, 2.603531
867.7195, 3.974136
868.2017, 4.054642
868.6838, 3.349136
869.1659, 2.595062
869.6480, 1.474045
870.1301, 1.134720
870.6122, 1.950287
871.0944, 3.151764
871.5765, 3.751083
872.0586, 3.789063
872.5407, 3.268448
873.0228, 1.971954
873.5049, 1.202499
873.9871, 2.932159
874.4692, 5.396149
874.9513, 6.552322
875.4334, 5.418213
875.9155, 4.397247
876.3976, 3.733398
876.8798, 3.216965
877.3619, 2.617340
877.8440, 1.921799
878.3261, 1.865509
878.8082, 2.550980
879.2903, 2.894333
879.7725, 1.225922
880.2546, 0.9228360
880.7367, 1.309769
881.2188, 0.3011930
881.7009, 1.306641
882.1830, 0.1909940
882.6652, 1.166016
883.1473, 1.917419
883.6294, 2.080673
884.1115, 1.967224
884.5936, 1.531693
885.0757, 1.138504
885.5579, 0.9815670
886.0400, 1.010880
886.5221, 1.285690
887.0042, 1.705414
887.4863, 1.857040
887.9684, 1.222443
888.4506, 0.6101380
888.9327, 0.5218960
889.4148, 0.7386630
889.8969, 0.4002990
890.3790, 0.8211820
890.8611, 1.333099
891.3433, 0.4009250
891.8254, 0.9759220
892.3075, 0.6403350
892.7896, 0.8482210
893.2717, 1.790329
893.7538, 1.304199
894.2360, 0.5751500
894.7181, 3.3020001E-02
895.2002, 0.3724820
895.6823, 0.1385960
896.1644, 1.183105
896.6465, 1.863297
897.1287, 1.665176
897.6108, 1.069473
898.0929, 0.5611110
898.5750, 0.1533050
899.0571, 0.1197810
899.5392, 0.2719420
900.0214, 0.1572420
900.5035, 0.8792570
900.9856, 1.872406
901.4677, 1.811356
901.9498, 3.4026999E-02
902.4319, 0.7774510
902.9141, 0.1772310
903.3962, 0.6088560
903.8783, 0.7748570
904.3604, 0.4187470
904.8425, 0.1703640
905.3246, 4.1182999E-02
905.8068, 0.3069920
906.2889, 1.723816
906.7710, 3.152634
907.2531, 3.673676
907.7352, 3.324585
908.2173, 2.778870
908.6995, 2.067230
909.1816, 1.245178
909.6637, 0.1625520
910.1458, 0.9050750
910.6279, 0.8454280
911.1100, 0.2052610
911.5922, 0.8813020
912.0743, 0.2469940
912.5564, 0.3528440
913.0385, 0.9963990
913.5206, 3.120575
914.0027, 4.023804
914.4849, 1.398300
914.9670, 0.1249080
915.4491, 1.235947
915.9312, 3.051010
916.4133, 3.330566
916.8954, 2.159683
917.3776, 1.016342
917.8597, 7.7799999E-04
918.3418, 0.3771820
918.8239, 1.015518
919.3060, 2.947525
919.7881, 3.964035
920.2703, 3.599991
920.7524, 3.539200
921.2345, 4.171387
921.7166, 4.951294
922.1987, 5.565430
922.6808, 6.050934
923.1630, 6.875580
923.6451, 8.036591
924.1272, 9.129196
924.6093, 10.05855
925.0914, 10.67906
925.5735, 10.48904
926.0557, 9.743805
926.5378, 9.617538
927.0199, 11.26613
927.5020, 12.50566
927.9841, 12.70721
928.4662, 12.31282
928.9484, 12.24800
929.4305, 12.56496
929.9126, 13.92462
930.3947, 16.79495
930.8768, 19.89435
931.3589, 21.93323
931.8411, 23.37195
932.3232, 24.77261
932.8053, 25.91748
933.2874, 27.45541
933.7695, 29.47064
934.2516, 31.87256
934.7338, 34.62437
935.2159, 37.74170
935.6980, 40.66577
936.1801, 43.32417
936.6622, 46.19864
937.1443, 49.30440
937.6265, 52.98065
938.1086, 57.73254
938.5907, 63.70724
939.0728, 70.09183
939.5549, 76.47450
940.0370, 83.36244
940.5192, 90.88300
941.0013, 99.04138
941.4834, 107.4986
941.9655, 116.4674
942.4476, 127.2884
942.9297, 140.8533
943.4119, 156.2728
943.8940, 172.7773
944.3761, 190.5522
944.8582, 210.0272
945.3403, 229.8837
945.8224, 253.8340
946.3046, 282.6740
946.7867, 314.8620
947.2688, 347.9692
947.7509, 382.3273
948.2330, 418.5883
948.7151, 456.6183
949.1973, 498.2173
949.6794, 546.3707
950.1615, 597.7698
950.6436, 649.4804
951.1257, 700.2434
951.6078, 753.8166
952.0900, 811.9276
952.5721, 869.2637
953.0542, 923.0588
953.5363, 973.6530
954.0184, 1024.070
954.5005, 1073.019
954.9827, 1115.206
955.4648, 1149.027
955.9469, 1173.692
956.4290, 1188.695
956.9111, 1193.823
957.3932, 1189.531
957.8754, 1176.209
958.3575, 1153.426
958.8396, 1120.931
959.3217, 1079.548
959.8038, 1029.022
960.2859, 971.2458
960.7681, 911.5601
961.2502, 850.6067
961.7323, 789.0417
962.2144, 726.0834
962.6965, 663.5570
963.1786, 602.5900
963.6608, 543.4070
964.1429, 487.0120
964.6250, 433.3709
965.1071, 384.8893
965.5892, 344.5680
966.0714, 310.4167
966.5535, 276.7983
967.0356, 244.3516
967.5177, 215.2977
967.9998, 191.4268
968.4819, 170.4165
968.9641, 151.4791
969.4462, 134.4614
969.9283, 119.0193
970.4104, 105.0757
970.8925, 93.61694
971.3746, 85.06473
971.8568, 77.95502
972.3389, 70.16917
972.8210, 62.55945
973.3031, 56.61108
973.7852, 53.30128
974.2673, 49.76570
974.7495, 45.32085
975.2316, 40.57079
975.7137, 35.70757
976.1958, 30.70732
976.6779, 26.46344
977.1600, 22.91689
977.6422, 20.25839
978.1243, 19.13338
978.6064, 18.45682
979.0885, 17.01036
979.5706, 15.06580
980.0527, 14.09137
980.5349, 15.48297
981.0170, 15.81282
981.4991, 14.21280
981.9812, 11.46829
982.4633, 8.672684
982.9454, 6.020599
983.4276, 4.462830
983.9097, 4.508316
984.3918, 4.689529
984.8739, 4.057114
985.3560, 3.035324
985.8381, 2.034821
986.3203, 1.141388
986.8024, 0.1007690
987.2845, 1.932205
987.7666, 3.294998
988.2487, 3.039749
988.7308, 1.907928
989.2130, 1.740189
989.6951, 2.327744
990.1772, 2.511261
990.6593, 1.202393
991.1414, 1.5976001E-02
991.6235, 0.6541440
992.1057, 0.7521210
992.5878, 0.1898650
993.0699, 1.135544
993.5520, 2.056290
994.0341, 2.380630
994.5162, 2.109650
994.9984, 0.5252690
995.4805, 1.330658
995.9626, 1.857834
996.4447, 0.2893520
996.9268, 0.5803380
997.4089, 0.1440430
997.8911, 0.9802700
998.3732, 1.032455
998.8553, 0.4439240
999.3374, 0.3905330
999.8195, 0.8156590
1000.302, 1.137970
1000.784, 1.078430
1001.266, 0.7494810
1001.748, 5.4469998E-03
1002.230, 0.9296570
1002.712, 1.498535
1003.194, 1.769852
1003.676, 1.355682
1004.159, 5.3009000E-02
1004.641, 1.537628
1005.123, 1.460068
1005.605, 0.5965420
1006.087, 1.017136
1006.569, 3.216278
1007.051, 4.979080
1007.533, 4.991531
1008.016, 4.504013
1008.498, 4.210281
1008.980, 4.103317
1009.462, 3.955414
1009.944, 3.749390
1010.426, 3.811050
1010.908, 4.562485
1011.390, 5.352295
1011.872, 4.946808
1012.355, 4.077744
1012.837, 4.212692
1013.319, 7.500671
1013.801, 9.153442
1014.283, 7.824982
1014.765, 6.206207
1015.247, 8.064056
1015.729, 12.50459
1016.211, 14.03214
1016.694, 12.23213
1017.176, 10.20461
1017.658, 9.523575
1018.140, 9.866837
1018.622, 11.69278
1019.104, 14.64447
1019.586, 15.67570
1020.068, 14.16362
1020.551, 13.41293
1021.033, 14.78261
1021.515, 16.86578
1021.997, 17.13861
1022.479, 16.45917
1022.961, 16.55380
1023.443, 18.58551
1023.925, 19.93909
1024.407, 19.50600
1024.890, 18.64680
1025.372, 18.17509
1025.854, 18.09308
1026.336, 18.85529
1026.818, 20.44098
1027.300, 21.77063
1027.782, 21.80441
1028.264, 21.57999
1028.746, 21.81374
1029.229, 22.49139
1029.711, 23.48917
1030.193, 25.10823
1030.675, 26.16327
1031.157, 26.24750
1031.639, 26.16931
1032.121, 27.46346
1032.603, 29.44243
1033.086, 30.39265
1033.568, 29.91731
1034.050, 29.36627
1034.532, 29.10199
1035.014, 29.16666
1035.496, 29.70943
1035.978, 30.64319
1036.460, 31.04414
1036.943, 30.91046
1037.425, 30.60588
1037.907, 29.79715
1038.389, 29.53484
1038.871, 31.26332
1039.353, 34.13861
1039.835, 36.71953
1040.317, 39.71703
1040.799, 40.27876
1041.281, 37.36092
1041.764, 34.27330
1042.246, 35.01584
1042.728, 37.99130
1043.210, 38.75165
1043.692, 37.22528
1044.174, 35.87447
1044.656, 35.41826
1045.138, 35.88290
1045.621, 37.90881
1046.103, 40.77464
1046.585, 42.29501
1047.067, 42.38477
1047.549, 42.03394
1048.031, 41.31021
1048.513, 41.11215
1048.995, 42.60880
1049.478, 44.84628
1049.960, 46.84755
1050.442, 48.46182
1050.924, 49.70007
1051.406, 50.67688
1051.888, 51.12549
1052.370, 50.65103
1052.852, 49.77957
1053.334, 49.49239
1053.817, 49.73456
1054.299, 50.46768
1054.781, 52.54153
1055.263, 54.00346
1055.745, 54.01234
1056.227, 53.22017
1056.709, 51.90155
1057.191, 50.02620
1057.673, 50.29982
1058.156, 53.03992
1058.638, 55.50458
1059.120, 54.60870
1059.602, 53.20042
1060.084, 54.29916
1060.566, 57.58197
1061.048, 58.21233
1061.530, 54.97180
1062.013, 52.60014
1062.495, 52.57959
1062.977, 53.23459
1063.459, 51.41991
1063.941, 48.35583
1064.423, 46.45193
1064.905, 46.52849
1065.387, 46.72462
1065.870, 46.05820
1066.352, 45.85550
1066.834, 47.38799
1067.316, 50.12939
1067.798, 49.56952
1068.280, 46.06229
1068.762, 42.80847
1069.244, 41.24557
1069.726, 40.69279
1070.208, 41.75687
1070.691, 43.15303
1071.173, 42.61443
1071.655, 39.17477
1072.137, 37.40808
1072.619, 37.71349
1073.101, 38.65843
1073.583, 39.31712
1074.065, 39.57603
1074.548, 39.35548
1075.030, 38.62410
1075.512, 37.15614
1075.994, 33.65253
1076.476, 31.42255
1076.958, 31.64642
1077.440, 32.84982
1077.922, 32.15947
1078.405, 30.13466
1078.887, 28.56619
1079.369, 27.82889
1079.851, 27.37880
1080.333, 26.92894
1080.815, 26.80090
1081.297, 27.08028
1081.779, 27.60718
1082.261, 28.26949
1082.744, 29.07085
1083.226, 29.16748
1083.708, 27.67702
1084.190, 26.11079
1084.672, 25.94250
1085.154, 26.58122
1085.636, 27.24974
1086.118, 28.31013
1086.601, 28.15591
1087.083, 26.46849
1087.565, 24.62541
1088.047, 23.32625
1088.529, 22.79134
1089.011, 24.10014
1089.493, 26.66037
1089.975, 28.10419
1090.458, 25.70097
1090.940, 24.80969
1091.422, 27.41035
1091.904, 30.59882
1092.386, 29.17528
1092.868, 24.42348
1093.350, 22.04330
1093.832, 22.78796
1094.314, 24.38118
1094.797, 26.23853
1095.279, 27.73999
1095.761, 28.55374
1096.243, 28.71461
1096.725, 28.17265
1097.207, 26.90335
1097.689, 25.68349
1098.171, 24.57674
1098.653, 24.06158
1099.136, 25.25273
1099.618, 26.97467
1100.100, 27.84230
1100.582, 27.45876
1101.064, 27.12302
1101.546, 26.83916
1102.028, 26.69966
1102.510, 26.76122
1102.993, 26.94476
1103.475, 27.41183
1103.957, 27.85808
1104.439, 27.58499
1104.921, 25.06804
1105.403, 23.79413
1105.885, 24.52660
1106.367, 25.83081
1106.849, 26.28000
1107.332, 26.08900
1107.814, 26.30598
1108.296, 26.88789
1108.778, 27.03778
1109.260, 25.64630
1109.742, 24.47206
1110.224, 24.51422
1110.706, 25.11420
1111.188, 25.02060
1111.671, 24.26178
1112.153, 23.72218
1112.635, 23.54839
1113.117, 23.25761
1113.599, 22.15018
1114.081, 21.01212
1114.563, 20.43396
1115.045, 20.43269
1115.528, 21.03780
1116.010, 22.43810
1116.492, 23.26376
1116.974, 23.02502
1117.456, 22.26909
1117.938, 21.14935
1118.420, 20.18452
1118.902, 20.33891
1119.385, 22.40384
1119.867, 22.59955
1120.349, 20.24695
1120.831, 17.46605
1121.313, 14.87015
1121.795, 12.98929
1122.277, 13.88196
1122.759, 16.28090
1123.241, 17.10704
1123.724, 13.57675
1124.206, 11.36449
1124.688, 11.97319
1125.170, 13.08809
1125.652, 12.61674
1126.134, 10.99768
1126.616, 10.76404
1127.098, 11.65303
1127.580, 11.88081
1128.063, 9.847900
1128.545, 7.712387
1129.027, 6.410583
1129.509, 5.490280
1129.991, 4.216751
1130.473, 2.620743
1130.955, 2.171494
1131.437, 3.011841
1131.920, 4.062668
1132.402, 4.916763
1132.884, 5.326859
1133.366, 4.890884
1133.848, 3.856979
1134.330, 3.080048
1134.812, 2.580383
1135.294, 2.196259
1135.776, 1.929779
1136.259, 1.621750
1136.741, 1.208755
1137.223, 0.5976260
1137.705, 0.7011870
1138.187, 2.755844
1138.669, 2.862793
1139.151, 0.3517150
1139.633, 1.848038
1140.115, 2.803299
1140.598, 2.820770
1141.080, 1.822632
1141.562, 0.4096070
1142.044, 0.4638210
1142.526, 0.4153900
1143.008, 0.4160610
1143.490, 0.6578980
1143.972, 0.6836550
1144.455, 4.2465001E-02
1144.937, 0.8340000
1145.419, 0.8098300
1145.901, 0.1770320
1146.383, 0.3166050
1146.865, 0.3058930
1147.347, 0.2884520
1147.829, 0.4024510
1148.312, 0.4549870
1148.794, 0.2028350
1149.276, 0.2527470
1149.758, 0.3529970
1150.240, 0.1590580
1150.722, 1.4648000E-02
1151.204, 2.2537000E-02
1151.686, 0.2115020
1152.168, 0.8543850
1152.651, 1.448685
1153.133, 1.223679
1153.615, 0.3011020
1154.097, 6.2546000E-02
1154.579, 0.5689090
1155.061, 0.9763790
1155.543, 0.7189180
1156.025, 0.2306520
1156.507, 0.4179230
1156.990, 1.067978
1157.472, 1.653412
1157.954, 2.180389
1158.436, 0.8882750
1158.918, 2.671494
1159.400, 5.490234
1159.882, 4.166367
1160.364, 1.979034
1160.847, 1.576050
1161.329, 2.603836
1161.811, 2.806229
1162.293, 2.123154
1162.775, 1.236938
1163.257, 0.2306060
1163.739, 0.6071170
1164.221, 0.8509060
1164.703, 0.8837430
1165.186, 1.165787
1165.668, 1.746948
1166.150, 1.958939
1166.632, 1.864548
1167.114, 0.8705440
1167.596, 1.721939
1168.078, 4.311920
1168.560, 4.663071
1169.042, 3.801666
1169.525, 3.053894
1170.007, 2.675674
1170.489, 2.373657
1170.971, 2.012100
1171.453, 1.605637
1171.935, 1.289581
1172.417, 1.162857
1172.899, 1.523422
1173.382, 2.140778
1173.864, 2.547150
1174.346, 1.970810
1174.828, 2.877274
1175.310, 6.173706
1175.792, 8.539032
1176.274, 6.563461
1176.756, 2.647919
1177.239, 1.239380
1177.721, 1.754700
1178.203, 2.695633
1178.685, 3.733170
1179.167, 4.772873
1179.649, 6.087524
1180.131, 6.920425
1180.613, 5.961685
1181.095, 4.247513
1181.578, 4.387390
1182.060, 6.023651
1182.542, 7.355911
1183.024, 7.738403
1183.506, 7.649734
1183.988, 6.963028
1184.470, 6.213074
1184.952, 5.908081
1185.434, 6.056946
1185.917, 7.050583
1186.399, 8.730042
1186.881, 9.653824
1187.363, 8.431641
1187.845, 7.422958
1188.327, 7.248352
1188.809, 7.371017
1189.291, 6.917999
1189.774, 6.106506
1190.256, 5.551208
1190.738, 5.323120
1191.220, 5.396759
1191.702, 6.555771
1192.184, 6.917572
1192.666, 5.542480
1193.148, 3.489288
1193.630, 2.887482
1194.113, 3.422256
1194.595, 4.105301
1195.077, 4.778625
1195.559, 5.392578
1196.041, 6.086411
1196.523, 6.528381
1197.005, 6.263840
1197.487, 5.524979
1197.969, 5.789978
1198.452, 6.910065
1198.934, 8.452255
1199.416, 10.44827
1199.898, 11.37604
1200.380, 9.362686
1200.862, 7.346741
1201.344, 6.834961
1201.826, 7.326523
1202.309, 7.000351
1202.791, 6.048920
1203.273, 5.261642
1203.755, 4.718567
1204.237, 4.837738
1204.719, 6.752899
1205.201, 8.448685
1205.683, 8.695633
1206.166, 7.821762
1206.648, 7.270462
1207.130, 6.987152
1207.612, 6.702652
1208.094, 6.259232
1208.576, 5.951675
1209.058, 6.391602
1209.540, 6.495636
1210.022, 5.064835
1210.505, 2.639435
1210.987, 3.575897
1211.469, 6.992905
1211.951, 8.623367
1212.433, 4.549713
1212.915, 1.770752
1213.397, 4.441422
1213.879, 7.945862
1214.361, 8.862305
1214.844, 7.566071
1215.326, 6.730362
1215.808, 6.299377
1216.290, 6.056870
1216.772, 6.069962
1217.254, 5.849030
1217.736, 4.792068
1218.218, 3.952774
1218.701, 4.628448
1219.183, 6.438980
1219.665, 6.602295
1220.147, 5.371811
1220.629, 4.305618
1221.111, 4.295319
1221.593, 4.320206
1222.075, 3.946777
1222.557, 3.746552
1223.040, 4.696213
1223.522, 6.356842
1224.004, 6.183121
1224.486, 4.464203
1224.968, 3.172485
1225.450, 3.584167
1225.932, 4.117966
1226.414, 4.851517
1226.896, 4.958588
1227.379, 2.482315
1227.861, 1.360962
1228.343, 1.583740
1228.825, 1.469116
1229.307, 3.850021
1229.789, 3.013321
1230.271, 2.303040
1230.753, 2.476822
1231.236, 3.071426
1231.718, 3.704239
1232.200, 4.237823
1232.682, 4.073288
1233.164, 3.291931
1233.646, 2.832718
1234.128, 4.028198
1234.610, 4.077179
1235.093, 1.846939
1235.575, 0.5929720
1236.057, 0.1286470
1236.539, 2.585617
1237.021, 3.573029
1237.503, 2.939041
1237.985, 2.116821
1238.467, 1.128784
1238.949, 0.6907810
1239.432, 0.9722750
1239.914, 1.735535
1240.396, 3.230682
1240.878, 4.724380
1241.360, 4.345154
1241.842, 2.140533
1242.324, 1.211700
1242.806, 2.937149
1243.288, 4.368515
1243.771, 5.083862
1244.253, 5.025208
1244.735, 3.343292
1245.217, 1.253845
1245.699, 0.7731630
1246.181, 1.989517
1246.663, 2.881165
1247.145, 3.191864
1247.628, 3.336197
1248.110, 3.370758
1248.592, 3.377625
1249.074, 3.616440
1249.556, 3.783585
1250.038, 3.294571
1250.520, 2.194077
1251.002, 1.913467
1251.484, 2.675110
1251.967, 3.620453
1252.449, 4.796768
1252.931, 5.094681
1253.413, 1.790024
1253.895, 1.896286
1254.377, 1.983337
1254.859, 1.323563
1255.341, 2.087463
1255.823, 0.1484680
1256.306, 0.7842860
1256.788, 1.543655
1257.270, 4.105667
1257.752, 4.221863
1258.234, 3.568634
1258.716, 3.694107
1259.198, 4.389572
1259.680, 4.238007
1260.163, 3.227600
1260.645, 2.473083
1261.127, 2.238312
1261.609, 2.160400
1262.091, 1.980087
1262.573, 1.843292
1263.055, 1.731522
1263.537, 1.764847
1264.020, 2.783035
1264.502, 4.367401
1264.984, 4.556519
1265.466, 2.879166
1265.948, 1.388809
1266.430, 1.597488
1266.912, 2.159073
1267.394, 2.358551
1267.876, 2.400757
1268.359, 2.893036
1268.841, 3.807587
1269.323, 4.332413
1269.805, 4.222473
1270.287, 3.905823
1270.769, 3.564865
1271.251, 3.036484
1271.733, 2.091446
1272.215, 1.139160
1272.698, 1.279861
1273.180, 2.070755
1273.662, 2.437637
1274.144, 2.134506
1274.626, 2.209625
1275.108, 3.189301
1275.590, 3.856430
1276.072, 3.756683
1276.555, 3.269882
1277.037, 2.917236
1277.519, 2.307434
1278.001, 1.653305
1278.483, 1.225006
1278.965, 0.9092860
1279.447, 1.124878
1279.929, 1.022247
1280.411, 0.2234500
1280.894, 0.4580540
1281.376, 7.2173998E-02
1281.858, 1.213058
1282.340, 2.643250
1282.822, 4.230759
1283.304, 3.952850
1283.786, 1.518005
1284.268, 0.4512940
1284.750, 1.979996
1285.233, 3.953094
1285.715, 4.829239
1286.197, 4.883728
1286.679, 3.958649
1287.161, 2.419418
1287.643, 1.750214
1288.125, 1.892761
1288.607, 2.110657
1289.090, 2.253769
1289.572, 2.323410
1290.054, 2.223114
1290.536, 2.103317
1291.018, 1.813950
1291.500, 1.745728
1291.982, 2.634293
1292.464, 4.146515
1292.947, 5.120956
1293.429, 5.321594
1293.911, 5.072067
1294.393, 3.945007
1294.875, 3.102875
1295.357, 2.933395
1295.839, 3.147873
1296.321, 3.424515
1296.803, 3.651047
1297.286, 3.597137
1297.768, 3.223114
1298.250, 2.753510
1298.732, 2.215332
1299.214, 1.526123
1299.696, 0.4415590
1300.178, 2.4521001E-02
1300.660, 0.0000000E+00
##END=



