##NAMES=Mozartite
##RRUFFID=R180002
##IDEAL CHEMISTRY=CaMn^3+^SiO_4_(OH)
##LOCALITY=N'Chwaning III mine, Kalahari manganese field, Northern Cape Province, South Africa
##OWNER=RRUFF
##SOURCE=Ludi von Bezing
##DESCRIPTION=Red granular or pseudo-rhombohedral crystals, associated with colorless elongated celestine, calcite, and quartz (two pieces)
##STATUS=The identification of this mineral has been confirmed only by single crystal X-ray diffraction.
##URL=rruff.info/R180002
8.758203e+001, 5.760461e+002
8.806415e+001, 5.750162e+002
8.854626e+001, 5.748682e+002
8.902838e+001, 5.759876e+002
8.951050e+001, 5.773856e+002
8.999261e+001, 5.788080e+002
9.047473e+001, 5.801951e+002
9.095685e+001, 5.814122e+002
9.143896e+001, 5.822928e+002
9.192108e+001, 5.828257e+002
9.240320e+001, 5.833777e+002
9.288531e+001, 5.772858e+002
9.336743e+001, 5.610786e+002
9.384955e+001, 5.376768e+002
9.433167e+001, 5.154018e+002
9.481378e+001, 4.936410e+002
9.529590e+001, 4.753388e+002
9.577802e+001, 4.599914e+002
9.626013e+001, 4.467500e+002
9.674225e+001, 4.351204e+002
9.722437e+001, 4.248474e+002
9.770648e+001, 4.156866e+002
9.818860e+001, 4.080092e+002
9.867072e+001, 4.007805e+002
9.915283e+001, 3.933183e+002
9.963495e+001, 3.855487e+002
1.001171e+002, 3.780248e+002
1.005992e+002, 3.715388e+002
1.010813e+002, 3.661555e+002
1.015634e+002, 3.613657e+002
1.020455e+002, 3.567917e+002
1.025277e+002, 3.525505e+002
1.030098e+002, 3.486613e+002
1.034919e+002, 3.451108e+002
1.039740e+002, 3.419599e+002
1.044561e+002, 3.395203e+002
1.049382e+002, 3.394160e+002
1.054204e+002, 3.381193e+002
1.059025e+002, 3.347894e+002
1.063846e+002, 3.300145e+002
1.068667e+002, 3.246546e+002
1.073488e+002, 3.190272e+002
1.078309e+002, 3.133381e+002
1.083131e+002, 3.090318e+002
1.087952e+002, 3.068624e+002
1.092773e+002, 3.051432e+002
1.097594e+002, 3.029715e+002
1.102415e+002, 3.003291e+002
1.107236e+002, 2.976590e+002
1.112058e+002, 2.951640e+002
1.116879e+002, 2.929101e+002
1.121700e+002, 2.911299e+002
1.126521e+002, 2.902718e+002
1.131342e+002, 2.898232e+002
1.136163e+002, 2.889052e+002
1.140985e+002, 2.873187e+002
1.145806e+002, 2.856001e+002
1.150627e+002, 2.841924e+002
1.155448e+002, 2.829653e+002
1.160269e+002, 2.815760e+002
1.165090e+002, 2.797332e+002
1.169912e+002, 2.774507e+002
1.174733e+002, 2.752318e+002
1.179554e+002, 2.727688e+002
1.184375e+002, 2.706662e+002
1.189196e+002, 2.691840e+002
1.194017e+002, 2.683125e+002
1.198839e+002, 2.678882e+002
1.203660e+002, 2.678617e+002
1.208481e+002, 2.686888e+002
1.213302e+002, 2.687052e+002
1.218123e+002, 2.676976e+002
1.222944e+002, 2.662158e+002
1.227766e+002, 2.644207e+002
1.232587e+002, 2.624189e+002
1.237408e+002, 2.604273e+002
1.242229e+002, 2.588728e+002
1.247050e+002, 2.580670e+002
1.251871e+002, 2.573348e+002
1.256693e+002, 2.566540e+002
1.261514e+002, 2.560436e+002
1.266335e+002, 2.555411e+002
1.271156e+002, 2.551660e+002
1.275977e+002, 2.548930e+002
1.280798e+002, 2.546709e+002
1.285620e+002, 2.546778e+002
1.290441e+002, 2.544753e+002
1.295262e+002, 2.538093e+002
1.300083e+002, 2.527583e+002
1.304904e+002, 2.516412e+002
1.309725e+002, 2.505674e+002
1.314547e+002, 2.495664e+002
1.319368e+002, 2.486731e+002
1.324189e+002, 2.478957e+002
1.329010e+002, 2.472229e+002
1.333831e+002, 2.466862e+002
1.338652e+002, 2.463188e+002
1.343474e+002, 2.459183e+002
1.348295e+002, 2.452765e+002
1.353116e+002, 2.445757e+002
1.357937e+002, 2.440220e+002
1.362758e+002, 2.437304e+002
1.367579e+002, 2.436084e+002
1.372401e+002, 2.434676e+002
1.377222e+002, 2.435516e+002
1.382043e+002, 2.431762e+002
1.386864e+002, 2.419951e+002
1.391685e+002, 2.403014e+002
1.396507e+002, 2.385115e+002
1.401328e+002, 2.369010e+002
1.406149e+002, 2.354570e+002
1.410970e+002, 2.339990e+002
1.415791e+002, 2.323625e+002
1.420612e+002, 2.308701e+002
1.425434e+002, 2.296652e+002
1.430255e+002, 2.286944e+002
1.435076e+002, 2.277987e+002
1.439897e+002, 2.268288e+002
1.444718e+002, 2.257535e+002
1.449539e+002, 2.247969e+002
1.454361e+002, 2.239612e+002
1.459182e+002, 2.232077e+002
1.464003e+002, 2.225052e+002
1.468824e+002, 2.218546e+002
1.473645e+002, 2.212805e+002
1.478466e+002, 2.207892e+002
1.483288e+002, 2.203500e+002
1.488109e+002, 2.202281e+002
1.492930e+002, 2.206399e+002
1.497751e+002, 2.212742e+002
1.502572e+002, 2.218086e+002
1.507393e+002, 2.221665e+002
1.512215e+002, 2.224584e+002
1.517036e+002, 2.227879e+002
1.521857e+002, 2.231334e+002
1.526678e+002, 2.236526e+002
1.531499e+002, 2.246641e+002
1.536320e+002, 2.258978e+002
1.541142e+002, 2.266137e+002
1.545963e+002, 2.264020e+002
1.550784e+002, 2.259375e+002
1.555605e+002, 2.259499e+002
1.560426e+002, 2.264338e+002
1.565247e+002, 2.270338e+002
1.570069e+002, 2.275524e+002
1.574890e+002, 2.279898e+002
1.579711e+002, 2.283243e+002
1.584532e+002, 2.284702e+002
1.589353e+002, 2.285656e+002
1.594174e+002, 2.287004e+002
1.598996e+002, 2.288862e+002
1.603817e+002, 2.290756e+002
1.608638e+002, 2.292888e+002
1.613459e+002, 2.296523e+002
1.618280e+002, 2.295826e+002
1.623102e+002, 2.285566e+002
1.627923e+002, 2.273820e+002
1.632744e+002, 2.266899e+002
1.637565e+002, 2.266371e+002
1.642386e+002, 2.267908e+002
1.647207e+002, 2.263182e+002
1.652029e+002, 2.248459e+002
1.656850e+002, 2.232829e+002
1.661671e+002, 2.216251e+002
1.666492e+002, 2.199621e+002
1.671313e+002, 2.184399e+002
1.676134e+002, 2.171279e+002
1.680956e+002, 2.158345e+002
1.685777e+002, 2.139940e+002
1.690598e+002, 2.107708e+002
1.695419e+002, 2.079377e+002
1.700240e+002, 2.059669e+002
1.705061e+002, 2.043861e+002
1.709883e+002, 2.025149e+002
1.714704e+002, 1.999983e+002
1.719525e+002, 1.969863e+002
1.724346e+002, 1.941024e+002
1.729167e+002, 1.912680e+002
1.733988e+002, 1.885837e+002
1.738810e+002, 1.861840e+002
1.743631e+002, 1.839777e+002
1.748452e+002, 1.817158e+002
1.753273e+002, 1.792347e+002
1.758094e+002, 1.766321e+002
1.762915e+002, 1.743158e+002
1.767737e+002, 1.724769e+002
1.772558e+002, 1.706790e+002
1.777379e+002, 1.686245e+002
1.782200e+002, 1.663413e+002
1.787021e+002, 1.640536e+002
1.791842e+002, 1.619159e+002
1.796664e+002, 1.598404e+002
1.801485e+002, 1.576324e+002
1.806306e+002, 1.551235e+002
1.811127e+002, 1.526339e+002
1.815948e+002, 1.505709e+002
1.820769e+002, 1.489882e+002
1.825591e+002, 1.475251e+002
1.830412e+002, 1.459429e+002
1.835233e+002, 1.443936e+002
1.840054e+002, 1.430942e+002
1.844875e+002, 1.422633e+002
1.849696e+002, 1.415641e+002
1.854518e+002, 1.403000e+002
1.859339e+002, 1.381523e+002
1.864160e+002, 1.361569e+002
1.868981e+002, 1.347841e+002
1.873802e+002, 1.337249e+002
1.878623e+002, 1.326117e+002
1.883445e+002, 1.312346e+002
1.888266e+002, 1.297296e+002
1.893087e+002, 1.285896e+002
1.897908e+002, 1.280203e+002
1.902729e+002, 1.275540e+002
1.907550e+002, 1.272024e+002
1.912372e+002, 1.268433e+002
1.917193e+002, 1.263140e+002
1.922014e+002, 1.255072e+002
1.926835e+002, 1.244634e+002
1.931656e+002, 1.234610e+002
1.936477e+002, 1.223790e+002
1.941299e+002, 1.214869e+002
1.946120e+002, 1.209825e+002
1.950941e+002, 1.206869e+002
1.955762e+002, 1.202937e+002
1.960583e+002, 1.195741e+002
1.965404e+002, 1.185623e+002
1.970226e+002, 1.178873e+002
1.975047e+002, 1.178566e+002
1.979868e+002, 1.178147e+002
1.984689e+002, 1.174945e+002
1.989510e+002, 1.170116e+002
1.994331e+002, 1.166819e+002
1.999153e+002, 1.167605e+002
2.003974e+002, 1.172282e+002
2.008795e+002, 1.173596e+002
2.013616e+002, 1.170056e+002
2.018437e+002, 1.165420e+002
2.023258e+002, 1.160600e+002
2.028080e+002, 1.155896e+002
2.032901e+002, 1.152061e+002
2.037722e+002, 1.149990e+002
2.042543e+002, 1.149388e+002
2.047364e+002, 1.146595e+002
2.052185e+002, 1.140251e+002
2.057007e+002, 1.133068e+002
2.061828e+002, 1.126263e+002
2.066649e+002, 1.119968e+002
2.071470e+002, 1.114728e+002
2.076291e+002, 1.111471e+002
2.081112e+002, 1.109690e+002
2.085934e+002, 1.106711e+002
2.090755e+002, 1.102103e+002
2.095576e+002, 1.096479e+002
2.100397e+002, 1.089949e+002
2.105218e+002, 1.082458e+002
2.110039e+002, 1.075398e+002
2.114861e+002, 1.069699e+002
2.119682e+002, 1.065115e+002
2.124503e+002, 1.061094e+002
2.129324e+002, 1.057830e+002
2.134145e+002, 1.054906e+002
2.138967e+002, 1.051651e+002
2.143788e+002, 1.047862e+002
2.148609e+002, 1.044657e+002
2.153430e+002, 1.044001e+002
2.158251e+002, 1.044006e+002
2.163072e+002, 1.042157e+002
2.167894e+002, 1.037100e+002
2.172715e+002, 1.030271e+002
2.177536e+002, 1.024015e+002
2.182357e+002, 1.018419e+002
2.187178e+002, 1.013180e+002
2.191999e+002, 1.008029e+002
2.196821e+002, 1.003138e+002
2.201642e+002, 9.987160e+001
2.206463e+002, 9.947674e+001
2.211284e+002, 9.914519e+001
2.216105e+002, 9.893263e+001
2.220926e+002, 9.893358e+001
2.225748e+002, 9.886456e+001
2.230569e+002, 9.857134e+001
2.235390e+002, 9.819900e+001
2.240211e+002, 9.792036e+001
2.245032e+002, 9.783015e+001
2.249853e+002, 9.784425e+001
2.254675e+002, 9.770002e+001
2.259496e+002, 9.719283e+001
2.264317e+002, 9.686785e+001
2.269138e+002, 9.687318e+001
2.273959e+002, 9.708005e+001
2.278780e+002, 9.739942e+001
2.283602e+002, 9.780351e+001
2.288423e+002, 9.820523e+001
2.293244e+002, 9.831406e+001
2.298065e+002, 9.786900e+001
2.302886e+002, 9.746404e+001
2.307707e+002, 9.703214e+001
2.312529e+002, 9.672502e+001
2.317350e+002, 9.678391e+001
2.322171e+002, 9.733231e+001
2.326992e+002, 9.815865e+001
2.331813e+002, 9.857628e+001
2.336634e+002, 9.796735e+001
2.341456e+002, 9.767155e+001
2.346277e+002, 9.793336e+001
2.351098e+002, 9.850338e+001
2.355919e+002, 9.913139e+001
2.360740e+002, 9.970480e+001
2.365561e+002, 1.002096e+002
2.370383e+002, 1.006026e+002
2.375204e+002, 1.008320e+002
2.380025e+002, 1.009984e+002
2.384846e+002, 1.010715e+002
2.389667e+002, 1.010971e+002
2.394488e+002, 1.010913e+002
2.399310e+002, 1.010571e+002
2.404131e+002, 1.010702e+002
2.408952e+002, 1.013322e+002
2.413773e+002, 1.021044e+002
2.418594e+002, 1.027700e+002
2.423415e+002, 1.031467e+002
2.428237e+002, 1.034237e+002
2.433058e+002, 1.038832e+002
2.437879e+002, 1.046456e+002
2.442700e+002, 1.055216e+002
2.447521e+002, 1.061096e+002
2.452342e+002, 1.063561e+002
2.457164e+002, 1.064476e+002
2.461985e+002, 1.061773e+002
2.466806e+002, 1.058341e+002
2.471627e+002, 1.058890e+002
2.476448e+002, 1.065361e+002
2.481269e+002, 1.073947e+002
2.486091e+002, 1.077646e+002
2.490912e+002, 1.075165e+002
2.495733e+002, 1.073363e+002
2.500554e+002, 1.074538e+002
2.505375e+002, 1.076934e+002
2.510196e+002, 1.077634e+002
2.515018e+002, 1.075638e+002
2.519839e+002, 1.072945e+002
2.524660e+002, 1.072830e+002
2.529481e+002, 1.075440e+002
2.534302e+002, 1.077417e+002
2.539123e+002, 1.077789e+002
2.543945e+002, 1.077081e+002
2.548766e+002, 1.075695e+002
2.553587e+002, 1.073405e+002
2.558408e+002, 1.071608e+002
2.563229e+002, 1.072840e+002
2.568051e+002, 1.076648e+002
2.572872e+002, 1.079451e+002
2.577693e+002, 1.079968e+002
2.582514e+002, 1.078935e+002
2.587335e+002, 1.077449e+002
2.592156e+002, 1.075613e+002
2.596978e+002, 1.073444e+002
2.601799e+002, 1.071396e+002
2.606620e+002, 1.069189e+002
2.611441e+002, 1.065379e+002
2.616262e+002, 1.057815e+002
2.621083e+002, 1.048882e+002
2.625905e+002, 1.042630e+002
2.630726e+002, 1.039884e+002
2.635547e+002, 1.037820e+002
2.640368e+002, 1.034326e+002
2.645189e+002, 1.029924e+002
2.650010e+002, 1.025604e+002
2.654832e+002, 1.022272e+002
2.659653e+002, 1.018993e+002
2.664474e+002, 1.013905e+002
2.669295e+002, 1.006452e+002
2.674116e+002, 9.993385e+001
2.678937e+002, 9.951991e+001
2.683759e+002, 9.923091e+001
2.688580e+002, 9.881650e+001
2.693401e+002, 9.814149e+001
2.698222e+002, 9.736235e+001
2.703043e+002, 9.668707e+001
2.707864e+002, 9.611401e+001
2.712686e+002, 9.565417e+001
2.717507e+002, 9.551546e+001
2.722328e+002, 9.542149e+001
2.727149e+002, 9.502098e+001
2.731970e+002, 9.410950e+001
2.736791e+002, 9.308938e+001
2.741613e+002, 9.256431e+001
2.746434e+002, 9.263884e+001
2.751255e+002, 9.264372e+001
2.756076e+002, 9.223850e+001
2.760897e+002, 9.169500e+001
2.765718e+002, 9.119842e+001
2.770540e+002, 9.078589e+001
2.775361e+002, 9.044715e+001
2.780182e+002, 9.021706e+001
2.785003e+002, 9.013000e+001
2.789824e+002, 8.991563e+001
2.794645e+002, 8.938436e+001
2.799467e+002, 8.877288e+001
2.804288e+002, 8.826501e+001
2.809109e+002, 8.788510e+001
2.813930e+002, 8.746549e+001
2.818751e+002, 8.676052e+001
2.823572e+002, 8.573251e+001
2.828394e+002, 8.490395e+001
2.833215e+002, 8.459761e+001
2.838036e+002, 8.432607e+001
2.842857e+002, 8.373747e+001
2.847678e+002, 8.286426e+001
2.852499e+002, 8.205225e+001
2.857321e+002, 8.172240e+001
2.862142e+002, 8.189366e+001
2.866963e+002, 8.176326e+001
2.871784e+002, 8.109233e+001
2.876605e+002, 8.028741e+001
2.881426e+002, 7.949744e+001
2.886248e+002, 7.873502e+001
2.891069e+002, 7.799841e+001
2.895890e+002, 7.725811e+001
2.900711e+002, 7.652216e+001
2.905532e+002, 7.595309e+001
2.910353e+002, 7.573649e+001
2.915175e+002, 7.545580e+001
2.919996e+002, 7.487780e+001
2.924817e+002, 7.412644e+001
2.929638e+002, 7.343259e+001
2.934459e+002, 7.291330e+001
2.939280e+002, 7.256817e+001
2.944102e+002, 7.245096e+001
2.948923e+002, 7.284176e+001
2.953744e+002, 7.301141e+001
2.958565e+002, 7.262291e+001
2.963386e+002, 7.195375e+001
2.968207e+002, 7.137357e+001
2.973029e+002, 7.107998e+001
2.977850e+002, 7.092545e+001
2.982671e+002, 7.049973e+001
2.987492e+002, 6.955116e+001
2.992313e+002, 6.884877e+001
2.997134e+002, 6.875373e+001
3.001956e+002, 6.885275e+001
3.006777e+002, 6.873611e+001
3.011598e+002, 6.826063e+001
3.016419e+002, 6.767226e+001
3.021240e+002, 6.744686e+001
3.026061e+002, 6.780170e+001
3.030883e+002, 6.789883e+001
3.035704e+002, 6.736824e+001
3.040525e+002, 6.672121e+001
3.045346e+002, 6.625581e+001
3.050167e+002, 6.604147e+001
3.054988e+002, 6.601777e+001
3.059810e+002, 6.618218e+001
3.064631e+002, 6.661790e+001
3.069452e+002, 6.685125e+001
3.074273e+002, 6.669781e+001
3.079094e+002, 6.645219e+001
3.083915e+002, 6.617986e+001
3.088737e+002, 6.592104e+001
3.093558e+002, 6.574810e+001
3.098379e+002, 6.576026e+001
3.103200e+002, 6.596921e+001
3.108021e+002, 6.612194e+001
3.112842e+002, 6.625338e+001
3.117664e+002, 6.628110e+001
3.122485e+002, 6.612012e+001
3.127306e+002, 6.583291e+001
3.132127e+002, 6.554224e+001
3.136948e+002, 6.531754e+001
3.141769e+002, 6.516294e+001
3.146591e+002, 6.511318e+001
3.151412e+002, 6.527611e+001
3.156233e+002, 6.539706e+001
3.161054e+002, 6.538078e+001
3.165875e+002, 6.529028e+001
3.170696e+002, 6.520428e+001
3.175518e+002, 6.515756e+001
3.180339e+002, 6.514769e+001
3.185160e+002, 6.517644e+001
3.189981e+002, 6.527577e+001
3.194802e+002, 6.534940e+001
3.199623e+002, 6.542899e+001
3.204445e+002, 6.545274e+001
3.209266e+002, 6.531548e+001
3.214087e+002, 6.498826e+001
3.218908e+002, 6.464053e+001
3.223729e+002, 6.452110e+001
3.228550e+002, 6.465598e+001
3.233372e+002, 6.493105e+001
3.238193e+002, 6.554477e+001
3.243014e+002, 6.613593e+001
3.247835e+002, 6.649702e+001
3.252656e+002, 6.660608e+001
3.257477e+002, 6.657592e+001
3.262299e+002, 6.646818e+001
3.267120e+002, 6.626419e+001
3.271941e+002, 6.617692e+001
3.276762e+002, 6.627782e+001
3.281583e+002, 6.644247e+001
3.286404e+002, 6.666762e+001
3.291226e+002, 6.691729e+001
3.296047e+002, 6.710550e+001
3.300868e+002, 6.711950e+001
3.305689e+002, 6.700758e+001
3.310510e+002, 6.711752e+001
3.315331e+002, 6.762973e+001
3.320153e+002, 6.810128e+001
3.324974e+002, 6.831087e+001
3.329795e+002, 6.839698e+001
3.334616e+002, 6.858152e+001
3.339437e+002, 6.900552e+001
3.344258e+002, 6.952231e+001
3.349080e+002, 6.972686e+001
3.353901e+002, 6.939463e+001
3.358722e+002, 6.934925e+001
3.363543e+002, 7.015097e+001
3.368365e+002, 7.116322e+001
3.373186e+002, 7.182220e+001
3.378007e+002, 7.196316e+001
3.382828e+002, 7.189494e+001
3.387649e+002, 7.198365e+001
3.392470e+002, 7.224749e+001
3.397292e+002, 7.252767e+001
3.402113e+002, 7.278139e+001
3.406934e+002, 7.305320e+001
3.411755e+002, 7.337019e+001
3.416576e+002, 7.373197e+001
3.421397e+002, 7.412402e+001
3.426219e+002, 7.452943e+001
3.431040e+002, 7.494935e+001
3.435861e+002, 7.539987e+001
3.440682e+002, 7.585318e+001
3.445503e+002, 7.638249e+001
3.450324e+002, 7.710075e+001
3.455146e+002, 7.792113e+001
3.459967e+002, 7.862539e+001
3.464788e+002, 7.904337e+001
3.469609e+002, 7.928279e+001
3.474430e+002, 7.959708e+001
3.479251e+002, 8.000007e+001
3.484073e+002, 8.044292e+001
3.488894e+002, 8.094876e+001
3.493715e+002, 8.146719e+001
3.498536e+002, 8.192769e+001
3.503357e+002, 8.228361e+001
3.508178e+002, 8.263590e+001
3.513000e+002, 8.316336e+001
3.517821e+002, 8.388280e+001
3.522642e+002, 8.445383e+001
3.527463e+002, 8.473376e+001
3.532284e+002, 8.482442e+001
3.537105e+002, 8.482091e+001
3.541927e+002, 8.472215e+001
3.546748e+002, 8.460249e+001
3.551569e+002, 8.451904e+001
3.556390e+002, 8.445962e+001
3.561211e+002, 8.437844e+001
3.566032e+002, 8.429313e+001
3.570854e+002, 8.413585e+001
3.575675e+002, 8.385497e+001
3.580496e+002, 8.345857e+001
3.585317e+002, 8.295652e+001
3.590138e+002, 8.225712e+001
3.594959e+002, 8.148625e+001
3.599781e+002, 8.085106e+001
3.604602e+002, 8.038103e+001
3.609423e+002, 7.994460e+001
3.614244e+002, 7.947266e+001
3.619065e+002, 7.896913e+001
3.623886e+002, 7.844209e+001
3.628708e+002, 7.790053e+001
3.633529e+002, 7.732884e+001
3.638350e+002, 7.668733e+001
3.643171e+002, 7.599170e+001
3.647992e+002, 7.535174e+001
3.652813e+002, 7.485395e+001
3.657635e+002, 7.440577e+001
3.662456e+002, 7.381736e+001
3.667277e+002, 7.306538e+001
3.672098e+002, 7.227647e+001
3.676919e+002, 7.139225e+001
3.681740e+002, 7.052419e+001
3.686562e+002, 6.993887e+001
3.691383e+002, 6.974116e+001
3.696204e+002, 6.963572e+001
3.701025e+002, 6.925947e+001
3.705846e+002, 6.860168e+001
3.710667e+002, 6.789950e+001
3.715489e+002, 6.707474e+001
3.720310e+002, 6.628520e+001
3.725131e+002, 6.570475e+001
3.729952e+002, 6.532843e+001
3.734773e+002, 6.500389e+001
3.739594e+002, 6.462846e+001
3.744416e+002, 6.420290e+001
3.749237e+002, 6.377977e+001
3.754058e+002, 6.338468e+001
3.758879e+002, 6.296567e+001
3.763700e+002, 6.246272e+001
3.768521e+002, 6.192201e+001
3.773343e+002, 6.144184e+001
3.778164e+002, 6.106582e+001
3.782985e+002, 6.077320e+001
3.787806e+002, 6.051984e+001
3.792627e+002, 6.032497e+001
3.797448e+002, 6.013726e+001
3.802270e+002, 6.001533e+001
3.807091e+002, 5.986501e+001
3.811912e+002, 5.954588e+001
3.816733e+002, 5.905182e+001
3.821554e+002, 5.856438e+001
3.826375e+002, 5.829336e+001
3.831197e+002, 5.829774e+001
3.836018e+002, 5.822866e+001
3.840839e+002, 5.799006e+001
3.845660e+002, 5.778425e+001
3.850481e+002, 5.774413e+001
3.855302e+002, 5.781525e+001
3.860124e+002, 5.785611e+001
3.864945e+002, 5.777453e+001
3.869766e+002, 5.758757e+001
3.874587e+002, 5.738380e+001
3.879408e+002, 5.717626e+001
3.884229e+002, 5.693157e+001
3.889051e+002, 5.654293e+001
3.893872e+002, 5.616540e+001
3.898693e+002, 5.597962e+001
3.903514e+002, 5.603850e+001
3.908335e+002, 5.621643e+001
3.913156e+002, 5.633944e+001
3.917978e+002, 5.645356e+001
3.922799e+002, 5.637951e+001
3.927620e+002, 5.590495e+001
3.932441e+002, 5.543570e+001
3.937262e+002, 5.523600e+001
3.942083e+002, 5.524937e+001
3.946905e+002, 5.519824e+001
3.951726e+002, 5.479158e+001
3.956547e+002, 5.409435e+001
3.961368e+002, 5.380790e+001
3.966189e+002, 5.425547e+001
3.971010e+002, 5.466516e+001
3.975832e+002, 5.483387e+001
3.980653e+002, 5.481659e+001
3.985474e+002, 5.466387e+001
3.990295e+002, 5.437986e+001
3.995116e+002, 5.404099e+001
3.999937e+002, 5.374316e+001
4.004759e+002, 5.346936e+001
