##NAMES=Mozartite
##RRUFFID=R180002
##IDEAL CHEMISTRY=CaMn^3+^SiO_4_(OH)
##LOCALITY=N'Chwaning III mine, Kalahari manganese field, Northern Cape Province, South Africa
##OWNER=RRUFF
##SOURCE=Ludi von Bezing
##DESCRIPTION=Red granular or pseudo-rhombohedral crystals, associated with colorless elongated celestine, calcite, and quartz (two pieces)
##STATUS=The identification of this mineral has been confirmed only by single crystal X-ray diffraction.
##URL=rruff.info/R180002
111.6879, 0.0000000E+00
112.1700, 6.1340001E-03
112.6521, 0.8235780
113.1342, 2.078247
113.6163, 2.993866
114.0985, 3.140015
114.5806, 3.035339
115.0627, 3.672363
115.5448, 4.728333
116.0269, 4.774231
116.5090, 4.051361
116.9912, 2.864471
117.4733, 1.833649
117.9554, 0.6943970
118.4375, 0.1219790
118.9196, 0.3857120
119.4017, 0.1104740
119.8839, 0.5281370
120.3660, 1.517731
120.8481, 3.361969
121.3302, 4.397400
121.8123, 4.413483
122.2944, 3.962250
122.7766, 3.205933
123.2587, 2.249786
123.7408, 1.308655
124.2229, 0.8075260
124.7050, 1.056335
125.1871, 1.378510
125.6693, 1.750504
126.1514, 2.190155
126.6335, 2.734406
127.1156, 3.402451
127.5977, 4.168793
128.0798, 4.981918
128.5620, 6.019775
129.0441, 6.846695
129.5262, 7.212051
130.0083, 7.196228
130.4904, 7.120270
130.9725, 7.100113
131.4547, 7.173859
131.9368, 7.369156
132.4189, 7.697632
132.9010, 8.146042
133.3831, 8.741089
133.8652, 9.505692
134.3474, 10.23116
134.8295, 10.70767
135.3116, 11.11650
135.7937, 11.66377
136.2758, 12.46394
136.7579, 13.42473
137.2401, 14.35759
137.7222, 15.50565
138.2043, 16.18410
138.6864, 16.04695
139.1685, 15.38736
139.6507, 14.62144
140.1328, 14.02464
140.6149, 13.58562
141.0970, 13.12868
141.5791, 12.48897
142.0612, 11.98878
142.5434, 11.77132
143.0255, 11.78300
143.5076, 11.86470
143.9897, 11.86652
144.4718, 11.75661
144.9539, 11.75958
145.4361, 11.89375
145.9182, 12.14400
146.4003, 12.48604
146.8824, 12.90875
147.3645, 13.42184
147.8466, 14.04539
148.3288, 14.72253
148.8109, 15.74266
149.2930, 17.37639
149.7751, 19.27692
150.2572, 21.22603
150.7393, 23.12553
151.2215, 24.85971
151.7036, 26.51591
152.1857, 28.21951
152.6678, 30.21288
153.1499, 32.74728
153.6320, 35.39236
154.1142, 37.52916
154.5963, 38.71227
155.0784, 39.45889
155.5605, 40.61700
156.0426, 42.14395
156.5247, 43.72380
157.0069, 45.20433
157.4890, 46.58746
157.9711, 47.84409
158.4532, 48.89421
158.9353, 49.89175
159.4174, 50.92397
159.8996, 51.99164
160.3817, 53.04672
160.8638, 54.11980
161.3459, 55.34361
161.8280, 56.12936
162.3102, 55.94746
162.7923, 55.60268
163.2744, 55.72816
163.7565, 56.47240
164.2386, 57.40758
164.7207, 57.71516
165.2029, 57.02031
165.6850, 56.23019
166.1671, 55.33853
166.6492, 54.43076
167.1313, 53.64917
167.6134, 53.06877
168.0956, 52.49812
168.5777, 51.36835
169.0598, 48.84944
169.5419, 46.91400
170.0240, 45.83177
170.5061, 45.13182
170.9883, 44.13255
171.4704, 42.47841
171.9525, 40.32098
172.4346, 38.28665
172.9167, 36.29477
173.3988, 34.44493
173.8810, 32.87491
174.3631, 31.49323
174.8452, 30.04892
175.3273, 28.37282
175.8094, 26.56169
176.2915, 25.01720
176.7737, 23.93007
177.2558, 22.89557
177.7379, 21.60938
178.2200, 20.09285
178.7021, 18.57227
179.1842, 17.19566
179.6664, 15.87831
180.1485, 14.42549
180.6306, 12.66557
181.1127, 10.91728
181.5948, 9.587921
182.0769, 8.731369
182.5591, 7.992477
183.0412, 7.132721
183.5233, 6.303543
184.0054, 5.722214
184.4875, 5.607788
184.9696, 5.623947
185.4518, 5.074524
185.9339, 3.640991
186.4160, 2.358246
186.8981, 1.694641
187.3802, 1.341095
187.8623, 0.9299620
188.3445, 0.2512510
188.8266, 0.5592350
189.3087, 1.008850
189.7908, 0.8920140
190.2729, 0.6764530
190.7550, 0.3505170
191.2372, 3.6400001E-02
191.7193, 0.1031880
192.2014, 3.9009001E-02
192.6835, 0.4225230
193.1656, 0.7690050
193.6477, 1.199509
194.1299, 1.444580
194.6120, 1.306465
195.0941, 0.9639970
195.5762, 0.7235030
196.0583, 0.8136900
196.5404, 1.200356
197.0226, 1.254593
197.5047, 0.6688770
197.9868, 9.8511003E-02
198.4689, 0.1896130
198.9510, 0.3111950
199.4331, 0.5821530
199.9153, 1.257660
200.3974, 2.318573
200.8795, 3.039581
201.3616, 3.271637
201.8437, 3.390564
202.3258, 3.487579
202.8080, 3.592712
203.2901, 3.781219
203.7722, 4.142448
204.2543, 4.646751
204.7364, 4.927986
205.2185, 4.850105
205.7007, 4.684174
206.1828, 4.551857
206.6649, 4.466293
207.1470, 4.481567
207.6291, 4.690315
208.1112, 5.041176
208.5934, 5.266228
209.0755, 5.322762
209.5576, 5.272560
210.0397, 5.126457
210.5218, 4.878448
211.0039, 4.667542
211.4861, 4.587173
211.9682, 4.612679
212.4503, 4.688995
212.9324, 4.836273
213.4145, 5.013092
213.8967, 5.152786
214.3788, 5.235344
214.8609, 5.372620
215.3430, 5.761208
215.8251, 6.212379
216.3072, 6.474754
216.7894, 6.412926
217.2715, 6.170525
217.7536, 5.982086
218.2357, 5.856361
218.7178, 5.763077
219.1999, 5.675323
219.6821, 5.610298
220.1642, 5.588966
220.6463, 5.611801
221.1284, 5.694824
221.6105, 5.893806
222.0926, 6.303329
222.5748, 6.639931
223.0569, 6.749397
223.5390, 6.776794
224.0211, 6.894989
224.5032, 7.198769
224.9853, 7.604057
225.4675, 7.848259
225.9496, 7.726776
226.4317, 7.784821
226.9138, 8.170532
227.3959, 8.754318
227.8780, 9.447197
228.3602, 10.22142
228.8423, 10.98994
229.3244, 11.46230
229.8065, 11.37751
230.2886, 11.32960
230.7707, 11.25156
231.2529, 11.29511
231.7350, 11.70153
232.2171, 12.59434
232.6992, 13.76447
233.1813, 14.52461
233.6634, 14.25551
234.1456, 14.29721
234.6277, 14.89552
235.1098, 15.80170
235.5919, 16.76529
236.0740, 17.67295
236.5561, 18.50827
237.0383, 19.22281
237.5204, 19.76289
238.0025, 20.22951
238.4846, 20.59344
238.9667, 20.90174
239.4488, 21.17193
239.9310, 21.40782
240.4131, 21.68503
240.8952, 22.20552
241.3773, 23.22968
241.8594, 24.14176
242.3415, 24.76089
242.8237, 25.27650
243.3058, 25.96701
243.7879, 26.94550
244.2700, 28.01965
244.7521, 28.79189
245.2342, 29.21008
245.7164, 29.45866
246.1985, 29.31969
246.6806, 29.06643
247.1627, 29.19265
247.6448, 29.92056
248.1269, 30.86859
248.6091, 31.33710
249.0912, 31.18980
249.5733, 31.11269
250.0554, 31.32211
250.5375, 31.62867
251.0196, 31.74567
251.5018, 31.56862
251.9839, 31.30688
252.4660, 31.30632
252.9481, 31.58941
253.4302, 31.81784
253.9123, 31.87674
254.3945, 31.80052
254.8766, 31.65108
255.3587, 31.44656
255.8408, 31.32835
256.3229, 31.53145
256.8051, 31.99798
257.2872, 32.37178
257.7693, 32.52836
258.2514, 32.54459
258.7335, 32.52242
259.2156, 32.46598
259.6978, 32.37556
260.1799, 32.29617
260.6620, 32.19974
261.1441, 31.94260
261.6262, 31.31016
262.1083, 30.54226
262.5905, 30.04202
263.0726, 29.88921
263.5547, 29.80138
264.0368, 29.56842
264.5189, 29.24304
265.0010, 28.92416
265.4832, 28.70295
265.9653, 28.48657
266.4474, 28.08640
266.9295, 27.44554
267.4116, 26.83456
267.8937, 26.51720
268.3759, 26.32076
268.8580, 25.99559
269.3401, 25.40801
269.8222, 24.71495
270.3043, 24.12407
270.7864, 23.63408
271.2686, 23.25694
271.7507, 23.20074
272.2328, 23.18864
272.7149, 22.86983
273.1970, 22.04198
273.6791, 21.10799
274.1613, 20.66972
274.6434, 20.82939
275.1255, 20.91631
275.6076, 20.59034
276.0897, 20.12383
276.5718, 19.70228
277.0540, 19.36288
277.5361, 19.09556
278.0182, 18.93558
278.5003, 18.91772
278.9824, 18.77213
279.4645, 18.31023
279.9467, 17.76913
280.4288, 17.33183
280.9109, 17.02182
281.3930, 16.67115
281.8751, 16.03445
282.3572, 15.07484
282.8394, 14.31523
283.3215, 14.07774
283.8036, 13.87341
284.2857, 13.35119
284.7678, 12.54488
285.2499, 11.80116
285.7321, 11.54150
286.2142, 11.78526
286.6963, 11.72958
287.1784, 11.13435
287.6605, 10.40379
288.1426, 9.687004
288.6248, 8.996506
289.1069, 8.331039
289.5890, 7.662651
290.0711, 7.001434
290.5532, 6.511070
291.0353, 6.375435
291.5175, 6.173683
291.9996, 5.673882
292.4817, 5.002327
292.9638, 4.391151
293.4459, 3.957657
293.9280, 3.701202
294.4102, 3.675255
294.8923, 4.156319
295.3744, 4.415207
295.8565, 4.114944
296.3386, 3.533089
296.8207, 3.039291
297.3029, 2.831169
297.7850, 2.761223
298.2671, 2.419228
298.7492, 1.553543
299.2313, 0.9332120
299.7134, 0.9194110
300.1956, 1.098869
300.6777, 1.061890
301.1598, 0.6653370
301.6419, 0.1552050
302.1240, 7.4310000E-03
302.6061, 0.4393160
303.0883, 0.6129990
303.5704, 0.1585240
304.0525, 0.4127200
304.5346, 0.8025360
305.0167, 0.9414830
305.4988, 0.8900380
305.9810, 0.6507570
306.4631, 0.1404420
306.9452, 0.1672970
307.4273, 8.8036001E-02
307.9094, 8.3541997E-02
308.3915, 0.2818760
308.8737, 0.4667050
309.3558, 0.5655670
309.8379, 0.4791950
310.3200, 0.1959000
310.8021, 3.1303000E-02
311.2842, 0.2373280
311.7664, 0.3398280
312.2485, 0.2539670
312.7306, 4.2213000E-02
313.2127, 0.1728670
313.6948, 0.3219910
314.1769, 0.4011460
314.6591, 0.3756260
315.1412, 0.1376110
315.6233, 5.8212001E-02
316.1054, 0.1165700
316.5875, 0.1004640
317.0696, 8.8692002E-02
317.5518, 0.1160580
318.0339, 0.1800920
318.5160, 0.2825470
318.9981, 0.4553450
319.4802, 0.6021880
319.9623, 0.7547380
320.4445, 0.8512270
320.9266, 0.7865300
321.4087, 0.5317000
321.8908, 0.2561950
322.3729, 0.2088090
322.8550, 0.4155730
323.3372, 0.7623830
323.8193, 1.447723
324.3014, 2.110451
324.7835, 2.543056
325.2656, 2.723553
325.7477, 2.764736
326.2299, 2.728264
326.7120, 2.595524
327.1941, 2.579494
327.6762, 2.751652
328.1583, 2.987572
328.6404, 3.284103
329.1226, 3.605370
329.6047, 3.865414
330.0868, 3.951286
330.5689, 3.911194
331.0510, 4.092907
331.5331, 4.676853
332.0153, 5.221073
332.4974, 5.503788
332.9795, 5.662449
333.4616, 5.918636
333.9437, 6.414261
334.4258, 7.002655
334.9080, 7.278812
335.3901, 7.018181
335.8722, 7.046070
336.3543, 7.921623
336.8365, 9.007381
337.3186, 9.739784
337.8007, 9.955608
338.2828, 9.973812
338.7649, 10.15884
339.2470, 10.49893
339.7292, 10.85338
340.2113, 11.18039
340.6934, 11.52528
341.1755, 11.91572
341.6576, 12.35187
342.1397, 12.81944
342.6219, 13.30394
343.1040, 13.81178
343.5861, 14.35400
344.0682, 14.89001
344.5503, 15.49493
345.0324, 16.28816
345.5146, 17.18344
345.9967, 17.96244
346.4788, 18.45417
346.9609, 18.76581
347.4430, 19.15162
347.9251, 19.62429
348.4073, 20.13581
348.8894, 20.71023
349.3715, 21.29640
349.8536, 21.82222
350.3357, 22.23949
350.8178, 22.65054
351.3000, 23.23511
351.7821, 24.01321
352.2642, 24.64447
352.7463, 24.98538
353.2284, 25.13571
353.7105, 25.19078
354.1927, 25.14834
354.6748, 25.08332
355.1569, 25.05374
355.6390, 25.04791
356.1211, 25.01907
356.6032, 24.98265
357.0854, 24.87185
357.5675, 24.63759
358.0496, 24.28894
358.5317, 23.83537
359.0138, 23.18307
359.4959, 22.45712
359.9781, 21.86567
360.4602, 21.44138
360.9423, 21.05163
361.4244, 20.62468
361.9065, 20.15590
362.3886, 19.65116
362.8708, 19.12690
363.3529, 18.57466
363.8350, 17.96112
364.3171, 17.30825
364.7992, 16.71523
365.2813, 16.26566
365.7635, 15.86526
366.2456, 15.32030
366.7277, 14.60505
367.2098, 13.84927
367.6919, 13.00182
368.1740, 12.17952
368.6562, 11.64542
369.1383, 11.50680
369.6204, 11.46665
370.1025, 11.14858
370.5846, 10.54269
371.0667, 9.888325
371.5489, 9.107986
372.0310, 8.360916
372.5131, 7.823849
372.9952, 7.497196
373.4773, 7.226772
373.9594, 6.916618
374.4416, 6.570724
374.9237, 6.231613
375.4058, 5.913879
375.8879, 5.565189
376.3700, 5.123127
376.8521, 4.640358
377.3343, 4.220222
377.8164, 3.910709
378.2985, 3.690853
378.7806, 3.510323
379.2627, 3.384857
379.7448, 3.264767
380.2270, 3.210892
380.7091, 3.131287
381.1912, 2.891594
381.6733, 2.486229
382.1554, 2.085941
382.6375, 1.889702
383.1197, 1.963203
383.6018, 1.964775
384.0839, 1.803448
384.5660, 1.680145
385.0481, 1.721920
385.5302, 1.876564
386.0124, 2.018875
386.4945, 2.066734
386.9766, 2.013531
387.4587, 1.893913
387.9408, 1.753304
388.4229, 1.575447
388.9051, 1.258957
389.3872, 0.9645040
389.8693, 0.8551670
390.3514, 0.9813880
390.8335, 1.225746
391.3156, 1.415916
391.7978, 1.598385
392.2799, 1.590752
392.7620, 1.181683
393.2441, 0.7778050
393.7262, 0.6439970
394.2083, 0.7237280
394.6905, 0.7376170
395.1726, 0.3938640
395.6547, 0.2413410
396.1368, 0.4658390
396.6189, 4.3804001E-02
397.1010, 0.5156480
397.5832, 0.7462880
398.0653, 0.7901920
398.5474, 0.6979980
399.0295, 0.4743160
399.5116, 0.1955640
399.9937, 4.2351000E-02
400.4759, 0.2565040
400.9580, 0.3376620
401.4401, 0.1293030
401.9222, 0.1325760
402.4043, 0.2678340
402.8864, 0.2728000
403.3686, 0.2983820
403.8507, 0.5236970
404.3328, 0.8783760
404.8149, 1.026562
405.2970, 0.8613820
405.7791, 0.6649090
406.2613, 0.6044350
406.7434, 0.6527940
407.2255, 0.7803880
407.7076, 1.109821
408.1897, 1.391239
408.6718, 1.207249
409.1540, 0.5818600
409.6361, 0.2192540
410.1182, 0.5600970
410.6003, 1.219540
411.0824, 1.498985
411.5645, 1.311131
412.0467, 1.117313
412.5288, 1.134304
413.0109, 1.273438
413.4930, 1.399151
413.9751, 1.490414
414.4572, 1.511734
414.9394, 1.395061
415.4215, 1.134857
415.9036, 0.9702530
416.3857, 0.9485740
416.8678, 1.004101
417.3499, 1.139362
417.8321, 1.324657
418.3142, 1.477985
418.7963, 1.559612
419.2784, 1.570053
419.7605, 1.533703
420.2426, 1.417946
420.7248, 1.313496
421.2069, 1.279510
421.6890, 1.236431
422.1711, 1.047581
422.6532, 0.7064360
423.1353, 0.4059870
423.6175, 0.4036480
424.0996, 0.8015790
424.5817, 0.9768600
425.0638, 0.8117330
425.5459, 0.5814970
426.0280, 0.2966800
426.5102, 3.1707998E-02
426.9923, 7.1635999E-02
427.4744, 8.0940001E-02
427.9565, 0.3955540
428.4386, 0.5650670
428.9207, 0.5195850
429.4029, 0.4585150
429.8850, 0.4464800
430.3671, 0.4099660
430.8492, 0.2505910
431.3313, 3.1342000E-02
431.8134, 0.2911990
432.2956, 0.3615190
432.7777, 0.2331620
433.2598, 8.6567000E-02
433.7419, 0.1290860
434.2241, 0.2713170
434.7062, 0.2331660
435.1883, 9.0195000E-02
435.6704, 1.3680000E-02
436.1525, 6.6109998E-03
436.6346, 5.0747000E-02
437.1168, 7.7610001E-02
437.5989, 8.1329003E-02
438.0810, 6.3285999E-02
438.5631, 4.7713999E-02
439.0452, 0.1463620
439.5273, 6.8637997E-02
440.0095, 0.2215690
440.4916, 0.4451410
440.9737, 0.3957820
441.4558, 0.1855510
441.9379, 6.3747004E-02
442.4200, 7.7679001E-02
442.9022, 6.2449999E-02
443.3843, 0.2281570
443.8664, 0.6928290
444.3485, 0.7620770
444.8306, 7.7216998E-02
445.3127, 0.8745120
445.7949, 0.9300000
446.2770, 0.4658200
446.7591, 0.1651880
447.2412, 0.3300250
447.7233, 0.7258990
448.2054, 0.8983650
448.6876, 0.7031060
449.1697, 0.6153180
449.6518, 0.7751460
450.1339, 0.9673840
450.6160, 0.9701690
451.0981, 0.8058430
451.5803, 0.7131200
452.0624, 0.9104650
452.5445, 1.363941
453.0266, 1.616295
453.5087, 1.448227
453.9908, 1.298126
454.4730, 1.219238
454.9551, 1.216820
455.4372, 1.340874
455.9193, 1.596653
456.4014, 1.888596
456.8835, 2.079601
457.3657, 2.147644
457.8478, 2.206551
458.3299, 2.244686
458.8120, 2.281605
459.2941, 2.364376
459.7762, 2.461498
460.2584, 2.495556
460.7405, 2.408638
461.2226, 2.255650
461.7047, 2.135742
462.1868, 2.038979
462.6689, 2.028572
463.1511, 2.231918
463.6332, 2.460644
464.1153, 2.524868
464.5974, 2.405018
465.0795, 2.234699
465.5616, 2.052719
466.0438, 1.883873
466.5259, 1.804058
467.0080, 1.835190
467.4901, 1.858143
467.9722, 1.739231
468.4543, 1.532494
468.9365, 1.484940
469.4186, 1.768593
469.9007, 2.048698
470.3828, 2.229950
470.8649, 2.273880
471.3470, 2.005077
471.8292, 1.330551
472.3113, 0.6065710
472.7934, 0.4007260
473.2755, 0.9708100
473.7576, 1.342949
474.2397, 1.508656
474.7219, 1.493858
475.2040, 1.156723
475.6861, 0.6387370
476.1682, 0.2977370
476.6503, 0.3742750
477.1324, 0.7686350
477.6146, 1.108292
478.0967, 1.507420
478.5788, 1.650143
479.0609, 1.331573
479.5430, 0.8989560
480.0251, 0.6093520
480.5073, 0.5000570
480.9894, 0.4579350
481.4715, 0.3910100
481.9536, 0.3023300
482.4357, 0.2001300
482.9178, 4.9617998E-02
483.4000, 5.6685999E-02
483.8821, 8.5106000E-02
484.3642, 5.4131001E-02
484.8463, 4.0507998E-02
485.3284, 0.2348630
485.8105, 0.4254260
486.2927, 0.5075450
486.7748, 0.4910390
487.2569, 0.4340440
487.7390, 0.3309590
488.2211, 0.2268140
488.7032, 0.1876490
489.1854, 0.1894610
489.6675, 0.1406100
490.1496, 1.1505000E-02
490.6317, 0.1616250
491.1138, 0.2267570
491.5959, 0.2179150
492.0781, 0.2010690
492.5602, 0.2096140
493.0423, 0.2344020
493.5244, 0.2436790
494.0065, 0.1987990
494.4886, 0.1954960
494.9708, 0.3270450
495.4529, 0.4379430
495.9350, 0.3793030
496.4171, 0.1820600
496.8992, 5.8329999E-03
497.3813, 8.1799001E-02
497.8635, 7.1621001E-02
498.3456, 7.1144000E-02
498.8277, 7.3440999E-02
499.3098, 6.9805004E-02
499.7919, 2.6325000E-02
500.2740, 4.5929998E-03
500.7562, 0.1150670
501.2383, 0.3324510
501.7204, 0.4314580
502.2025, 0.1110690
502.6846, 0.5180890
503.1667, 0.8073200
503.6489, 0.6373210
504.1310, 0.3859750
504.6131, 0.2006110
505.0952, 6.5200999E-02
505.5773, 1.0921000E-02
506.0594, 9.6209999E-03
506.5416, 4.1561000E-02
507.0237, 0.1735530
507.5058, 0.3410260
507.9879, 0.3787570
508.4700, 0.2265930
508.9521, 2.3403000E-02
509.4343, 9.3918003E-02
509.9164, 0.1245730
510.3985, 0.1345980
510.8806, 7.8846000E-02
511.3627, 4.6512999E-02
511.8448, 9.4589002E-02
512.3270, 0.2050440
512.8091, 0.3344800
513.2912, 0.4646150
513.7733, 0.6062360
514.2554, 0.7859270
514.7375, 1.054806
515.2197, 1.238628
515.7018, 1.320316
516.1839, 1.346375
516.6660, 1.263348
517.1481, 1.145744
517.6302, 1.161232
518.1124, 1.423710
518.5945, 1.838531
519.0766, 2.163956
519.5587, 2.381531
520.0408, 2.569473
520.5229, 2.836960
521.0051, 3.000008
521.4872, 2.792957
521.9693, 2.290848
522.4514, 1.997105
522.9335, 2.321350
523.4156, 3.009281
523.8978, 3.622620
524.3799, 4.158386
524.8620, 4.613651
525.3441, 4.962048
525.8262, 5.244511
526.3083, 5.551647
526.7905, 5.904591
527.2726, 6.215881
527.7547, 6.372375
528.2368, 6.525513
528.7189, 6.883793
529.2010, 7.439934
529.6832, 7.971882
530.1653, 8.295826
530.6474, 8.457478
531.1295, 8.803646
531.6116, 9.405556
532.0938, 10.10200
532.5759, 10.99098
533.0580, 11.90097
533.5401, 12.70605
534.0222, 13.36752
534.5043, 13.90255
534.9865, 14.25290
535.4686, 14.45238
535.9507, 14.95361
536.4328, 15.89044
536.9149, 16.88765
537.3970, 17.85546
537.8792, 18.78905
538.3613, 19.68419
538.8434, 20.54650
539.3255, 21.31957
539.8076, 21.85579
540.2897, 22.27573
540.7719, 22.93032
541.2540, 23.88409
541.7361, 24.92281
542.2182, 25.92944
542.7003, 26.89568
543.1824, 27.79914
543.6646, 28.52510
544.1467, 29.32349
544.6288, 30.34679
545.1109, 31.46582
545.5930, 32.50242
546.0751, 33.42270
546.5573, 34.31869
547.0394, 35.30234
547.5215, 36.37519
548.0036, 37.32288
548.4857, 38.02050
548.9678, 38.74175
549.4500, 39.69214
549.9321, 40.61597
550.4142, 41.14915
550.8963, 41.22586
551.3784, 41.26196
551.8605, 41.81449
552.3427, 42.82842
552.8248, 43.49577
553.3069, 43.71386
553.7890, 43.75796
554.2711, 43.76908
554.7532, 43.71132
555.2354, 43.48234
555.7175, 42.99776
556.1996, 42.52430
556.6817, 42.22773
557.1638, 42.06465
557.6459, 42.06443
558.1281, 42.24100
558.6102, 42.11409
559.0923, 41.15873
559.5744, 39.43185
560.0565, 38.19257
560.5386, 37.69504
561.0208, 37.24509
561.5029, 36.78724
561.9850, 36.27649
562.4671, 35.68905
562.9492, 34.99963
563.4313, 34.11898
563.9135, 32.87005
564.3956, 31.26291
564.8777, 30.14990
565.3598, 29.90868
565.8419, 29.56518
566.3240, 28.73924
566.8062, 27.71848
567.2883, 26.79344
567.7704, 26.02976
568.2525, 25.32525
568.7346, 24.59006
569.2167, 23.85339
569.6989, 23.24086
570.1810, 22.78445
570.6631, 22.25239
571.1452, 21.45334
571.6273, 20.47713
572.1094, 19.65538
572.5916, 19.03422
573.0737, 18.47118
573.5558, 17.91827
574.0379, 17.40899
574.5200, 17.03663
575.0021, 16.77806
575.4843, 16.44701
575.9664, 15.86855
576.4485, 15.11571
576.9306, 14.65732
577.4127, 14.74594
577.8948, 14.72963
578.3770, 14.50147
578.8591, 14.16418
579.3412, 13.71646
579.8233, 13.20852
580.3054, 12.81988
580.7875, 12.75695
581.2697, 12.87946
581.7518, 12.83416
582.2339, 12.60748
582.7161, 12.32378
583.1982, 11.96843
583.6803, 11.64256
584.1624, 11.52310
584.6445, 11.63142
585.1266, 11.70031
585.6088, 11.66868
586.0909, 11.56318
586.5730, 11.40175
587.0551, 11.18811
587.5372, 10.91428
588.0193, 10.57483
588.5015, 10.19804
588.9836, 9.823048
589.4657, 9.288132
589.9478, 9.124714
590.4299, 9.740269
590.9120, 10.28954
591.3942, 10.28008
591.8763, 9.895416
592.3584, 9.561138
592.8405, 9.476189
593.3226, 9.539558
593.8047, 9.655384
594.2869, 9.820129
594.7690, 9.822063
595.2511, 9.551777
595.7332, 9.236649
596.2153, 9.108730
596.6974, 9.105888
597.1796, 9.015949
597.6617, 8.716026
598.1438, 8.429596
598.6259, 8.255741
599.1080, 8.172569
599.5901, 8.150917
600.0723, 8.177868
600.5544, 8.191452
601.0365, 8.126846
601.5186, 7.984108
602.0007, 7.799629
602.4828, 7.444664
602.9650, 7.210880
603.4471, 7.331493
603.9292, 7.491745
604.4113, 7.301693
604.8934, 6.725956
605.3755, 6.169907
605.8577, 6.102192
606.3398, 6.369091
606.8219, 6.367142
607.3040, 6.048656
607.7861, 5.729294
608.2682, 5.537704
608.7504, 5.429592
609.2325, 5.349979
609.7146, 5.322868
610.1967, 5.207314
610.6788, 4.865273
611.1609, 4.508995
611.6431, 4.277641
612.1252, 4.183857
612.6073, 4.274906
613.0894, 4.592659
613.5715, 4.940800
614.0536, 4.857243
614.5358, 4.072227
615.0179, 3.549725
615.5000, 3.516766
615.9821, 3.523357
616.4642, 3.348446
616.9464, 3.085701
617.4285, 2.963669
617.9106, 3.103046
618.3927, 3.261456
618.8748, 3.083275
619.3569, 2.647682
619.8391, 2.423626
620.3212, 2.542923
620.8033, 2.744228
621.2854, 2.848270
621.7675, 2.848492
622.2496, 2.773380
622.7318, 2.530361
623.2139, 2.338924
623.6960, 2.277901
624.1781, 2.291851
624.6602, 2.338268
625.1423, 2.383549
625.6245, 2.437031
626.1066, 2.534664
626.5887, 2.644741
627.0708, 2.607758
627.5529, 2.368412
628.0350, 2.125435
628.5172, 1.898384
628.9993, 1.685795
629.4814, 1.472767
629.9635, 1.289040
630.4456, 1.233116
630.9277, 1.519596
631.4099, 1.821442
631.8920, 1.646450
632.3741, 1.115479
632.8562, 0.8430560
633.3383, 1.072887
633.8204, 1.462585
634.3026, 1.583729
634.7847, 1.374866
635.2668, 1.199100
635.7489, 1.013622
636.2310, 0.9666480
636.7131, 1.199211
637.1953, 1.489468
637.6774, 1.643665
638.1595, 1.628979
638.6416, 1.470440
639.1237, 1.070698
639.6058, 0.4981840
640.0880, 0.2503470
640.5701, 0.4226950
641.0522, 0.6019670
641.5343, 0.6349220
642.0164, 0.5810620
642.4985, 0.5290760
642.9807, 0.4817700
643.4628, 0.4414100
643.9449, 0.4151730
644.4270, 0.4113540
644.9091, 0.4078450
645.3912, 0.3867530
645.8734, 0.3814470
646.3555, 0.4254610
646.8376, 0.4892460
647.3197, 0.5048640
647.8018, 0.4533420
648.2839, 0.4040950
648.7661, 0.3241690
649.2482, 0.2940560
649.7303, 0.3735310
650.2124, 0.5105320
650.6945, 0.6309740
651.1766, 0.6959650
651.6588, 0.7142330
652.1409, 0.6490590
652.6230, 0.5405200
653.1051, 0.4961010
653.5872, 0.5180210
654.0693, 0.4485970
654.5515, 0.1635930
655.0336, 0.1901470
655.5157, 0.2874300
655.9978, 5.1956002E-02
656.4799, 0.2463610
656.9620, 0.1361730
657.4442, 1.2726000E-02
657.9263, 2.1267001E-02
658.4084, 5.8758002E-02
658.8905, 0.1148910
659.3726, 0.1018600
659.8547, 5.2166000E-02
660.3369, 1.6589999E-03
660.8190, 4.9121998E-02
661.3011, 0.1073570
661.7832, 0.2190590
662.2653, 0.2280620
662.7474, 6.7368001E-02
663.2296, 0.4749030
663.7117, 0.5968170
664.1938, 0.3327710
664.6759, 9.9322997E-02
665.1580, 3.4830000E-03
665.6401, 9.8569999E-03
666.1223, 0.1755790
666.6044, 0.4205700
667.0865, 0.5117870
667.5686, 0.3259700
668.0507, 3.4640001E-03
668.5328, 0.1939620
669.0150, 0.2435680
669.4971, 0.2664340
669.9792, 0.2729340
670.4613, 0.2391130
670.9434, 0.1219060
671.4255, 2.6848000E-02
671.9077, 0.1261630
672.3898, 0.1538730
672.8719, 0.1632540
673.3540, 0.2273790
673.8361, 0.2769510
674.3182, 0.1616710
674.8004, 0.1030310
675.2825, 0.3275110
675.7646, 0.4186290
676.2467, 0.3866620
676.7288, 0.2500230
677.2109, 0.1039580
677.6931, 0.2975500
678.1752, 0.1850970
678.6573, 8.9321002E-02
679.1394, 0.1658360
679.6215, 0.3287050
680.1036, 0.4457130
680.5858, 0.4735910
681.0679, 0.4272040
681.5500, 0.1994360
682.0321, 8.0611996E-02
682.5142, 4.6902001E-02
682.9963, 0.6408460
683.4785, 1.165562
683.9606, 1.349800
684.4427, 1.246544
684.9248, 0.9395070
685.4069, 0.2109680
685.8890, 0.1965100
686.3712, 3.3748999E-02
686.8533, 0.2221340
687.3354, 0.3977970
687.8175, 0.4597740
688.2996, 0.3418390
688.7817, 2.4372000E-02
689.2639, 0.2711680
689.7460, 0.1924400
690.2281, 0.1830480
690.7102, 0.2676540
691.1923, 4.0229999E-02
691.6744, 0.2675290
692.1566, 9.3006000E-02
692.6387, 0.2452930
693.1208, 0.2313040
693.6029, 0.2421720
694.0850, 0.5099560
694.5671, 0.2670940
695.0493, 1.9286999E-02
695.5314, 1.8626999E-02
696.0135, 0.2258000
696.4956, 0.2286570
696.9777, 9.6827999E-02
697.4598, 0.4756470
697.9420, 0.5240970
698.4241, 0.2583350
698.9062, 0.1118930
699.3883, 0.1289630
699.8704, 0.1432610
700.3525, 0.1063460
700.8347, 1.4507000E-02
701.3168, 0.1845210
701.7989, 0.5123830
702.2810, 0.6579820
702.7631, 0.3475420
703.2452, 3.2730000E-03
703.7274, 4.4101998E-02
704.2095, 9.6713997E-02
704.6916, 0.1926190
705.1737, 0.1677590
705.6558, 9.2834003E-02
706.1379, 4.2870000E-02
706.6201, 1.8046999E-02
707.1022, 4.3690000E-02
707.5843, 0.2080800
708.0664, 0.2109910
708.5485, 0.2423360
709.0306, 0.7502400
709.5128, 0.9203830
709.9949, 0.7651820
710.4770, 0.5912700
710.9591, 0.4942170
711.4412, 0.4140630
711.9233, 0.3222730
712.4055, 0.2118450
712.8876, 2.5607999E-02
713.3697, 0.2311330
713.8518, 0.3796500
714.3339, 0.2437930
714.8160, 0.1215360
715.2982, 0.3042410
715.7803, 0.2127800
716.2624, 0.1590880
716.7445, 0.2801360
717.2266, 0.3919720
717.7087, 0.3274730
718.1909, 0.1327820
718.6730, 1.1745000E-02
719.1551, 6.1496999E-02
719.6372, 0.1479610
720.1193, 0.2102810
720.6014, 0.2630350
721.0836, 0.3003850
721.5657, 0.3181610
722.0478, 0.2926290
722.5299, 0.1983150
723.0120, 6.4289004E-02
723.4941, 2.9980000E-03
723.9763, 9.3689999E-03
724.4584, 6.3392997E-02
724.9405, 0.2254910
725.4226, 0.3499790
725.9047, 0.3243600
726.3868, 0.1998670
726.8690, 0.1131940
727.3511, 0.1074680
727.8332, 0.1126670
728.3153, 5.1289000E-02
728.7974, 4.4979998E-03
729.2795, 0.1263660
729.7617, 0.3796620
730.2438, 0.5601080
730.7259, 0.5570980
731.2080, 0.4259300
731.6901, 0.2448810
732.1722, 4.3586999E-02
732.6544, 0.1527520
733.1365, 6.5086000E-02
733.6186, 0.2645340
734.1007, 0.3436930
734.5828, 0.3209950
735.0649, 0.1724430
735.5471, 0.1415820
736.0292, 0.3556480
736.5113, 0.2623860
736.9934, 6.9847003E-02
737.4755, 1.6937001E-02
737.9576, 4.6420999E-02
738.4398, 8.2759999E-02
738.9219, 0.4489860
739.4040, 0.7761190
739.8861, 0.6748730
740.3682, 0.1773570
740.8503, 3.7971001E-02
741.3325, 0.1646920
741.8146, 0.3279570
742.2967, 0.2899970
742.7788, 0.1852610
743.2609, 0.1032680
743.7430, 3.1792000E-02
744.2252, 1.2531000E-02
744.7073, 8.0092996E-02
745.1894, 7.8281000E-02
745.6715, 0.1561160
746.1536, 0.4572450
746.6357, 0.5178070
747.1179, 0.3094290
747.6000, 9.2579000E-02
748.0821, 6.7153998E-02
748.5642, 0.1695900
749.0463, 0.2652550
749.5284, 0.3965030
750.0106, 0.3337550
750.4927, 0.1532670
750.9748, 0.5718540
751.4569, 0.5383800
751.9390, 0.2109680
752.4211, 9.2312001E-02
752.9033, 0.2909430
753.3854, 0.5585290
753.8675, 1.231956
754.3496, 1.794159
754.8317, 1.596798
755.3138, 0.8594130
755.7960, 0.2956770
756.2781, 0.2313840
756.7602, 0.3992230
757.2423, 0.4175490
757.7244, 0.2930300
758.2065, 0.2901460
758.6887, 0.4407350
759.1708, 0.5996400
759.6529, 0.7491870
760.1350, 0.8375020
760.6171, 0.7499690
761.0992, 0.4678420
761.5814, 0.3213880
762.0635, 0.3991010
762.5456, 0.5476070
763.0277, 0.8257750
763.5098, 1.081158
763.9919, 1.046730
764.4741, 0.7323650
764.9562, 0.4757160
765.4383, 0.5655630
765.9204, 0.8503340
766.4025, 0.9904480
766.8846, 0.9683490
767.3668, 0.9313580
767.8489, 0.8915860
768.3310, 0.9112970
768.8131, 1.051609
769.2952, 1.295765
769.7773, 1.550636
770.2595, 1.925816
770.7416, 2.143158
771.2237, 2.088520
771.7058, 1.953903
772.1879, 1.817329
772.6700, 1.735172
773.1522, 1.759594
773.6343, 1.922108
774.1164, 2.111443
774.5985, 2.210590
775.0806, 2.261936
775.5627, 2.388588
776.0449, 2.584770
776.5270, 2.693562
777.0091, 2.648609
777.4912, 2.524239
777.9733, 2.426376
778.4554, 2.355026
778.9376, 2.305893
779.4197, 2.185303
779.9019, 2.221352
780.3840, 2.614864
780.8661, 3.065243
781.3482, 3.295753
781.8303, 3.317322
782.3124, 3.320648
782.7946, 3.382381
783.2767, 3.454430
783.7588, 3.499077
784.2409, 3.526020
784.7230, 3.516006
785.2051, 3.488018
785.6873, 3.578297
786.1694, 3.897961
786.6515, 4.332932
787.1336, 4.594383
787.6157, 4.661915
788.0978, 4.647301
788.5800, 4.472454
789.0621, 4.363182
789.5442, 4.481773
790.0263, 4.726112
790.5084, 4.950932
790.9905, 5.166405
791.4727, 5.317337
791.9548, 5.290874
792.4369, 5.295753
792.9190, 5.549580
793.4011, 5.891766
793.8832, 6.009174
794.3654, 5.865799
794.8475, 5.757526
795.3296, 6.004318
795.8117, 6.420448
796.2938, 6.450798
796.7759, 6.103394
797.2581, 5.879757
797.7402, 5.898872
798.2223, 6.064854
798.7044, 6.344574
799.1865, 6.699696
799.6686, 6.896542
800.1508, 6.849831
800.6329, 6.762520
801.1150, 6.569611
801.5971, 6.405239
802.0792, 6.403496
802.5613, 6.467609
803.0435, 6.398067
803.5256, 6.127167
804.0077, 5.866383
804.4898, 5.782810
804.9719, 5.799706
805.4540, 5.828495
805.9362, 5.857990
806.4183, 5.868950
806.9004, 5.854900
807.3825, 5.821316
807.8646, 5.773689
808.3467, 5.710659
808.8289, 5.627514
809.3110, 5.544109
809.7931, 5.431625
810.2752, 5.198830
810.7573, 5.011944
811.2394, 5.059475
811.7216, 5.264278
812.2037, 5.367577
812.6858, 5.261120
813.1679, 5.187809
813.6500, 5.250759
814.1321, 5.361408
814.6143, 5.477287
815.0964, 5.569836
815.5785, 5.591640
816.0606, 5.523659
816.5427, 5.413395
817.0248, 5.288460
817.5070, 5.166721
817.9891, 5.163918
818.4712, 5.279785
818.9533, 5.185253
819.4354, 4.699394
819.9175, 4.220966
820.3997, 4.260883
820.8818, 4.806103
821.3639, 5.066345
821.8460, 4.698143
822.3281, 4.557262
822.8102, 4.954288
823.2924, 5.394894
823.7745, 5.514194
824.2566, 5.419491
824.7387, 5.450012
825.2208, 5.772114
825.7029, 5.999119
826.1851, 5.806595
826.6672, 5.455971
827.1493, 5.196873
827.6314, 5.058243
828.1135, 5.074577
828.5956, 5.250984
829.0778, 5.443562
829.5599, 5.471443
830.0420, 5.358082
830.5241, 5.225346
831.0062, 5.044624
831.4883, 5.074146
831.9705, 5.499401
832.4526, 5.920567
832.9347, 5.897850
833.4168, 5.495403
833.8989, 5.337345
834.3810, 5.619446
834.8632, 5.836857
835.3453, 5.853386
835.8274, 5.880947
836.3095, 6.112751
836.7916, 6.438046
837.2737, 6.639549
837.7559, 6.652195
838.2380, 6.564034
838.7201, 6.357399
839.2022, 6.141819
839.6843, 6.088341
840.1664, 6.158241
840.6486, 6.199142
841.1307, 6.168808
841.6128, 6.171902
842.0949, 6.323421
842.5770, 6.583694
843.0591, 6.744167
843.5413, 6.757858
844.0234, 6.941547
844.5055, 7.480064
844.9876, 7.940300
845.4697, 7.960449
845.9518, 7.695885
846.4340, 7.609711
846.9161, 7.798393
847.3982, 7.900005
847.8803, 7.806957
848.3624, 7.694542
848.8445, 7.708477
849.3267, 7.728313
849.8088, 7.504528
850.2909, 7.041893
850.7730, 6.747829
851.2551, 6.999035
851.7372, 7.438446
852.2194, 7.726990
852.7015, 7.848743
853.1836, 7.682716
853.6657, 7.247307
854.1478, 6.874180
854.6299, 6.795544
855.1121, 6.887646
855.5942, 6.866917
856.0763, 6.714554
856.5584, 6.603592
857.0405, 6.532417
857.5226, 6.506481
858.0048, 6.586262
858.4869, 6.703346
858.9690, 6.702393
859.4511, 6.549431
859.9332, 6.428005
860.4153, 6.277287
860.8975, 6.257687
861.3796, 6.704052
861.8617, 7.082638
862.3438, 6.772282
862.8259, 5.966595
863.3080, 5.365002
863.7902, 5.274532
864.2723, 5.377811
864.7544, 5.463821
865.2365, 5.513042
865.7186, 5.502106
866.2007, 5.444115
866.6829, 5.336071
867.1650, 5.160812
867.6471, 5.008335
868.1292, 5.016510
868.6113, 5.154572
869.0934, 5.179539
869.5756, 5.080166
870.0577, 5.032490
870.5398, 5.105244
871.0219, 5.160278
871.5040, 5.049381
871.9861, 4.833118
872.4683, 4.715569
872.9504, 4.747997
873.4325, 4.788334
873.9146, 4.892155
874.3967, 4.948982
874.8788, 4.863438
875.3610, 4.725945
875.8431, 4.635681
876.3252, 4.607246
876.8073, 4.618835
877.2894, 4.716396
877.7715, 4.795910
878.2537, 4.750443
878.7358, 4.635876
879.2179, 4.525661
879.7000, 4.440826
880.1821, 4.396542
880.6642, 4.401508
881.1464, 4.451836
881.6285, 4.605591
882.1106, 4.813431
882.5927, 4.738033
883.0748, 4.355499
883.5569, 4.043018
884.0391, 3.942581
884.5212, 3.972588
885.0033, 4.057838
885.4854, 4.191456
885.9675, 4.233620
886.4496, 4.115974
886.9318, 4.043739
887.4139, 4.106583
887.8960, 4.153233
888.3781, 4.128967
888.8602, 4.021656
889.3423, 3.749519
889.8245, 3.201069
890.3066, 2.945908
890.7887, 3.559639
891.2708, 4.060120
891.7529, 3.653652
892.2350, 2.891167
892.7172, 2.570389
893.1993, 2.760773
893.6814, 2.948273
894.1635, 2.795151
894.6456, 2.920948
895.1277, 2.611893
895.6099, 2.802040
896.0920, 2.758648
896.5741, 2.480095
897.0562, 2.245644
897.5383, 2.191330
898.0204, 2.155663
898.5026, 1.870789
898.9847, 1.368397
899.4668, 1.088394
899.9489, 1.070744
900.4310, 1.035942
900.9131, 0.9028700
901.3953, 0.7543450
901.8774, 0.6377830
902.3595, 0.5680890
902.8416, 0.6238900
903.3237, 1.018414
903.8058, 1.149139
904.2880, 0.7351800
904.7701, 0.3933530
905.2522, 0.4411200
905.7343, 0.6567230
906.2164, 0.7827720
906.6985, 0.7896730
907.1807, 0.7293930
907.6628, 0.5338020
908.1449, 0.3769800
908.6270, 0.3825720
909.1091, 0.4578630
909.5912, 0.5440250
910.0734, 0.5991550
910.5555, 0.5336000
911.0376, 0.3036580
911.5197, 4.5855999E-02
912.0018, 9.4028004E-02
912.4839, 0.1573410
912.9661, 0.2425080
913.4482, 0.3352360
913.9303, 0.3061370
914.4124, 0.1276630
914.8945, 6.4002998E-02
915.3766, 0.3893010
915.8588, 0.9189680
916.3409, 1.044357
916.8230, 0.7199860
917.3051, 0.4085310
917.7872, 0.1216470
918.2693, 5.2700002E-02
918.7515, 2.0248000E-02
919.2336, 8.0879003E-02
919.7157, 8.2470002E-03
920.1978, 0.2763670
920.6799, 0.3526570
921.1620, 1.3500000E-03
921.6442, 0.2556800
922.1263, 0.2469440
922.6084, 0.2183380
923.0905, 0.4298780
923.5726, 0.7327000
924.0547, 0.7212490
924.5369, 0.2073060
925.0190, 0.1432460
925.5011, 0.1535190
925.9832, 0.4312130
926.4653, 9.2510000E-02
926.9474, 0.4650990
927.4296, 0.5883330
927.9117, 0.2578740
928.3938, 1.9324999E-02
928.8759, 0.2414890
929.3580, 0.5584680
929.8401, 0.5644680
930.3223, 0.3777810
930.8044, 0.1521530
931.2865, 5.5450000E-02
931.7686, 6.9335997E-02
932.2507, 0.1746140
932.7328, 0.4425010
933.2150, 0.4642600
933.6971, 0.2921560
934.1792, 8.6181998E-02
934.6613, 0.1557880
935.1434, 0.2373810
935.6255, 0.1014060
936.1077, 6.7313999E-02
936.5898, 0.1513860
937.0719, 0.1862410
937.5540, 0.2457700
938.0361, 0.3351550
938.5182, 0.3834610
939.0004, 0.3727840
939.4825, 0.3616180
939.9646, 0.3472370
940.4467, 0.3570060
940.9288, 0.4412500
941.4109, 0.5761600
941.8931, 0.6563570
942.3752, 0.6637570
942.8573, 0.6442180
943.3394, 0.5411190
943.8215, 0.4836620
944.3036, 0.5952760
944.7858, 0.7523880
945.2679, 0.7681580
945.7500, 0.6384620
946.2321, 0.5682720
946.7142, 0.7185710
947.1964, 0.8589520
947.6785, 0.8150940
948.1606, 0.7081260
948.6427, 0.6379280
949.1248, 0.6365410
949.6069, 0.7701760
950.0891, 1.051842
950.5712, 1.252117
951.0533, 1.065407
951.5354, 0.7272030
952.0175, 0.6081470
952.4996, 0.6624430
952.9818, 0.7923470
953.4639, 0.9586280
953.9460, 1.045444
954.4281, 0.9790800
954.9102, 0.8923720
955.3923, 1.038467
955.8745, 1.391994
956.3566, 1.547035
956.8387, 1.489346
957.3208, 1.470205
957.8029, 1.565083
958.2850, 1.703835
958.7672, 1.834938
959.2493, 1.945887
959.7314, 1.987169
960.2135, 1.955406
960.6956, 1.879475
961.1777, 1.698593
961.6599, 1.583336
962.1420, 1.597193
962.6241, 1.724026
963.1062, 2.012747
963.5883, 2.466034
964.0704, 2.670692
964.5526, 2.427422
965.0347, 2.218977
965.5168, 1.986708
965.9989, 1.914055
966.4810, 2.285124
966.9631, 2.782173
967.4453, 2.852655
967.9274, 2.418362
968.4095, 2.131937
968.8916, 2.228611
969.3737, 2.455359
969.8558, 2.890009
970.3380, 3.236563
970.8201, 3.107521
971.3022, 2.665237
971.7843, 2.377501
972.2664, 2.412689
972.7485, 2.459421
973.2307, 2.220274
973.7128, 1.935108
974.1949, 1.916504
974.6770, 2.055677
975.1591, 2.110302
975.6412, 2.060148
976.1234, 2.041451
976.6055, 2.131510
977.0876, 2.216640
977.5698, 2.145315
978.0519, 1.989269
978.5340, 1.881863
979.0161, 1.829716
979.4982, 1.861773
979.9803, 1.987528
980.4625, 2.049763
980.9446, 1.894495
981.4267, 1.633003
981.9088, 1.549273
982.3909, 1.650808
982.8730, 1.746515
983.3552, 1.799416
983.8373, 1.798445
984.3194, 1.770033
984.8015, 1.731941
985.2836, 1.710108
985.7657, 1.684612
986.2479, 1.537987
986.7300, 1.254004
987.2121, 0.9756550
987.6942, 0.6508330
988.1763, 0.5335770
988.6584, 0.8289970
989.1406, 1.250216
989.6227, 1.450994
990.1048, 1.443211
990.5869, 1.263552
991.0690, 0.7149490
991.5511, 0.3800600
992.0333, 0.4616640
992.5154, 0.5677200
992.9975, 0.5020100
993.4796, 0.3543190
993.9617, 0.2196330
994.4438, 8.1244998E-02
994.9260, 7.7887997E-02
995.4081, 0.3027650
995.8902, 0.5467610
996.3723, 0.8306200
996.8544, 1.055538
997.3365, 1.175901
997.8187, 1.182243
998.3008, 1.031178
998.7829, 0.6964700
999.2650, 0.4247470
999.7471, 0.3250010
1000.229, 0.2633300
1000.711, 0.1530210
1001.193, 7.0518002E-02
1001.676, 0.1000420
1002.158, 0.2218570
1002.640, 0.3998550
1003.122, 0.6388050
1003.604, 0.7551800
1004.086, 0.5461750
1004.568, 0.2770230
1005.050, 0.1465280
1005.533, 9.8624997E-02
1006.015, 2.5412001E-02
1006.497, 5.3488001E-02
1006.979, 6.1169998E-03
1007.461, 0.2854210
1007.943, 0.5311600
1008.425, 0.4843850
1008.907, 0.3040620
1009.389, 0.1535780
1009.872, 4.7377001E-02
1010.354, 2.8654000E-02
1010.836, 7.8114003E-02
1011.318, 5.1895000E-02
1011.800, 0.1537690
1012.282, 0.2871360
1012.764, 0.1375940
1013.246, 0.7895240
1013.729, 0.8845480
1014.211, 0.5425760
1014.693, 0.2668970
1015.175, 0.1797350
1015.657, 0.1978090
1016.139, 0.2777080
1016.621, 0.3448770
1017.103, 0.1977230
1017.585, 7.8162998E-02
1018.068, 4.7297999E-02
1018.550, 0.2685700
1019.032, 0.5462440
1019.514, 0.6927600
1019.996, 0.6615810
1020.478, 0.3842660
1020.960, 1.2777000E-02
1021.442, 5.5608999E-02
1021.924, 0.1630330
1022.407, 0.2036300
1022.889, 3.7133999E-02
1023.371, 5.8311000E-02
1023.853, 3.6390000E-03
1024.335, 0.1855850
1024.817, 0.4908980
1025.299, 0.8126410
1025.781, 0.7536260
1026.264, 0.2286850
1026.746, 9.7446002E-02
1027.228, 0.4779000
1027.710, 0.8081950
1028.192, 0.9070720
1028.674, 0.8741910
1029.156, 0.7788330
1029.638, 0.6463760
1030.120, 0.5774650
1030.603, 0.5736350
1031.085, 0.6343000
1031.567, 0.7868330
1032.049, 0.9429170
1032.531, 1.097115
1033.013, 1.201653
1033.495, 1.183355
1033.977, 1.076780
1034.459, 1.068220
1034.942, 0.9974440
1035.424, 0.8510740
1035.906, 0.9199700
1036.388, 0.8400630
1036.870, 0.8566680
1037.352, 0.8218360
1037.834, 0.9102120
1038.316, 0.9494820
1038.799, 0.9764350
1039.281, 0.9478530
1039.763, 0.9905970
1040.245, 1.225609
1040.727, 1.375820
1041.209, 1.308842
1041.691, 1.153769
1042.173, 0.9825440
1042.656, 0.8178200
1043.138, 0.7874890
1043.620, 1.020840
1044.102, 1.182642
1044.584, 1.136490
1045.066, 1.066153
1045.548, 0.9911580
1046.030, 0.9534650
1046.512, 1.037312
1046.995, 1.197132
1047.477, 1.222242
1047.959, 0.9908070
1048.441, 0.8561380
1048.923, 0.9933340
1049.405, 1.085709
1049.887, 0.9147850
1050.369, 0.7127190
1050.851, 0.7094170
1051.334, 0.8864420
1051.816, 1.135042
1052.298, 1.535944
1052.780, 1.734804
1053.262, 1.481569
1053.744, 1.217878
1054.226, 1.173584
1054.708, 1.195501
1055.191, 1.082230
1055.673, 0.8876080
1056.155, 0.8633770
1056.637, 1.142111
1057.119, 1.314245
1057.601, 1.093824
1058.083, 0.9323790
1058.565, 1.162142
1059.047, 1.474239
1059.530, 1.575521
1060.012, 1.478046
1060.494, 1.291441
1060.976, 1.003893
1061.458, 0.8045410
1061.940, 0.8018780
1062.422, 0.8486420
1062.904, 0.9083290
1063.386, 0.9526080
1063.869, 0.9425750
1064.351, 0.8922730
1064.833, 0.8509540
1065.315, 0.8307190
1065.797, 0.8419570
1066.279, 0.9483260
1066.761, 1.005444
1067.243, 0.8814430
1067.726, 0.7169900
1068.208, 0.6451740
1068.690, 0.6579250
1069.172, 0.7005230
1069.654, 0.7558480
1070.136, 0.7854960
1070.618, 0.8477380
1071.100, 0.8634280
1071.583, 0.7102130
1072.065, 0.5543670
1072.547, 0.5574530
1073.029, 0.6801930
1073.511, 0.8407630
1073.993, 1.018522
1074.475, 1.105783
1074.957, 0.9566590
1075.439, 0.8161530
1075.922, 0.8601000
1076.404, 0.9558140
1076.886, 0.9716910
1077.368, 0.9452900
1077.850, 0.9684100
1078.332, 1.053007
1078.814, 1.130045
1079.296, 1.206167
1079.779, 1.241192
1080.261, 1.244064
1080.743, 1.144201
1081.225, 0.7313350
1081.707, 0.2729550
1082.189, 0.2323190
1082.671, 0.6067980
1083.153, 0.8240490
1083.635, 0.5243170
1084.118, 0.2917580
1084.600, 0.5314100
1085.082, 0.8051680
1085.564, 0.7434670
1086.046, 0.5316580
1086.528, 0.4310820
1087.010, 0.4651660
1087.492, 0.5436920
1087.974, 0.6752240
1088.457, 0.7570610
1088.939, 0.7323150
1089.421, 0.6625310
1089.903, 0.5600050
1090.385, 0.4511470
1090.867, 0.3657170
1091.349, 0.3003900
1091.831, 0.2200970
1092.314, 9.3822002E-02
1092.796, 4.4273000E-02
1093.278, 0.1346680
1093.760, 0.2920650
1094.242, 0.5897370
1094.724, 0.8411960
1095.206, 0.8239540
1095.688, 0.6220260
1096.171, 0.4674220
1096.653, 0.4038540
1097.135, 0.4060670
1097.617, 0.4238260
1098.099, 0.5622600
1098.581, 1.087479
1099.063, 1.537823
1099.545, 1.539961
1100.027, 1.200308
1100.510, 0.6337680
1100.992, 0.1541330
1101.474, 0.5235690
1101.956, 9.4031997E-02
1102.438, 0.5401290
1102.920, 0.3085160
1103.402, 3.4332000E-02
1103.884, 0.1440530
1104.366, 0.4397010
1104.849, 0.6395420
1105.331, 0.7208750
1105.813, 0.7555940
1106.295, 0.7544670
1106.777, 0.7076680
1107.259, 0.5357460
1107.741, 0.4104460
1108.223, 0.4990900
1108.706, 0.6107330
1109.188, 0.4733310
1109.670, 0.1487240
1110.152, 5.9320000E-03
1110.634, 0.1508960
1111.116, 0.2887230
1111.598, 0.4299280
1112.080, 0.5273380
1112.563, 0.5663200
1113.045, 0.5576460
1113.527, 0.4748100
1114.009, 0.3586830
1114.491, 0.3212200
1114.973, 0.3816970
1115.455, 0.4283660
1115.937, 0.4466250
1116.419, 0.4789910
1116.901, 0.5543920
1117.384, 0.6138650
1117.866, 0.6231880
1118.348, 0.5942270
1118.830, 0.5494270
1119.312, 0.4886360
1119.794, 0.3612610
1120.276, 5.8249000E-02
1120.758, 7.9199998E-04
1121.241, 0.3889270
1121.723, 0.6607510
1122.205, 0.5074830
1122.687, 0.2186530
1123.169, 0.1343750
1123.651, 0.2200970
1124.133, 0.2817590
1124.615, 0.3175510
1125.098, 0.3467860
1125.580, 0.3885960
1126.062, 0.3166560
1126.544, 3.0417999E-02
1127.026, 0.1401250
1127.508, 0.1332240
1127.990, 0.6173590
1128.472, 0.7007100
1128.954, 0.3692360
1129.437, 0.1582010
1129.919, 6.8191998E-02
1130.401, 0.1060560
1130.883, 0.2863690
1131.365, 0.4413700
1131.847, 0.4733140
1132.329, 0.3982560
1132.811, 0.1884400
1133.293, 8.2874000E-02
1133.776, 9.0960003E-03
1134.258, 0.3646070
1134.740, 0.6323380
1135.222, 0.7478500
1135.704, 0.8003690
1136.186, 0.8264620
1136.668, 0.8506580
1137.150, 0.9224870
1137.633, 0.9445670
1138.115, 0.6259800
1138.597, 0.1142830
1139.079, 0.1437380
1139.561, 0.1611580
1140.043, 7.9365000E-02
1140.525, 5.0834998E-02
1141.007, 0.1635270
1141.490, 0.2130990
1141.972, 0.2448270
1142.454, 0.3680060
1142.936, 0.4748230
1143.418, 0.2928310
1143.900, 4.2760000E-03
1144.382, 2.4284000E-02
1144.864, 0.2168670
1145.346, 0.4483530
1145.828, 0.5637650
1146.311, 0.6231780
1146.793, 0.6526850
1147.275, 0.6691700
1147.757, 0.6811560
1148.239, 0.6940460
1148.721, 0.7449210
1149.203, 0.7896900
1149.685, 0.7222940
1150.168, 0.5404780
1150.650, 0.3779470
1151.132, 0.2496660
1151.614, 0.2571770
1152.096, 0.6385100
1152.578, 0.9705470
1153.060, 0.8673250
1153.542, 0.6215420
1154.025, 0.6046960
1154.507, 0.7714330
1154.989, 0.8482700
1155.471, 0.7680850
1155.953, 0.6608490
1156.435, 0.5358390
1156.917, 0.4165270
1157.399, 0.2501450
1157.881, 0.1541840
1158.364, 0.2744450
1158.846, 0.4749360
1159.328, 0.5307670
1159.810, 0.4866370
1160.292, 0.4584330
1160.774, 0.5046580
1161.256, 0.4467350
1161.738, 0.1677400
1162.220, 2.6667001E-02
1162.703, 1.2285000E-02
1163.185, 0.1174200
1163.667, 0.3332840
1164.149, 0.5602950
1164.631, 0.5230430
1165.113, 0.1540360
1165.595, 7.3771000E-02
1166.077, 0.1537690
1166.560, 9.0538003E-02
1167.042, 0.1564640
1167.524, 0.3341560
1168.006, 0.2761820
1168.488, 0.1455480
1168.970, 0.1868290
1169.452, 0.3629040
1169.934, 0.5113240
1170.417, 0.6242100
1170.899, 0.5228560
1171.381, 0.2135870
1171.863, 8.2057998E-02
1172.345, 0.2581180
1172.827, 0.4791700
1173.309, 0.5443900
1173.791, 0.5214650
1174.273, 0.4993110
1174.755, 0.4839630
1175.238, 0.4979630
1175.720, 0.5320820
1176.202, 0.5664580
1176.684, 0.5919300
1177.166, 0.5746990
1177.648, 0.5015510
1178.130, 0.4732110
1178.612, 0.6321110
1179.095, 0.8165590
1179.577, 0.8989510
1180.059, 0.8783190
1180.541, 0.6372680
1181.023, 0.3424570
1181.505, 0.3761560
1181.987, 0.7267480
1182.469, 0.8921050
1182.952, 0.5604760
1183.434, 0.3406700
1183.916, 0.6847950
1184.398, 0.9919620
1184.880, 0.8145290
1185.362, 0.5455210
1185.844, 0.6174700
1186.326, 0.8778040
1186.808, 0.8723720
1187.291, 0.5105040
1187.773, 0.3042390
1188.255, 0.4112660
1188.737, 0.5086840
1189.219, 0.5697170
1189.701, 0.6037100
1190.183, 0.6181090
1190.665, 0.6008490
1191.147, 0.5176850
1191.630, 0.4005170
1192.112, 0.3619790
1192.594, 0.4208320
1193.076, 0.4480920
1193.558, 0.4288330
1194.040, 0.4715310
1194.522, 0.6139030
1195.004, 0.7086280
1195.487, 0.6660390
1195.969, 0.5907760
1196.451, 0.6483270
1196.933, 0.7683090
1197.415, 0.6557450
1197.897, 0.6822680
1198.379, 0.7055870
1198.861, 0.5661890
1199.344, 0.6645150
1199.826, 0.5588170
1200.308, 0.3848880
1200.790, 0.2252030
1201.272, 9.3996003E-02
1201.754, 7.8910002E-03
1202.236, 5.6221001E-02
1202.718, 1.8456001E-02
1203.200, 9.9812999E-02
1203.682, 0.3536280
1204.165, 0.6672170
1204.647, 0.8539920
1205.129, 0.8603320
1205.611, 0.7579570
1206.093, 0.4995480
1206.575, 0.2885650
1207.057, 0.2561450
1207.539, 0.2525230
1208.022, 0.1056770
1208.504, 2.4099000E-02
1208.986, 0.1380560
1209.468, 0.4918730
1209.950, 0.6090010
1210.432, 0.3430040
1210.914, 0.2507550
1211.396, 0.5358050
1211.879, 0.7426410
1212.361, 0.7841870
1212.843, 0.7750870
1213.325, 0.7644630
1213.807, 0.7384450
1214.289, 0.6617640
1214.771, 0.5628150
1215.253, 0.6037810
1215.735, 0.8131900
1216.218, 0.8896050
1216.700, 0.8172530
1217.182, 0.7329580
1217.664, 0.6664330
1218.146, 0.6590920
1218.628, 0.7435530
1219.110, 0.7934000
1219.592, 0.6102870
1220.074, 0.3076610
1220.557, 0.1421410
1221.039, 8.5896000E-02
1221.521, 7.6443002E-02
1222.003, 0.1020790
1222.485, 0.1473080
1222.967, 0.2125910
1223.449, 0.3567240
1223.931, 0.6477010
1224.414, 0.8003830
1224.896, 0.3986550
1225.378, 1.8339001E-02
1225.860, 1.2245000E-02
1226.342, 0.2001290
1226.824, 0.4614200
1227.306, 0.6971990
1227.788, 0.8510440
1228.271, 0.9060310
1228.753, 0.7794090
1229.235, 0.2466980
1229.717, 9.3052000E-02
1230.199, 2.2690000E-02
1230.681, 6.6197999E-02
1231.163, 2.2608001E-02
1231.645, 8.6169997E-03
1232.127, 8.1441998E-02
1232.609, 0.2525960
1233.092, 0.4335960
1233.574, 0.6243880
1234.056, 0.8267480
1234.538, 1.073021
1235.020, 0.9814820
1235.502, 0.4822650
1235.984, 0.2119460
1236.466, 0.3948550
1236.949, 0.7097610
1237.431, 0.9219020
1237.913, 1.023020
1238.395, 0.9430330
1238.877, 0.7702060
1239.359, 0.7424470
1239.841, 0.7847230
1240.323, 0.6940990
1240.806, 0.4964310
1241.288, 0.3289430
1241.770, 0.2419930
1242.252, 0.2722640
1242.734, 0.5100380
1243.216, 0.6910760
1243.698, 0.5921500
1244.180, 0.4166260
1244.662, 0.2303560
1245.145, 0.1038630
1245.627, 0.1535130
1246.109, 0.2986720
1246.591, 0.3317410
1247.073, 0.2259600
1247.555, 0.1333750
1248.037, 2.1090999E-02
1248.519, 6.5520001E-03
1249.001, 0.1549630
1249.484, 0.2821390
1249.966, 0.3466400
1250.448, 0.3204800
1250.930, 0.1515710
1251.412, 5.3452998E-02
1251.894, 8.0243997E-02
1252.376, 4.6707001E-02
1252.858, 0.1454960
1253.341, 0.2175410
1253.823, 0.3007620
1254.305, 0.3818240
1254.787, 0.3755800
1255.269, 0.2573760
1255.751, 0.1344680
1256.233, 6.4401999E-02
1256.715, 4.1239001E-02
1257.198, 4.1311000E-02
1257.680, 6.7947000E-02
1258.162, 0.1245880
1258.644, 0.2018200
1259.126, 0.2972030
1259.608, 0.4020330
1260.090, 0.5406110
1260.572, 0.6937690
1261.054, 0.6770110
1261.536, 0.2932590
1262.019, 6.7515999E-02
1262.501, 0.2887400
1262.983, 0.4160820
1263.465, 0.1450370
1263.947, 8.7692000E-02
1264.429, 2.5126001E-02
1264.911, 0.2992460
1265.393, 0.4822600
1265.876, 0.5679800
1266.358, 0.4487080
1266.840, 9.8219000E-02
1267.322, 1.5825000E-02
1267.804, 0.2816200
1268.286, 0.4092620
1268.768, 0.2948950
1269.250, 0.1473730
1269.733, 7.9576001E-02
1270.215, 9.1569997E-02
1270.697, 0.2178690
1271.179, 0.3732530
1271.661, 0.4225410
1272.143, 0.4362160
1272.625, 0.5207880
1273.107, 0.6445050
1273.589, 0.7040060
1274.072, 0.7656960
1274.554, 0.7500480
1275.036, 0.6345210
1275.518, 0.4921700
1276.000, 0.2346730
1276.482, 7.9088002E-02
1276.964, 0.1869450
1277.446, 0.3080580
1277.929, 0.2982480
1278.411, 0.2845670
1278.893, 0.4170060
1279.375, 0.3314860
1279.857, 0.5376260
1280.339, 0.2379280
1280.821, 5.7551999E-02
1281.303, 1.7930000E-03
1281.786, 0.1128200
1282.268, 0.0000000E+00
##END=



