##NAMES=Mozartite
##RRUFFID=R180002
##IDEAL CHEMISTRY=CaMn^3+^SiO_4_(OH)
##LOCALITY=N'Chwaning III mine, Kalahari manganese field, Northern Cape Province, South Africa
##OWNER=RRUFF
##SOURCE=Ludi von Bezing
##DESCRIPTION=Red granular or pseudo-rhombohedral crystals, associated with colorless elongated celestine, calcite, and quartz (two pieces)
##STATUS=The identification of this mineral has been confirmed only by single crystal X-ray diffraction.
##URL=rruff.info/R180002
102.6002, 0.0000000E+00
103.0823, 0.5238650
103.5645, 1.149193
104.0466, 1.905235
104.5287, 1.183365
105.0108, 0.3123470
105.4929, 0.6676410
105.9750, 0.5587010
106.4572, 1.153671
106.9393, 4.699310
107.4214, 7.557297
107.9035, 10.13747
108.3856, 11.88504
108.8677, 12.14508
109.3499, 9.330925
109.8320, 6.607674
110.3141, 4.547165
110.7962, 3.147629
111.2783, 2.344429
111.7604, 2.256607
112.2426, 2.721588
112.7247, 3.488831
113.2068, 4.748505
113.6889, 6.120300
114.1710, 7.364700
114.6531, 8.111786
115.1353, 9.385544
115.6174, 12.16386
116.0995, 15.76543
116.5816, 18.50218
117.0637, 18.84039
117.5458, 18.60309
118.0280, 19.09908
118.5101, 21.38484
118.9922, 23.49239
119.4743, 24.10210
119.9564, 23.49620
120.4385, 22.92805
120.9207, 22.79332
121.4028, 23.17686
121.8849, 24.16348
122.3670, 25.71239
122.8491, 27.97357
123.3312, 31.84801
123.8134, 37.21400
124.2955, 41.60187
124.7776, 42.07611
125.2597, 40.10675
125.7418, 38.66911
126.2239, 39.51961
126.7061, 41.50999
127.1882, 42.51701
127.6703, 42.43263
128.1524, 42.55183
128.6345, 44.60391
129.1166, 48.22458
129.5988, 51.76408
130.0809, 54.39325
130.5630, 56.30959
131.0451, 58.20921
131.5272, 60.12769
132.0093, 61.92334
132.4915, 63.30844
132.9736, 64.28290
133.4557, 65.31439
133.9378, 66.67633
134.4199, 68.35159
134.9020, 69.97157
135.3842, 71.46284
135.8663, 72.93231
136.3484, 74.72385
136.8305, 76.88013
137.3126, 79.12486
137.7947, 81.16307
138.2769, 82.90500
138.7590, 85.21107
139.2411, 88.52072
139.7232, 92.36195
140.2053, 94.66057
140.6874, 95.12151
141.1696, 94.71872
141.6517, 94.03502
142.1338, 92.93600
142.6159, 91.94733
143.0980, 91.13142
143.5801, 90.49547
144.0623, 89.99045
144.5444, 89.68631
145.0265, 89.45894
145.5086, 89.21132
145.9907, 88.88599
146.4728, 88.64476
146.9550, 88.52382
147.4371, 88.53087
147.9192, 88.57121
148.4013, 88.76102
148.8834, 88.91391
149.3655, 88.84415
149.8477, 87.71284
150.3298, 87.24640
150.8119, 87.93246
151.2940, 89.99687
151.7761, 91.87915
152.2583, 93.27519
152.7404, 94.53400
153.2225, 96.03613
153.7046, 97.97978
154.1867, 100.0064
154.6688, 102.0477
155.1510, 104.1483
155.6331, 106.1719
156.1152, 108.0354
156.5973, 109.8187
157.0794, 111.6087
157.5615, 113.3773
158.0437, 115.2239
158.5258, 117.2446
159.0079, 119.5601
159.4900, 121.7177
159.9721, 123.4388
160.4542, 124.7834
160.9364, 126.2521
161.4185, 127.8756
161.9006, 129.7083
162.3827, 131.8682
162.8648, 134.5924
163.3469, 137.0862
163.8291, 139.2439
164.3112, 140.9569
164.7933, 142.0317
165.2754, 141.8195
165.7575, 141.2509
166.2396, 141.0769
166.7218, 141.6846
167.2039, 142.2589
167.6860, 142.4020
168.1681, 142.1396
168.6502, 141.4926
169.1323, 140.0110
169.6145, 138.3726
170.0966, 137.3723
170.5787, 137.7331
171.0608, 137.9704
171.5429, 136.6344
172.0250, 133.9752
172.5072, 131.2585
172.9893, 129.4420
173.4714, 127.9218
173.9535, 125.8614
174.4356, 122.9592
174.9177, 119.5457
175.3999, 115.7498
175.8820, 111.5919
176.3641, 107.5365
176.8462, 103.8697
177.3283, 100.4800
177.8104, 97.12486
178.2926, 93.68010
178.7747, 90.33928
179.2568, 87.44508
179.7389, 85.01483
180.2210, 82.72537
180.7031, 80.41353
181.1853, 78.06480
181.6674, 75.69855
182.1495, 73.37360
182.6316, 70.99661
183.1137, 68.32146
183.5958, 65.31212
184.0780, 62.49515
184.5601, 60.35379
185.0422, 58.83533
185.5243, 57.53763
186.0064, 56.45692
186.4885, 55.45917
186.9707, 54.25256
187.4528, 52.84615
187.9349, 51.38962
188.4170, 49.88383
188.8991, 48.32629
189.3812, 46.95320
189.8634, 45.95335
190.3455, 45.26819
190.8276, 44.53249
191.3097, 43.72350
191.7918, 42.94937
192.2739, 42.35812
192.7561, 41.93666
193.2382, 41.51700
193.7203, 41.07890
194.2024, 40.59950
194.6845, 39.88475
195.1666, 38.87933
195.6488, 37.82483
196.1309, 36.97311
196.6130, 36.31152
197.0951, 35.86745
197.5772, 35.72122
198.0593, 35.83736
198.5415, 35.78754
199.0236, 35.51712
199.5057, 35.23891
199.9878, 35.22568
200.4699, 35.49815
200.9520, 35.92944
201.4342, 36.51227
201.9163, 37.24916
202.3984, 38.02866
202.8805, 38.91150
203.3626, 39.73137
203.8447, 40.27609
204.3269, 40.53763
204.8090, 40.56409
205.2911, 40.31113
205.7732, 39.76807
206.2553, 39.33331
206.7374, 39.11322
207.2196, 38.82162
207.7017, 38.00616
208.1838, 36.52948
208.6659, 34.97835
209.1480, 33.54065
209.6301, 32.20668
210.1123, 30.92017
210.5944, 29.71136
211.0765, 28.49147
211.5586, 27.14319
212.0407, 25.66211
212.5228, 24.04843
213.0050, 22.26451
213.4871, 20.28751
213.9692, 18.40767
214.4513, 16.52049
214.9334, 14.84779
215.4155, 13.78716
215.8977, 13.68115
216.3798, 13.33742
216.8619, 12.23970
217.3440, 10.22343
217.8261, 8.917999
218.3082, 8.680176
218.7904, 8.815979
219.2725, 8.293655
219.7546, 6.765152
220.2367, 5.364304
220.7188, 4.469543
221.2009, 4.155426
221.6831, 3.779724
222.1652, 3.285355
222.6473, 2.785782
223.1294, 2.495758
223.6115, 2.632172
224.0936, 2.523300
224.5758, 1.834442
225.0579, 0.3990330
225.5400, 0.3488010
226.0221, 8.6989999E-02
226.5042, 0.5746610
226.9863, 0.8343050
227.4685, 0.5086210
227.9506, 0.1242070
228.4327, 0.1611940
228.9148, 0.3167110
229.3969, 0.6974330
229.8790, 1.562729
230.3612, 2.436920
230.8433, 2.698837
231.3254, 2.027802
231.8075, 1.330963
232.2896, 0.8009190
232.7717, 0.4427340
233.2539, 0.2175900
233.7360, 0.1456760
234.2181, 0.1901250
234.7002, 0.3193360
235.1823, 0.5642850
235.6644, 0.8292390
236.1466, 1.079437
236.6287, 1.302780
237.1108, 1.622284
237.5929, 2.117645
238.0750, 2.621704
238.5571, 2.965012
239.0393, 3.141357
239.5214, 3.160431
240.0035, 2.993698
240.4856, 2.629745
240.9677, 2.260757
241.4498, 1.860229
241.9320, 1.482101
242.4141, 1.189987
242.8962, 1.075394
243.3783, 0.8698430
243.8604, 0.4214780
244.3425, 0.2662810
244.8247, 0.4538880
245.3068, 0.2839200
245.7889, 1.079407
246.2710, 1.132187
246.7531, 5.7953000E-02
247.2352, 0.9898830
247.7174, 1.349106
248.1995, 1.171570
248.6816, 1.190674
249.1637, 1.503937
249.6458, 1.907166
250.1279, 2.256516
250.6101, 2.605789
251.0922, 2.791489
251.5743, 2.678452
252.0564, 2.336777
252.5385, 2.387421
253.0206, 3.079956
253.5028, 3.843201
253.9849, 4.225525
254.4670, 4.003433
254.9491, 3.999771
255.4312, 4.302338
255.9133, 4.865952
256.3955, 5.411057
256.8776, 5.960251
257.3597, 6.445526
257.8418, 6.820770
258.3239, 7.067627
258.8061, 7.231293
259.2882, 7.229782
259.7703, 7.155746
260.2524, 7.397598
260.7345, 8.140015
261.2166, 8.867996
261.6988, 9.268860
262.1809, 9.194199
262.6630, 9.281494
263.1451, 9.607666
263.6272, 10.09721
264.1093, 10.51674
264.5915, 10.81282
265.0736, 11.17677
265.5557, 11.77101
266.0378, 12.71371
266.5199, 13.34349
267.0020, 13.52023
267.4842, 13.48105
267.9663, 13.73224
268.4484, 14.34862
268.9305, 15.03056
269.4126, 15.63118
269.8947, 16.12517
270.3769, 16.70883
270.8590, 17.36827
271.3411, 18.13029
271.8232, 19.08701
272.3053, 20.31490
272.7874, 21.41777
273.2696, 22.18892
273.7517, 22.59625
274.2338, 23.22325
274.7159, 24.12076
275.1980, 25.13805
275.6801, 26.05382
276.1623, 26.84918
276.6444, 27.66643
277.1265, 28.58234
277.6086, 29.59514
278.0907, 30.47385
278.5728, 31.23228
279.0550, 31.84689
279.5371, 32.28059
280.0192, 32.53125
280.5013, 32.64940
280.9834, 32.55298
281.4655, 32.33444
281.9477, 32.56465
282.4298, 33.33324
282.9119, 34.11757
283.3940, 34.42699
283.8761, 34.28485
284.3582, 33.94998
284.8404, 33.45125
285.3225, 32.80298
285.8046, 32.00444
286.2867, 31.03934
286.7688, 30.05869
287.2509, 29.21370
287.7331, 28.45061
288.2152, 27.51930
288.6973, 26.37944
289.1794, 25.17113
289.6615, 24.05438
290.1436, 23.01189
290.6258, 22.13638
291.1079, 21.59232
291.5900, 21.28189
292.0721, 20.82945
292.5542, 20.22072
293.0363, 19.38681
293.5185, 18.07863
294.0006, 16.34218
294.4827, 14.72374
294.9648, 13.52400
295.4469, 12.62971
295.9290, 11.81621
296.4112, 11.09052
296.8933, 10.36797
297.3754, 9.531647
297.8575, 8.622955
298.3396, 7.748810
298.8217, 6.904449
299.3039, 6.143463
299.7860, 5.630264
300.2681, 5.377167
300.7502, 5.130920
301.2323, 4.591003
301.7144, 3.886566
302.1966, 3.333603
302.6787, 3.104813
303.1608, 2.959244
303.6429, 2.667328
304.1250, 2.272766
304.6071, 1.858521
305.0893, 1.263779
305.5714, 0.6192930
306.0535, 0.2174680
306.5356, 0.3082280
307.0177, 0.4992980
307.4998, 0.3921510
307.9820, 4.1747998E-02
308.4641, 0.2521970
308.9462, 0.2988430
309.4283, 0.1913450
309.9104, 1.4343000E-02
310.3925, 0.4556580
310.8747, 0.7191160
311.3568, 0.2146000
311.8389, 0.7452090
312.3210, 1.285034
312.8031, 0.5074160
313.2852, 0.5758970
313.7674, 1.176376
314.2495, 1.063400
314.7316, 0.7747340
315.2137, 0.3817140
315.6958, 1.1490000E-02
316.1779, 0.1183780
316.6601, 0.1933140
317.1422, 0.6720120
317.6243, 1.224701
318.1064, 1.860550
318.5885, 2.412231
319.0706, 2.876633
319.5528, 3.208145
320.0349, 3.354813
320.5170, 2.934784
320.9991, 2.678833
321.4812, 2.892502
321.9633, 3.588898
322.4455, 4.270927
322.9276, 4.841171
323.4097, 5.357864
323.8918, 5.864479
324.3739, 6.353546
324.8560, 6.846344
325.3382, 7.325089
325.8203, 7.800606
326.3024, 8.333611
326.7845, 9.065590
327.2666, 9.756210
327.7487, 10.28905
328.2309, 10.53892
328.7130, 10.78865
329.1951, 10.88676
329.6772, 10.98861
330.1593, 11.51428
330.6414, 12.95235
331.1236, 14.24389
331.6057, 14.93480
332.0878, 14.62206
332.5699, 14.98051
333.0520, 16.44286
333.5341, 18.29645
334.0163, 19.46933
334.4984, 19.60034
334.9805, 19.73495
335.4626, 20.11835
335.9447, 20.75858
336.4268, 21.56694
336.9090, 22.63403
337.3911, 23.74261
337.8732, 24.64221
338.3553, 25.26134
338.8374, 25.95013
339.3195, 26.75206
339.8017, 27.67099
340.2838, 28.82169
340.7659, 30.28087
341.2480, 31.69886
341.7301, 32.78741
342.2122, 33.52256
342.6944, 34.36099
343.1765, 35.33301
343.6586, 36.44888
344.1407, 37.75697
344.6228, 39.25565
345.1049, 40.77854
345.5871, 42.22860
346.0692, 43.63252
346.5513, 44.97919
347.0334, 46.24787
347.5155, 47.58536
347.9977, 49.26723
348.4798, 51.22227
348.9619, 53.00047
349.4440, 54.28664
349.9261, 55.33036
350.4082, 56.66599
350.8904, 58.28819
351.3725, 59.89098
351.8546, 61.25155
352.3367, 62.40257
352.8188, 63.40921
353.3009, 64.18096
353.7831, 64.94726
354.2652, 66.08327
354.7473, 67.49384
355.2294, 68.73006
355.7115, 69.42860
356.1936, 69.83213
356.6758, 70.22813
357.1579, 70.72939
357.6400, 71.07951
358.1221, 71.11856
358.6042, 70.88715
359.0863, 70.45741
359.5685, 69.74420
360.0506, 68.94368
360.5327, 68.22635
361.0148, 67.62563
361.4969, 66.80235
361.9790, 65.51488
362.4612, 63.97796
362.9433, 62.40028
363.4254, 60.86127
363.9075, 59.26390
364.3896, 57.55740
364.8717, 55.73573
365.3539, 53.87604
365.8360, 51.86853
366.3181, 49.92111
366.8002, 48.11980
367.2823, 46.70921
367.7644, 45.13388
368.2466, 43.23482
368.7287, 41.12010
369.2108, 39.14679
369.6929, 37.29713
370.1750, 35.57585
370.6571, 34.11765
371.1393, 33.07625
371.6214, 31.61981
372.1035, 29.36198
372.5856, 26.95523
373.0677, 25.31634
373.5498, 24.83073
374.0320, 24.21344
374.5141, 23.15886
374.9962, 21.71645
375.4783, 20.35350
375.9604, 19.08101
376.4425, 17.88832
376.9247, 16.75890
377.4068, 15.69416
377.8889, 14.72359
378.3710, 13.85715
378.8531, 13.11215
379.3352, 12.55349
379.8174, 12.19912
380.2995, 11.81219
380.7816, 11.19179
381.2637, 10.38985
381.7458, 9.817474
382.2279, 9.508698
382.7101, 9.343056
383.1922, 9.178864
383.6743, 9.000443
384.1564, 8.807732
384.6385, 8.631554
385.1206, 8.451210
385.6028, 8.221016
386.0849, 7.920166
386.5670, 7.532463
387.0491, 6.928421
387.5312, 6.271179
388.0133, 5.813217
388.4955, 5.630638
388.9776, 5.579269
389.4597, 5.570648
389.9418, 5.655319
390.4239, 5.828552
390.9060, 6.205101
391.3882, 6.515961
391.8703, 6.523407
392.3524, 6.153366
392.8345, 5.804825
393.3166, 5.686699
393.7987, 5.723129
394.2809, 5.784706
394.7630, 5.913849
395.2451, 5.916451
395.7272, 5.647118
396.2093, 5.143021
396.6914, 4.830971
397.1736, 5.037773
397.6557, 5.327568
398.1378, 5.413750
398.6199, 4.992943
399.1020, 4.678703
399.5841, 4.533585
400.0663, 4.505928
400.5484, 4.480492
401.0305, 4.477478
401.5126, 4.462883
401.9947, 4.407074
402.4768, 4.329430
402.9590, 4.187363
403.4411, 3.966568
403.9232, 3.710167
404.4053, 3.440109
404.8874, 3.108223
405.3695, 2.903198
405.8517, 2.941544
406.3338, 3.138931
406.8159, 2.978271
407.2980, 2.383537
407.7801, 1.801689
408.2622, 1.543549
408.7444, 1.595062
409.2265, 1.772095
409.7086, 2.071327
410.1907, 2.424652
410.6728, 2.818581
411.1549, 3.221069
411.6371, 3.408455
412.1192, 3.080284
412.6013, 2.532074
413.0834, 2.332390
413.5655, 2.498909
414.0476, 2.767815
414.5298, 3.021919
415.0119, 3.207344
415.4940, 3.233704
415.9761, 3.042969
416.4582, 2.736862
416.9403, 2.262314
417.4225, 1.720802
417.9046, 1.411095
418.3867, 1.744080
418.8688, 2.223473
419.3509, 2.490868
419.8330, 2.484116
420.3152, 2.401489
420.7973, 2.179161
421.2794, 1.969299
421.7615, 1.945366
422.2436, 2.508675
422.7257, 2.887184
423.2079, 2.751648
423.6900, 2.153328
424.1721, 1.801086
424.6542, 1.716385
425.1363, 1.915787
425.6184, 2.479828
426.1006, 4.067162
426.5827, 4.758308
427.0648, 4.156372
427.5469, 2.853714
428.0290, 1.895332
428.5111, 1.365807
428.9933, 1.013054
429.4754, 0.7238240
429.9575, 0.5093990
430.4396, 0.7759480
430.9217, 1.703423
431.4038, 2.577652
431.8860, 2.643143
432.3681, 1.898445
432.8502, 1.270027
433.3323, 0.8940580
433.8144, 0.7150650
434.2965, 0.6937560
434.7787, 0.8150480
435.2608, 0.8972700
435.7429, 0.7906650
436.2250, 0.5873490
436.7071, 0.5031050
437.1892, 0.5473630
437.6714, 0.5905990
438.1535, 0.5411910
438.6356, 0.4312290
439.1177, 0.3002550
439.5998, 9.6359000E-02
440.0819, 7.7972002E-02
440.5641, 5.6899998E-02
441.0462, 0.1120680
441.5283, 0.1934280
442.0104, 8.1557997E-02
442.4925, 0.3870390
442.9746, 0.4733660
443.4568, 0.2452770
443.9389, 4.9431000E-02
444.4210, 8.8813998E-02
444.9031, 0.1905360
445.3852, 0.1366420
445.8673, 0.5204390
446.3495, 0.8773960
446.8316, 0.5174100
447.3137, 0.4840470
447.7958, 1.008987
448.2779, 0.7265240
448.7600, 0.2973400
449.2422, 2.4506001E-02
449.7243, 9.8389000E-02
450.2064, 9.3689999E-03
450.6885, 0.4478530
451.1706, 0.9682920
451.6527, 0.9832920
452.1349, 0.3555220
452.6170, 0.1860200
453.0991, 0.4435500
453.5812, 0.4435040
454.0633, 0.2335820
454.5454, 0.2168200
455.0276, 0.6147000
455.5097, 0.6880190
455.9918, 0.4898910
456.4739, 0.2585910
456.9560, 1.8770000E-03
457.4381, 0.2083130
457.9203, 0.1816020
458.4024, 6.7059998E-03
458.8845, 2.5558000E-02
459.3666, 0.4455410
459.8488, 1.005119
460.3309, 1.133690
460.8130, 0.8458790
461.2951, 0.5125730
461.7772, 0.1817700
462.2593, 1.4336000E-02
462.7415, 0.2237400
463.2236, 1.170212
463.7057, 1.944130
464.1878, 2.133438
464.6699, 1.898369
465.1520, 1.549980
465.6342, 0.9360050
466.1163, 0.4458470
466.5984, 0.2324830
467.0805, 0.3337330
467.5626, 0.4866410
468.0447, 0.8742980
468.5269, 1.155800
469.0090, 1.037163
469.4911, 4.8308998E-02
469.9732, 0.3457950
470.4553, 0.1804730
470.9374, 1.200226
471.4196, 1.758240
471.9017, 1.766357
472.3838, 1.615616
472.8659, 1.421265
473.3480, 1.187675
473.8301, 0.9989470
474.3123, 0.8704380
474.7944, 0.6792830
475.2765, 0.1477050
475.7586, 0.5857770
476.2407, 0.8720700
476.7228, 0.4700930
477.2050, 0.1626970
477.6871, 0.4048920
478.1692, 0.3552860
478.6513, 0.3212660
479.1334, 0.5239640
479.6155, 0.7822720
480.0977, 0.9332200
480.5798, 0.9659650
481.0619, 0.9310000
481.5440, 0.7641830
482.0261, 0.5835950
482.5082, 0.5053630
482.9904, 0.6433410
483.4725, 0.7704540
483.9546, 0.8968280
484.4367, 0.9606090
484.9188, 0.8414840
485.4009, 0.2415540
485.8831, 0.2692490
486.3652, 0.4916380
486.8473, 0.3966450
487.3294, 0.4193650
487.8115, 0.6615980
488.2936, 0.8835140
488.7758, 0.8739930
489.2579, 0.5355220
489.7400, 0.3818740
490.2221, 0.5208050
490.7042, 0.8038480
491.1863, 0.9328770
491.6685, 0.8959500
492.1506, 0.8304060
492.6327, 0.7555310
493.1148, 0.6974110
493.5969, 0.8460770
494.0790, 1.203255
494.5612, 1.431198
495.0433, 1.003380
495.5254, 0.2956620
496.0075, 0.1163640
496.4896, 0.7966840
496.9717, 1.456161
497.4539, 1.133270
497.9360, 0.2533260
498.4181, 0.4030150
498.9002, 0.3132020
499.3823, 9.7678997E-02
499.8644, 8.0344997E-02
500.3466, 0.2443770
500.8287, 0.3491060
501.3108, 0.4169240
501.7929, 0.3644560
502.2750, 9.0674996E-02
502.7571, 0.7016450
503.2393, 1.141129
503.7214, 1.001717
504.2035, 0.5800020
504.6856, 0.2356720
505.1677, 3.2150000E-02
505.6498, 9.9624999E-02
506.1320, 6.8778999E-02
506.6141, 0.3999400
507.0962, 0.5561600
507.5783, 0.5209050
508.0604, 0.4473880
508.5425, 0.5045090
509.0247, 0.6655580
509.5068, 0.4927830
509.9889, 0.1360930
510.4710, 0.7702330
510.9531, 0.6874540
511.4352, 0.1407320
511.9174, 5.3360000E-02
512.3995, 0.5713350
512.8816, 1.328674
513.3637, 1.394409
513.8458, 0.9907230
514.3279, 0.7818450
514.8101, 1.197754
515.2922, 1.877777
515.7743, 2.735504
516.2564, 3.810120
516.7385, 4.368240
517.2206, 3.369492
517.7028, 2.208450
518.1849, 2.001373
518.6670, 4.012482
519.1491, 5.605453
519.6312, 6.608551
520.1133, 7.094040
520.5955, 7.141510
521.0776, 6.218460
521.5597, 5.853058
522.0418, 6.701157
522.5239, 8.695816
523.0060, 10.13823
523.4882, 10.94870
523.9703, 11.51495
524.4524, 12.05130
524.9345, 12.58180
525.4166, 13.33000
525.8987, 14.36409
526.3809, 15.46754
526.8630, 16.29306
527.3451, 16.94945
527.8272, 17.78998
528.3093, 19.07721
528.7914, 20.58623
529.2736, 22.20543
529.7557, 23.90427
530.2378, 25.45885
530.7199, 26.53149
531.2020, 27.60503
531.6841, 29.03313
532.1663, 30.95358
532.6484, 32.87575
533.1305, 34.53407
533.6126, 36.20151
534.0947, 38.21080
534.5768, 41.01060
535.0590, 43.63414
535.5411, 45.82700
536.0232, 47.79720
536.5053, 50.07396
536.9874, 52.69876
537.4695, 55.44389
537.9517, 58.26465
538.4338, 61.15671
538.9159, 63.60838
539.3980, 65.50630
539.8801, 67.57936
540.3622, 70.62770
540.8444, 74.38451
541.3265, 77.85443
541.8086, 80.89410
542.2907, 83.80051
542.7728, 86.86789
543.2549, 90.08792
543.7371, 93.36116
544.2192, 96.52792
544.7013, 99.86588
545.1834, 103.7413
545.6655, 108.0371
546.1476, 112.1514
546.6298, 115.5891
547.1119, 119.0222
547.5940, 122.8706
548.0761, 127.3634
548.5582, 131.5032
549.0403, 135.1176
549.5225, 138.4710
550.0046, 141.7008
550.4867, 144.6892
550.9688, 147.8156
551.4509, 151.1723
551.9330, 154.6274
552.4152, 157.9931
552.8973, 161.3760
553.3794, 164.1193
553.8615, 165.6787
554.3436, 166.4398
554.8257, 167.8713
555.3079, 169.9769
555.7900, 172.1414
556.2721, 174.2066
556.7542, 175.8753
557.2363, 176.5021
557.7184, 175.9046
558.2006, 175.0120
558.6827, 174.6481
559.1648, 174.3596
559.6469, 173.5627
560.1290, 171.6571
560.6111, 169.6615
561.0933, 168.0601
561.5754, 166.6497
562.0575, 164.8592
562.5396, 162.2340
563.0217, 159.5936
563.5038, 157.2530
563.9860, 155.2309
564.4681, 152.5614
564.9502, 148.9668
565.4323, 145.2570
565.9144, 142.1749
566.3965, 139.7767
566.8787, 136.7612
567.3608, 132.9346
567.8429, 128.9068
568.3250, 125.7986
568.8071, 123.3504
569.2892, 120.5047
569.7714, 116.7338
570.2535, 112.7034
570.7356, 109.3567
571.2177, 106.4853
571.6998, 103.5880
572.1819, 100.0103
572.6641, 96.53189
573.1462, 93.75043
573.6283, 91.68433
574.1104, 89.73320
574.5925, 88.06093
575.0746, 86.18799
575.5568, 83.68631
576.0389, 79.70004
576.5210, 76.70428
577.0031, 75.07158
577.4852, 74.13634
577.9673, 73.03116
578.4495, 71.69191
578.9316, 70.38637
579.4137, 69.18105
579.8958, 68.04375
580.3779, 66.84613
580.8600, 65.59299
581.3422, 64.25650
581.8243, 62.56398
582.3064, 60.83243
582.7885, 59.91470
583.2706, 59.78946
583.7527, 59.71849
584.2349, 59.13727
584.7170, 58.32626
585.1991, 57.57594
585.6812, 56.93546
586.1633, 56.33017
586.6454, 55.70677
587.1276, 55.10139
587.6097, 54.56796
588.0918, 54.15364
588.5739, 53.76297
589.0560, 53.37668
589.5381, 53.01064
590.0203, 52.73761
590.5024, 52.67575
590.9845, 52.43747
591.4666, 51.76645
591.9487, 50.75270
592.4308, 50.31721
592.9130, 50.52417
593.3951, 50.80191
593.8772, 50.65829
594.3593, 50.23135
594.8414, 49.98773
595.3235, 50.01562
595.8057, 49.90483
596.2878, 49.06001
596.7699, 47.88301
597.2520, 46.99405
597.7341, 46.66287
598.2162, 46.51270
598.6984, 46.53723
599.1805, 46.60364
599.6626, 46.42767
600.1447, 45.69147
600.6268, 44.98114
601.1089, 44.55890
601.5911, 44.37016
602.0732, 43.75632
602.5553, 42.43269
603.0374, 41.22566
603.5195, 40.66731
604.0016, 40.79456
604.4838, 40.66074
604.9659, 40.26135
605.4480, 39.63823
605.9301, 38.68446
606.4122, 37.52451
606.8943, 36.61913
607.3765, 36.13441
607.8586, 35.65286
608.3407, 34.69965
608.8228, 33.46349
609.3049, 32.30945
609.7870, 31.27133
610.2692, 30.43147
610.7513, 29.90126
611.2334, 29.63695
611.7155, 29.42621
612.1976, 29.45592
612.6797, 29.23093
613.1619, 28.49532
613.6440, 27.19257
614.1261, 26.16797
614.6082, 25.51260
615.0903, 25.02155
615.5724, 24.56676
616.0546, 24.14308
616.5367, 23.55833
617.0188, 22.74670
617.5009, 21.92545
617.9830, 21.50842
618.4651, 21.36853
618.9473, 20.92741
619.4294, 19.83069
619.9115, 18.70108
620.3936, 18.31622
620.8757, 18.35251
621.3578, 18.10310
621.8400, 16.79539
622.3221, 15.59880
622.8042, 15.12613
623.2863, 15.26630
623.7684, 15.26021
624.2505, 15.03873
624.7327, 14.63942
625.2148, 14.05415
625.6969, 13.27298
626.1790, 12.48953
626.6611, 11.67628
627.1432, 10.95915
627.6254, 10.43179
628.1075, 10.07864
628.5896, 9.917130
629.0717, 10.00429
629.5538, 10.04333
630.0359, 9.664337
630.5181, 9.004898
631.0002, 8.319992
631.4823, 7.662750
631.9644, 7.111465
632.4465, 6.650299
632.9286, 6.248550
633.4108, 5.948624
633.8929, 5.983994
634.3750, 5.953018
634.8571, 5.564423
635.3392, 4.890442
635.8214, 4.593521
636.3035, 4.941093
636.7856, 5.286057
637.2677, 5.288712
637.7498, 4.932312
638.2319, 4.802849
638.7141, 4.980499
639.1962, 5.072884
639.6783, 4.582092
640.1604, 3.709328
640.6425, 3.199921
641.1246, 3.152069
641.6068, 3.226563
642.0889, 3.167961
642.5710, 3.055061
643.0531, 2.954788
643.5352, 2.890648
644.0173, 2.775520
644.4995, 2.552795
644.9816, 2.289505
645.4637, 2.068153
645.9458, 1.752983
646.4279, 1.656601
646.9100, 1.956627
647.3922, 2.514427
647.8743, 2.754242
648.3564, 2.591637
648.8385, 2.369514
649.3206, 2.176735
649.8027, 2.040131
650.2849, 2.170769
650.7670, 2.570038
651.2491, 2.993149
651.7312, 3.386909
652.2133, 3.629723
652.6954, 3.467537
653.1776, 2.846931
653.6597, 2.247887
654.1418, 1.878258
654.6239, 1.694115
655.1060, 1.646767
655.5881, 1.777710
656.0703, 1.965233
656.5524, 2.390640
657.0345, 2.778908
657.5166, 2.761635
657.9987, 2.142616
658.4808, 1.636147
658.9630, 1.361496
659.4451, 1.229179
659.9272, 1.009773
660.4093, 0.7140350
660.8914, 0.5587840
661.3735, 0.7659380
661.8557, 1.074722
662.3378, 0.9847110
662.8199, 0.5670780
663.3020, 0.1533660
663.7841, 0.1091770
664.2662, 0.2587360
664.7484, 0.2805560
665.2305, 0.1747590
665.7126, 0.1214220
666.1947, 0.2116700
666.6768, 0.3268200
667.1589, 0.3892750
667.6411, 0.3560870
668.1232, 0.4866180
668.6053, 0.8955540
669.0874, 1.282646
669.5695, 1.365219
670.0516, 1.155083
670.5338, 0.7949070
671.0159, 0.2393570
671.4980, 0.2094190
671.9801, 6.4018004E-02
672.4622, 0.4738540
672.9443, 0.9502110
673.4265, 1.257805
673.9086, 1.414551
674.3907, 1.252663
674.8728, 0.9710620
675.3549, 0.9482350
675.8370, 1.700821
676.3192, 2.257309
676.8013, 2.219429
677.2834, 1.765396
677.7655, 1.537193
678.2476, 1.631721
678.7297, 1.722847
679.2119, 1.693855
679.6940, 1.559845
680.1761, 1.399277
680.6582, 1.214668
681.1403, 0.9996570
681.6224, 0.7051620
682.1046, 0.3984220
682.5867, 0.2134250
683.0688, 0.1587600
683.5509, 0.1300430
684.0330, 0.1494600
684.5151, 0.1121520
684.9973, 9.5077999E-02
685.4794, 0.5730510
685.9615, 0.9712300
686.4436, 1.320435
686.9257, 1.512802
687.4078, 1.447884
687.8900, 1.067421
688.3721, 0.5421600
688.8542, 0.2309950
689.3363, 0.9248050
689.8184, 0.8797840
690.3005, 0.1932830
690.7827, 0.2761150
691.2648, 0.2167590
691.7469, 3.1130000E-03
692.2290, 0.1802220
692.7111, 0.5743100
693.1932, 0.7923970
693.6754, 0.3777690
694.1575, 2.4055000E-02
694.6396, 0.2033840
695.1217, 0.7475280
695.6038, 1.025299
696.0859, 0.6771700
696.5681, 0.3518520
697.0502, 0.1805650
697.5323, 0.1664580
698.0144, 0.4289860
698.4965, 1.077972
698.9786, 1.527367
699.4608, 1.239418
699.9429, 0.4562990
700.4250, 0.2356340
700.9071, 0.5594940
701.3892, 0.8910450
701.8713, 0.7456970
702.3535, 0.4355850
702.8356, 0.3077850
703.3177, 0.4268570
703.7998, 0.5578460
704.2819, 0.5895770
704.7640, 0.6084900
705.2462, 0.6818700
705.7283, 0.8230670
706.2104, 0.9984050
706.6925, 1.262749
707.1746, 1.485771
707.6567, 1.472534
708.1389, 1.207947
708.6210, 1.065819
709.1031, 1.116020
709.5852, 1.244270
710.0673, 1.324898
710.5494, 1.360725
711.0316, 1.344406
711.5137, 1.160583
711.9958, 1.104630
712.4779, 1.579521
712.9600, 2.291695
713.4421, 2.682648
713.9243, 2.289642
714.4064, 1.948906
714.8885, 1.857758
715.3706, 1.946449
715.8527, 1.976913
716.3348, 1.892082
716.8170, 1.973419
717.2991, 2.460060
717.7812, 3.112373
718.2633, 2.967926
718.7454, 2.109726
719.2275, 1.436867
719.7097, 1.684418
720.1918, 2.242462
720.6739, 2.434692
721.1560, 2.279823
721.6381, 2.131447
722.1202, 2.133980
722.6024, 2.200127
723.0845, 2.297485
723.5666, 2.427551
724.0487, 2.556229
724.5308, 2.743767
725.0129, 2.840874
725.4951, 2.697487
725.9772, 2.291039
726.4593, 2.106529
726.9414, 2.165314
727.4235, 2.304649
727.9056, 2.428177
728.3878, 2.527557
728.8699, 2.555840
729.3520, 2.472351
729.8341, 2.406815
730.3162, 2.433968
730.7983, 2.489738
731.2805, 2.519646
731.7626, 2.468018
732.2447, 2.521912
732.7268, 2.804680
733.2089, 3.100349
733.6910, 3.106300
734.1732, 2.763489
734.6553, 2.536301
735.1374, 2.506729
735.6195, 2.606873
736.1016, 2.819221
736.5837, 3.084267
737.0659, 3.200325
737.5480, 3.085243
738.0301, 2.855148
738.5122, 2.517517
738.9943, 2.154236
739.4764, 1.909332
739.9586, 1.844307
740.4407, 1.878105
740.9228, 2.118279
741.4049, 2.417618
741.8870, 2.401970
742.3691, 1.919739
742.8513, 1.621651
743.3334, 1.754333
743.8155, 2.123672
744.2976, 2.206032
744.7797, 2.031273
745.2618, 1.879143
745.7440, 1.929710
746.2261, 2.024300
746.7082, 1.983810
747.1903, 1.821198
747.6724, 1.639999
748.1545, 1.421829
748.6367, 1.291969
749.1188, 1.291748
749.6009, 1.407501
750.0830, 1.568672
750.5651, 1.839058
751.0472, 2.039177
751.5294, 2.002113
752.0115, 1.787178
752.4936, 1.870621
752.9757, 2.266327
753.4578, 2.726669
753.9399, 3.188087
754.4221, 3.522331
754.9042, 3.458054
755.3863, 3.020813
755.8684, 2.666557
756.3505, 2.580734
756.8326, 2.678703
757.3148, 2.963333
757.7969, 3.479111
758.2790, 3.732704
758.7611, 3.613297
759.2432, 3.477028
759.7253, 3.582794
760.2075, 3.924744
760.6896, 3.979774
761.1717, 3.729866
761.6538, 3.495171
762.1359, 3.582092
762.6180, 3.856842
763.1002, 4.177917
763.5823, 4.555481
764.0644, 4.706474
764.5465, 4.098732
765.0286, 3.455307
765.5107, 3.411949
765.9929, 4.380638
766.4750, 5.054962
766.9571, 5.344116
767.4392, 5.488510
767.9213, 5.727280
768.4034, 6.070724
768.8856, 6.169044
769.3677, 5.900879
769.8498, 5.714767
770.3319, 6.291359
770.8140, 7.243973
771.2961, 7.800674
771.7783, 7.649651
772.2604, 7.510529
772.7425, 7.912209
773.2246, 8.461777
773.7067, 8.743736
774.1888, 8.411530
774.6710, 8.298035
775.1531, 8.454727
775.6352, 8.787735
776.1173, 9.226761
776.5994, 9.760529
777.0815, 10.23909
777.5637, 10.69360
778.0458, 11.01634
778.5279, 10.89301
779.0100, 10.56329
779.4921, 10.47542
779.9742, 10.81628
780.4564, 11.30652
780.9385, 11.91988
781.4206, 12.57413
781.9027, 13.16354
782.3848, 13.71623
782.8669, 14.11220
783.3491, 14.27065
783.8312, 14.34717
784.3133, 14.61208
784.7954, 15.05353
785.2775, 15.47821
785.7596, 15.87106
786.2418, 16.13292
786.7239, 15.95174
787.2060, 15.58487
787.6881, 15.51003
788.1702, 16.14046
788.6523, 16.75055
789.1345, 17.00706
789.6166, 17.11000
790.0987, 17.42760
790.5808, 18.13251
791.0629, 18.67667
791.5450, 18.95015
792.0272, 19.07726
792.5093, 19.29639
792.9914, 19.58864
793.4735, 19.75206
793.9556, 19.68462
794.4377, 19.55876
794.9199, 19.48218
795.4020, 19.49609
795.8841, 19.67455
796.3662, 20.38022
796.8483, 20.84911
797.3304, 20.74138
797.8126, 20.30363
798.2947, 19.93169
798.7768, 19.61301
799.2589, 19.38985
799.7410, 19.27032
800.2231, 19.24908
800.7053, 19.45531
801.1874, 19.78793
801.6695, 19.80869
802.1516, 19.27286
802.6337, 18.53903
803.1158, 17.79266
803.5980, 17.09735
804.0801, 16.54010
804.5622, 16.35623
805.0443, 16.06291
805.5264, 15.56386
806.0085, 14.92810
806.4907, 14.24278
806.9728, 13.47380
807.4549, 12.82597
807.9370, 12.30518
808.4191, 11.98215
808.9012, 12.25784
809.3834, 12.83237
809.8655, 12.87219
810.3476, 11.71358
810.8297, 10.45157
811.3118, 9.864899
811.7939, 9.576935
812.2761, 8.941147
812.7582, 7.318192
813.2403, 6.213074
813.7224, 5.984970
814.2045, 6.161423
814.6866, 5.807251
815.1688, 4.943436
815.6509, 4.312958
816.1330, 4.145157
816.6151, 4.171265
817.0972, 4.202744
817.5793, 4.153290
818.0615, 3.850815
818.5436, 2.940231
819.0257, 2.170822
819.5078, 1.891769
819.9899, 1.875702
820.4720, 1.788361
820.9542, 1.670471
821.4363, 1.320709
821.9184, 0.5869900
822.4005, 0.1670840
822.8826, 0.3020940
823.3647, 6.5109000E-02
823.8469, 0.4772030
824.3290, 0.9277340
824.8111, 1.107300
825.2932, 0.3715670
825.7753, 0.6611630
826.2574, 1.122467
826.7396, 3.8238999E-02
827.2217, 0.5014340
827.7038, 4.6645999E-02
828.1859, 0.9083560
828.6681, 1.155960
829.1502, 0.7245180
829.6323, 0.2136230
830.1144, 0.3154140
830.5966, 0.8443300
831.0787, 1.438995
831.5608, 2.005356
832.0429, 2.349792
832.5250, 2.356796
833.0071, 2.333450
833.4893, 2.115112
833.9714, 2.110809
834.4535, 2.826080
834.9356, 4.893768
835.4177, 6.329910
835.8998, 7.077209
836.3820, 7.281448
836.8641, 6.849564
837.3462, 5.923370
837.8283, 5.437164
838.3104, 5.519440
838.7925, 5.888992
839.2747, 6.460800
839.7568, 7.108887
840.2389, 7.686142
840.7210, 8.133057
841.2031, 8.628326
841.6852, 9.311188
842.1674, 9.942932
842.6495, 10.34865
843.1316, 10.48386
843.6137, 10.63432
844.0958, 10.78598
844.5779, 11.02760
845.0601, 11.56001
845.5422, 12.19870
846.0243, 12.59238
846.5064, 12.71326
846.9885, 12.80099
847.4706, 12.97583
847.9528, 13.17776
848.4349, 13.36238
848.9170, 13.52408
849.3991, 13.77196
849.8812, 14.17792
850.3633, 14.51158
850.8455, 14.60532
851.3276, 14.50316
851.8097, 14.41342
852.2918, 14.34071
852.7739, 14.33937
853.2560, 14.37270
853.7382, 14.50613
854.2203, 14.94670
854.7024, 15.65868
855.1845, 16.03587
855.6666, 15.67021
856.1487, 15.29076
856.6309, 15.11392
857.1130, 15.07594
857.5951, 14.95750
858.0772, 14.77155
858.5593, 14.59665
859.0414, 14.56665
859.5236, 14.49829
860.0057, 14.01819
860.4878, 13.26924
860.9699, 12.68230
861.4520, 12.75214
861.9341, 12.61749
862.4163, 11.63348
862.8984, 10.25803
863.3805, 9.768204
863.8626, 10.43993
864.3447, 10.88055
864.8268, 10.67102
865.3090, 10.13533
865.7911, 9.937744
866.2732, 9.925995
866.7553, 9.636276
867.2374, 8.559860
867.7195, 7.658783
868.2017, 7.743622
868.6838, 8.279861
869.1659, 8.398926
869.6480, 7.835312
870.1301, 7.270477
870.6122, 6.725388
871.0944, 6.260208
871.5765, 5.977295
872.0586, 5.858109
872.5407, 5.811539
873.0228, 5.840759
873.5049, 5.849060
873.9871, 5.624649
874.4692, 5.397034
874.9513, 5.468826
875.4334, 6.155396
875.9155, 6.488953
876.3976, 6.228165
876.8798, 5.809357
877.3619, 5.517838
877.8440, 5.353485
878.3261, 5.450409
878.8082, 5.839890
879.2903, 6.158661
879.7725, 5.928345
880.2546, 5.536438
880.7367, 5.534943
881.2188, 5.985504
881.7009, 6.307938
882.1830, 6.068527
882.6652, 5.887939
883.1473, 6.136703
883.6294, 6.782501
884.1115, 7.014572
884.5936, 6.808731
885.0757, 6.551620
885.5579, 6.367828
886.0400, 6.318802
886.5221, 6.675690
887.0042, 7.346008
887.4863, 7.892395
887.9684, 8.290939
888.4506, 8.314865
888.9327, 7.596313
889.4148, 6.413467
889.8969, 5.674255
890.3790, 5.479446
890.8611, 5.408676
891.3433, 5.383759
891.8254, 5.370926
892.3075, 5.322525
892.7896, 5.232590
893.2717, 5.079254
893.7538, 4.807755
894.2360, 4.545242
894.7181, 4.415955
895.2002, 4.326416
895.6823, 4.128311
896.1644, 3.714798
896.6465, 3.452408
897.1287, 3.425552
897.6108, 3.435181
898.0929, 3.193253
898.5750, 2.772293
899.0571, 2.442688
899.5392, 2.240936
900.0214, 2.119293
900.5035, 2.108704
900.9856, 2.111832
901.4677, 2.046585
901.9498, 1.900894
902.4319, 1.659760
902.9141, 1.250885
903.3962, 0.8681180
903.8783, 0.6257930
904.3604, 0.5152890
904.8425, 0.4756770
905.3246, 0.5025330
905.8068, 0.5566860
906.2889, 0.6871490
906.7710, 0.7723390
907.2531, 0.6956790
907.7352, 0.4715420
908.2173, 0.2405850
908.6995, 3.4912001E-02
909.1816, 0.2005160
909.6637, 0.5250090
910.1458, 0.8557740
910.6279, 0.8482210
911.1100, 0.5487370
911.5922, 0.3891140
912.0743, 0.6023250
912.5564, 0.9238430
913.0385, 1.248978
913.5206, 1.469635
914.0027, 1.410049
914.4849, 0.6735080
914.9670, 0.1451490
915.4491, 4.7768001E-02
915.9312, 7.8583002E-02
916.4133, 0.1990970
916.8954, 0.3933790
917.3776, 0.3261570
917.8597, 8.6250000E-02
918.3418, 0.4522630
918.8239, 0.3517680
919.3060, 3.4561001E-02
919.7881, 0.2329480
920.2703, 0.3976750
920.7524, 0.5619960
921.2345, 0.6354140
921.7166, 0.8543090
922.1987, 1.536858
922.6808, 2.617073
923.1630, 2.517441
923.6451, 1.249367
924.1272, 0.3674470
924.6093, 1.494728
925.0914, 3.071518
925.5735, 3.474747
926.0557, 2.888283
926.5378, 2.375984
927.0199, 2.113609
927.5020, 2.109238
927.9841, 2.492767
928.4662, 3.054283
928.9484, 3.224243
929.4305, 3.022461
929.9126, 2.770836
930.3947, 2.480080
930.8768, 2.374184
931.3589, 2.886597
931.8411, 3.676033
932.3232, 4.246201
932.8053, 4.418007
933.2874, 4.418045
933.7695, 4.065285
934.2516, 3.801453
934.7338, 4.183388
935.2159, 5.181808
935.6980, 5.775665
936.1801, 5.893829
936.6622, 5.865089
937.1443, 5.898048
937.6265, 5.967110
938.1086, 6.061066
938.5907, 6.177414
939.0728, 6.265022
939.5549, 6.368073
940.0370, 6.354561
940.5192, 6.107483
941.0013, 5.712738
941.4834, 5.616447
941.9655, 5.788551
942.4476, 5.931183
942.9297, 5.795540
943.4119, 5.683395
943.8940, 5.989120
944.3761, 6.495613
944.8582, 6.753326
945.3403, 6.475945
945.8224, 6.220039
946.3046, 5.973846
946.7867, 5.853714
947.2688, 6.159828
947.7509, 6.777733
948.2330, 7.082245
948.7151, 6.962662
949.1973, 6.693047
949.6794, 6.246750
950.1615, 5.923973
950.6436, 6.093010
951.1257, 6.974144
951.6078, 7.376160
952.0900, 7.083961
952.5721, 6.738663
953.0542, 6.710022
953.5363, 6.940117
954.0184, 7.103882
954.5005, 7.185760
954.9827, 7.300026
955.4648, 7.664070
955.9469, 8.007858
956.4290, 8.119865
956.9111, 8.094307
957.3932, 8.208862
957.8754, 8.484734
958.3575, 8.760635
958.8396, 9.019585
959.3217, 9.339027
959.8038, 9.861855
960.2859, 10.45341
960.7681, 10.83166
961.2502, 10.88852
961.7323, 10.95609
962.2144, 11.26045
962.6965, 11.62570
963.1786, 11.86594
963.6608, 11.91466
964.1429, 12.35135
964.6250, 13.23390
965.1071, 14.04309
965.5892, 14.31360
966.0714, 14.32822
966.5535, 14.62012
967.0356, 15.16046
967.5177, 15.75225
967.9998, 16.48135
968.4819, 17.06674
968.9641, 17.43073
969.4462, 17.54297
969.9283, 17.21177
970.4104, 16.37416
970.8925, 16.07101
971.3746, 16.68185
971.8568, 17.38898
972.3389, 17.24551
972.8210, 16.55137
973.3031, 15.67674
973.7852, 14.49836
974.2673, 13.72474
974.7495, 13.88271
975.2316, 14.05071
975.7137, 13.48123
976.1958, 12.15970
976.6779, 11.49613
977.1600, 11.48298
977.6422, 11.60566
978.1243, 11.65265
978.6064, 11.55432
979.0885, 11.14874
979.5706, 10.51479
980.0527, 10.01758
980.5349, 9.838562
981.0170, 9.579842
981.4991, 9.069397
981.9812, 8.534157
982.4633, 8.525848
982.9454, 8.928917
983.4276, 9.209015
983.9097, 9.219116
984.3918, 9.060997
984.8739, 8.789574
985.3560, 8.406380
985.8381, 7.848854
986.3203, 6.997688
986.8024, 6.524590
987.2845, 6.514999
987.7666, 6.617943
988.2487, 6.572372
988.7308, 6.453529
989.2130, 6.496780
989.6951, 6.658623
990.1772, 6.681915
990.6593, 6.287910
991.1414, 5.892822
991.6235, 5.708641
992.1057, 5.630043
992.5878, 5.404739
993.0699, 5.002937
993.5520, 4.530167
994.0341, 3.963188
994.5162, 3.496445
994.9984, 3.496658
995.4805, 3.673912
995.9626, 3.588814
996.4447, 3.046326
996.9268, 2.718285
997.4089, 2.832481
997.8911, 3.013443
998.3732, 3.107224
998.8553, 3.097763
999.3374, 2.747177
999.8195, 2.102882
1000.302, 1.604706
1000.784, 1.703789
1001.266, 1.842514
1001.748, 1.523903
1002.230, 1.540138
1002.712, 1.474915
1003.194, 1.112892
1003.676, 1.186172
1004.159, 0.7226490
1004.641, 0.1609880
1005.123, 0.1343150
1005.605, 0.4500810
1006.087, 0.6810380
1006.569, 0.7646330
1007.051, 0.7182620
1007.533, 0.3966900
1008.016, 8.7715000E-02
1008.498, 2.9747000E-02
1008.980, 3.1403001E-02
1009.462, 2.6047001E-02
1009.944, 4.2518999E-02
1010.426, 0.1848070
1010.908, 0.5587690
1011.390, 0.8373720
1011.872, 0.4888610
1012.355, 0.2303470
1012.837, 0.7964710
1013.319, 1.172867
1013.801, 1.193748
1014.283, 0.6595000
1014.765, 5.7030000E-02
1015.247, 4.2824000E-02
1015.729, 0.4672620
1016.211, 0.3953930
1016.694, 0.2420810
1017.176, 0.7573470
1017.658, 0.5727390
1018.140, 0.1871340
1018.622, 0.1110990
1019.104, 0.3054580
1019.586, 0.4187010
1020.068, 0.4534230
1020.551, 0.3680040
1021.033, 6.3431002E-02
1021.515, 0.2120060
1021.997, 6.3331999E-02
1022.479, 0.6421660
1022.961, 1.061394
1023.443, 1.184975
1023.925, 1.130661
1024.407, 0.8093110
1024.890, 0.4408650
1025.372, 0.1338500
1025.854, 0.1085050
1026.336, 2.5764000E-02
1026.818, 0.3739780
1027.300, 0.6588750
1027.782, 0.3116300
1028.264, 6.6788003E-02
1028.746, 9.3970999E-02
1029.229, 0.6481480
1029.711, 0.9572680
1030.193, 0.8421100
1030.675, 0.8831410
1031.157, 1.262589
1031.639, 1.642334
1032.121, 1.441856
1032.603, 0.8869630
1033.086, 0.4668960
1033.568, 0.2667770
1034.050, 0.2255780
1034.532, 0.4511340
1035.014, 0.7041850
1035.496, 0.8490300
1035.978, 0.8972550
1036.460, 1.004677
1036.943, 1.168083
1037.425, 1.241699
1037.907, 1.048637
1038.389, 0.8734590
1038.871, 1.169487
1039.353, 1.628304
1039.835, 1.689606
1040.317, 0.8170010
1040.799, 0.4051280
1041.281, 0.6030730
1041.764, 0.9910960
1042.246, 1.149887
1042.728, 1.175407
1043.210, 1.380157
1043.692, 1.755547
1044.174, 1.956863
1044.656, 1.516609
1045.138, 1.198380
1045.621, 1.477501
1046.103, 2.065041
1046.585, 2.079834
1047.067, 1.508881
1047.549, 1.199593
1048.031, 1.454170
1048.513, 1.722580
1048.995, 1.270050
1049.478, 0.6200330
1049.960, 0.3991170
1050.442, 0.8666150
1050.924, 1.149918
1051.406, 1.192467
1051.888, 1.158310
1052.370, 1.084579
1052.852, 1.026619
1053.334, 1.202332
1053.817, 1.529442
1054.299, 1.746262
1054.781, 1.631561
1055.263, 1.524040
1055.745, 1.554405
1056.227, 1.619507
1056.709, 1.576736
1057.191, 1.415527
1057.673, 1.358154
1058.156, 1.424286
1058.638, 1.516075
1059.120, 1.637619
1059.602, 1.687744
1060.084, 1.502510
1060.566, 1.126945
1061.048, 0.9936980
1061.530, 1.192902
1062.013, 1.410103
1062.495, 1.577354
1062.977, 1.685707
1063.459, 1.656479
1063.941, 1.561279
1064.423, 1.550667
1064.905, 1.679619
1065.387, 1.797653
1065.870, 1.997643
1066.352, 2.012749
1066.834, 1.591682
1067.316, 0.8349460
1067.798, 0.5981520
1068.280, 0.8205180
1068.762, 1.001282
1069.244, 0.7560500
1069.726, 0.5797730
1070.208, 0.9379810
1070.691, 1.492752
1071.173, 1.713242
1071.655, 1.483620
1072.137, 1.256958
1072.619, 1.026901
1073.101, 0.8903730
1073.583, 1.021591
1074.065, 1.232101
1074.548, 1.246307
1075.030, 1.079437
1075.512, 0.9966580
1075.994, 1.149681
1076.476, 1.287643
1076.958, 1.383507
1077.440, 1.378998
1077.922, 1.043343
1078.405, 0.5141220
1078.887, 0.2826920
1079.369, 0.4938200
1079.851, 0.7104030
1080.333, 0.4194870
1080.815, 0.3136980
1081.297, 0.9546430
1081.779, 2.222885
1082.261, 2.856056
1082.744, 2.858131
1083.226, 2.503716
1083.708, 1.656303
1084.190, 0.9117510
1084.672, 0.9314270
1085.154, 1.359718
1085.636, 1.674507
1086.118, 1.802826
1086.601, 1.845375
1087.083, 1.801048
1087.565, 1.709396
1088.047, 1.663879
1088.529, 1.562523
1089.011, 0.9925610
1089.493, 0.1628720
1089.975, 0.1281970
1090.458, 1.118904
1090.940, 1.926758
1091.422, 1.829697
1091.904, 1.292648
1092.386, 0.9573900
1092.868, 0.7815170
1093.350, 0.5571980
1093.832, 0.2515490
1094.314, 7.2173998E-02
1094.797, 0.2903370
1095.279, 0.5321270
1095.761, 0.5154190
1096.243, 0.3315510
1096.725, 0.4605940
1097.207, 0.9140320
1097.689, 1.105125
1098.171, 0.7537840
1098.653, 0.3351290
1099.136, 0.3617100
1099.618, 0.5834810
1100.100, 0.7102430
1100.582, 0.6820830
1101.064, 0.6395720
1101.546, 0.5594710
1102.028, 0.5541530
1102.510, 0.7501450
1102.993, 0.9924930
1103.475, 0.9783250
1103.957, 0.8071980
1104.439, 0.6941830
1104.921, 0.8086010
1105.403, 0.8281480
1105.885, 0.6794280
1106.367, 0.5429690
1106.849, 0.5595470
1107.332, 0.6829300
1107.814, 0.7706300
1108.296, 0.8293760
1108.778, 0.8155210
1109.260, 0.6916960
1109.742, 0.5003590
1110.224, 0.1548310
1110.706, 0.1840440
1111.188, 0.1815260
1111.671, 0.1487660
1112.153, 0.2926030
1112.635, 0.1713030
1113.117, 2.8530001E-03
1113.599, 0.1910400
1114.081, 0.2599110
1114.563, 4.2931002E-02
1115.045, 0.6265640
1115.528, 0.6904220
1116.010, 0.1202390
1116.492, 0.2644120
1116.974, 0.2090530
1117.456, 7.8612998E-02
1117.938, 0.4299620
1118.420, 0.8017880
1118.902, 1.128441
1119.385, 1.363686
1119.867, 1.786598
1120.349, 2.617981
1120.831, 3.045784
1121.313, 2.461517
1121.795, 1.357178
1122.277, 0.6659160
1122.759, 0.3181760
1123.241, 0.1478270
1123.724, 0.1558380
1124.206, 0.2603760
1124.688, 0.4764250
1125.170, 0.7325970
1125.652, 1.047035
1126.134, 1.378059
1126.616, 1.437172
1127.098, 1.242302
1127.580, 0.9400630
1128.063, 0.3199690
1128.545, 3.8162000E-02
1129.027, 0.3161470
1129.509, 0.9191280
1129.991, 1.218193
1130.473, 1.213921
1130.955, 0.9148940
1131.437, 0.3126980
1131.920, 0.1737210
1132.402, 0.2642440
1132.884, 0.1103290
1133.366, 0.3602910
1133.848, 0.9860150
1134.330, 1.209610
1134.812, 0.9773410
1135.294, 0.7791980
1135.776, 0.7202300
1136.259, 0.6803050
1136.741, 0.4750440
1137.223, 0.2722850
1137.705, 0.2623600
1138.187, 0.4759830
1138.669, 0.6459880
1139.151, 0.7847440
1139.633, 0.8442540
1140.115, 0.7948380
1140.598, 0.6801530
1141.080, 0.4791790
1141.562, 0.2898860
1142.044, 0.2829670
1142.526, 0.5705410
1143.008, 0.7841570
1143.490, 0.8596120
1143.972, 0.9458770
1144.455, 1.203201
1144.937, 1.468185
1145.419, 1.311974
1145.901, 0.8441850
1146.383, 0.3238830
1146.865, 0.5259020
1147.347, 0.7418820
1147.829, 0.1684880
1148.312, 1.178032
1148.794, 1.416267
1149.276, 1.034126
1149.758, 0.6379930
1150.240, 0.2695010
1150.722, 0.1200940
1151.204, 0.5472340
1151.686, 0.8798140
1152.168, 0.8237690
1152.651, 0.6364060
1153.133, 0.6115190
1153.615, 0.7312160
1154.097, 0.8650280
1154.579, 0.9966580
1155.061, 0.9785460
1155.543, 0.3766400
1156.025, 5.2108999E-02
1156.507, 0.4002460
1156.990, 1.211609
1157.472, 1.336060
1157.954, 0.7673950
1158.436, 0.3610310
1158.918, 0.2317200
1159.400, 0.2927400
1159.882, 0.7360310
1160.364, 1.116264
1160.847, 0.9325030
1161.329, 0.3470460
1161.811, 0.3246540
1162.293, 0.9535060
1162.775, 1.043587
1163.257, 0.1432110
1163.739, 0.7223210
1164.221, 0.3497850
1164.703, 0.4604190
1165.186, 0.9425810
1165.668, 1.009598
1166.150, 0.9100800
1166.632, 0.6091310
1167.114, 0.3545680
1167.596, 0.2318040
1168.078, 0.2085340
1168.560, 0.3704830
1169.042, 0.5450670
1169.525, 0.4295960
1170.007, 0.2037430
1170.489, 0.3522570
1170.971, 8.1390001E-02
1171.453, 0.6578980
1171.935, 1.294189
1172.417, 1.795044
1172.899, 1.680161
1173.382, 1.236237
1173.864, 0.9936370
1174.346, 1.234451
1174.828, 1.353905
1175.310, 1.317940
1175.792, 1.233833
1176.274, 1.164230
1176.756, 1.108337
1177.239, 1.035919
1177.721, 0.9754710
1178.203, 0.9993440
1178.685, 1.248199
1179.167, 1.396370
1179.649, 1.374680
1180.131, 1.369362
1180.613, 1.694885
1181.095, 2.113228
1181.578, 1.929626
1182.060, 1.296097
1182.542, 0.9341130
1183.024, 1.441765
1183.506, 1.756523
1183.988, 1.645958
1184.470, 1.449036
1184.952, 1.641052
1185.434, 2.037987
1185.917, 2.091522
1186.399, 1.820122
1186.881, 1.722389
1187.363, 2.136795
1187.845, 2.600723
1188.327, 3.116531
1188.809, 3.475533
1189.291, 3.150482
1189.774, 2.425354
1190.256, 2.281342
1190.738, 2.822472
1191.220, 3.179886
1191.702, 2.681084
1192.184, 2.310402
1192.666, 2.411621
1193.148, 2.767464
1193.630, 3.000053
1194.113, 3.116356
1194.595, 3.116135
1195.077, 2.992905
1195.559, 2.862503
1196.041, 2.627342
1196.523, 2.606880
1197.005, 3.033997
1197.487, 3.661835
1197.969, 3.733162
1198.452, 3.413971
1198.934, 3.367844
1199.416, 3.824631
1199.898, 4.155296
1200.380, 3.970383
1200.862, 3.680862
1201.344, 3.448418
1201.826, 3.278748
1202.309, 3.195885
1202.791, 3.201424
1203.273, 3.327614
1203.755, 3.644203
1204.237, 3.895332
1204.719, 3.945801
1205.201, 3.887573
1205.683, 3.752655
1206.166, 3.566353
1206.648, 3.586388
1207.130, 3.743492
1207.612, 3.724182
1208.094, 3.323311
1208.576, 2.931389
1209.058, 2.559128
1209.540, 2.420639
1210.022, 2.749634
1210.505, 3.444847
1210.987, 3.899918
1211.469, 4.129440
1211.951, 4.169479
1212.433, 3.774689
1212.915, 3.620468
1213.397, 4.385292
1213.879, 5.064751
1214.361, 4.731308
1214.844, 3.595909
1215.326, 3.162010
1215.808, 3.377602
1216.290, 3.958374
1216.772, 5.556129
1217.254, 6.429054
1217.736, 5.550179
1218.218, 4.304794
1218.701, 3.830162
1219.183, 4.024925
1219.665, 4.131630
1220.147, 4.147148
1220.629, 4.117569
1221.111, 4.101974
1221.593, 3.967834
1222.075, 3.602013
1222.557, 3.265793
1223.040, 3.285400
1223.522, 3.571083
1224.004, 3.619804
1224.486, 3.474998
1224.968, 3.477844
1225.450, 4.190308
1225.932, 4.499016
1226.414, 3.949219
1226.896, 3.198120
1227.379, 3.004227
1227.861, 3.243065
1228.343, 3.611809
1228.825, 4.041634
1229.307, 4.155289
1229.789, 3.456253
1230.271, 2.868530
1230.753, 2.551910
1231.236, 2.520493
1231.718, 2.888962
1232.200, 3.466599
1232.682, 3.753006
1233.164, 3.744888
1233.646, 3.661209
1234.128, 3.502754
1234.610, 3.420486
1235.093, 3.511024
1235.575, 3.567055
1236.057, 3.166664
1236.539, 2.565346
1237.021, 2.414452
1237.503, 2.711929
1237.985, 2.889908
1238.467, 2.595039
1238.949, 2.436302
1239.432, 2.559288
1239.914, 2.752182
1240.396, 2.713364
1240.878, 2.541557
1241.360, 2.369652
1241.842, 2.220535
1242.324, 2.227928
1242.806, 2.512711
1243.288, 2.747017
1243.771, 2.873650
1244.253, 2.926430
1244.735, 2.883224
1245.217, 2.834251
1245.699, 3.042809
1246.181, 3.488060
1246.663, 3.364861
1247.145, 2.254288
1247.628, 1.685005
1248.110, 2.083519
1248.592, 2.746765
1249.074, 2.801567
1249.556, 2.605362
1250.038, 2.596802
1250.520, 2.802086
1251.002, 2.907906
1251.484, 2.918121
1251.967, 2.736160
1252.449, 2.284119
1252.931, 1.868019
1253.413, 1.858917
1253.895, 2.023697
1254.377, 2.202278
1254.859, 2.349953
1255.341, 2.206268
1255.823, 1.716881
1256.306, 1.395981
1256.788, 1.370636
1257.270, 1.505386
1257.752, 1.812996
1258.234, 2.112694
1258.716, 2.226822
1259.198, 2.187103
1259.680, 2.146248
1260.163, 2.103760
1260.645, 2.019348
1261.127, 1.873276
1261.609, 1.746506
1262.091, 1.760605
1262.573, 1.757179
1263.055, 1.607155
1263.537, 1.359634
1264.020, 1.184364
1264.502, 1.075943
1264.984, 1.004486
1265.466, 0.9688720
1265.948, 0.9372100
1266.430, 0.9020770
1266.912, 0.8497700
1267.394, 0.7606510
1267.876, 0.6600190
1268.359, 0.5978390
1268.841, 0.5795140
1269.323, 0.6567080
1269.805, 0.8614040
1270.287, 0.9744870
1270.769, 0.7235640
1271.251, 0.6039430
1271.733, 0.8373640
1272.215, 1.229752
1272.698, 1.424980
1273.180, 1.430496
1273.662, 1.220200
1274.144, 0.7624510
1274.626, 0.3202970
1275.108, 0.2349850
1275.590, 0.3695070
1276.072, 0.2423550
1276.555, 1.058975
1277.037, 1.131126
1277.519, 0.8225330
1278.001, 0.6672740
1278.483, 0.7598040
1278.965, 0.9324490
1279.447, 1.215889
1279.929, 1.408081
1280.411, 1.444092
1280.894, 1.364311
1281.376, 1.113808
1281.858, 0.8423310
1282.340, 0.7037120
1282.822, 0.7145230
1283.304, 0.9245990
1283.786, 1.381516
1284.268, 1.481041
1284.750, 0.9849240
1285.233, 0.4124530
1285.715, 0.1300660
1286.197, 8.6983003E-02
1286.679, 0.4180150
1287.161, 0.9533690
1287.643, 0.8494800
1288.125, 0.1359560
1288.607, 0.3217930
1289.090, 0.1889500
1289.572, 0.1427840
1290.054, 0.7108760
1290.536, 1.162048
1291.018, 1.304314
1291.500, 1.224373
1291.982, 1.102127
1292.464, 0.9680480
1292.947, 0.9306340
1293.429, 0.9843830
1293.911, 1.065147
1294.393, 1.343262
1294.875, 1.138847
1295.357, 0.6824110
1295.839, 0.4528730
1296.321, 0.6739430
1296.803, 1.060226
1297.286, 0.9802470
1297.768, 0.3242950
1298.250, 5.0209001E-02
1298.732, 0.3887410
1299.214, 0.5812230
1299.696, 0.3502350
1300.178, 6.0341001E-02
1300.660, 0.0000000E+00
##END=



