##NAMES=Olsacherite
##RRUFFID=R140741
##IDEAL CHEMISTRY=Pb^2+^_2_(Se^6+^O_4_)(S^6+^O_4_)
##LOCALITY=Virgen De Surumi mine, Pakajake Canyon, Chayanta Province, Potos√≠ Department, Bolivia
##OWNER=RRUFF
##SOURCE=Rock Currier
##DESCRIPTION=Sprays of colorless prismatic crystals. This sample was originally labeled as mandarinoite.
##STATUS=The identification of this mineral has been confirmed by X-ray diffraction.
##URL=rruff.info/R140741
94.81378, 0.0000000E+00
95.29590, 3.307373
95.77802, 6.442261
96.26013, 9.759277
96.74225, 11.64465
97.22437, 11.18445
97.70648, 8.229248
98.18860, 3.737305
98.67072, 0.7742920
99.15283, 0.1185300
99.63495, 0.2625730
100.1171, 6.8115003E-02
100.5992, 0.8076170
101.0813, 3.017212
101.5634, 4.764526
102.0455, 3.784912
102.5277, 2.174683
103.0098, 1.689087
103.4919, 3.196655
103.9740, 6.516113
104.4561, 10.86169
104.9382, 18.45337
105.4204, 24.73145
105.9025, 26.15430
106.3846, 24.01074
106.8667, 21.35669
107.3488, 18.95825
107.8309, 17.34338
108.3131, 17.13147
108.7952, 18.99084
109.2773, 21.09277
109.7594, 22.99963
110.2415, 24.68347
110.7236, 25.39624
111.2058, 24.55066
111.6879, 22.46814
112.1700, 19.90967
112.6521, 16.15247
113.1342, 12.00757
113.6163, 8.800415
114.0985, 6.940063
114.5806, 5.406372
115.0627, 2.959961
115.5448, 0.2149660
116.0269, 1.418701
116.5090, 0.7122800
116.9912, 2.346313
117.4733, 4.532593
117.9554, 4.051514
118.4375, 4.181152
118.9196, 6.589661
119.4017, 10.87085
119.8839, 15.35583
120.3660, 17.81848
120.8481, 17.06616
121.3302, 17.16888
121.8123, 18.14056
122.2944, 20.00000
122.7766, 22.77887
123.2587, 26.24829
123.7408, 30.35040
124.2229, 33.62305
124.7050, 34.39648
125.1871, 35.87048
125.6693, 38.71613
126.1514, 42.14966
126.6335, 45.52295
127.1156, 48.27185
127.5977, 48.60663
128.0798, 47.69531
128.5620, 44.36890
129.0441, 42.66479
129.5262, 45.00836
130.0083, 50.47729
130.4904, 55.43469
130.9725, 57.90143
131.4547, 57.61768
131.9368, 56.65680
132.4189, 54.88898
132.9010, 52.97864
133.3831, 52.02679
133.8652, 52.11108
134.3474, 52.56061
134.8295, 54.25891
135.3116, 56.05981
135.7937, 56.30334
136.2758, 53.61334
136.7579, 49.36371
137.2401, 47.46503
137.7222, 49.85553
138.2043, 51.76514
138.6864, 51.33765
139.1685, 49.46320
139.6507, 47.62732
140.1328, 47.09137
140.6149, 47.70227
141.0970, 46.36938
141.5791, 40.06390
142.0612, 34.63513
142.5434, 32.11792
143.0255, 31.92505
143.5076, 32.16968
143.9897, 31.09979
144.4718, 28.31952
144.9539, 26.23065
145.4361, 25.28467
145.9182, 24.41431
146.4003, 23.31451
146.8824, 21.87982
147.3645, 19.89496
147.8466, 17.00696
148.3288, 12.73627
148.8109, 9.028748
149.2930, 5.522644
149.7751, 2.852356
150.2572, 2.116089
150.7393, 3.839111
151.2215, 5.910217
151.7036, 4.762939
152.1857, 0.6613770
152.6678, 0.7254030
153.1499, 1.005066
153.6320, 0.5232540
154.1142, 0.1715700
154.5963, 0.2673340
155.0784, 0.2706910
155.5605, 0.5994260
156.0426, 2.360901
156.5247, 3.648987
157.0069, 3.345154
157.4890, 1.513306
157.9711, 0.4201660
158.4532, 3.522400
158.9353, 5.465698
159.4174, 3.966125
159.8996, 1.152222
160.3817, 6.944275
160.8638, 9.957947
161.3459, 9.624878
161.8280, 8.430115
162.3102, 5.563904
162.7923, 2.765686
163.2744, 1.430176
163.7565, 1.877136
164.2386, 3.169128
164.7207, 3.478821
165.2029, 2.075256
165.6850, 0.8588260
166.1671, 0.8618160
166.6492, 1.957520
167.1313, 0.9010620
167.6134, 2.957458
168.0956, 8.236572
168.5777, 10.88025
169.0598, 7.082397
169.5419, 4.851685
170.0240, 6.187317
170.5061, 9.139526
170.9883, 10.72638
171.4704, 9.315308
171.9525, 5.872925
172.4346, 4.560120
172.9167, 6.651367
173.3988, 8.854431
173.8810, 10.46460
174.3631, 11.58643
174.8452, 12.03461
175.3273, 11.36176
175.8094, 9.990234
176.2915, 9.612183
176.7737, 10.61578
177.2558, 12.12573
177.7379, 13.83356
178.2200, 15.68207
178.7021, 17.24353
179.1842, 18.24652
179.6664, 18.78864
180.1485, 19.11169
180.6306, 19.22687
181.1127, 19.14954
181.5948, 18.66388
182.0769, 17.58221
182.5591, 17.12457
183.0412, 18.61279
183.5233, 20.90991
184.0054, 22.80945
184.4875, 23.70886
184.9696, 24.22949
185.4518, 25.72363
185.9339, 28.86938
186.4160, 31.40491
186.8981, 32.41022
187.3802, 32.49683
187.8623, 32.25128
188.3445, 31.88373
188.8266, 31.44806
189.3087, 31.18146
189.7908, 30.99677
190.2729, 31.09113
190.7550, 31.54333
191.2372, 32.27344
191.7193, 33.13361
192.2014, 33.98312
192.6835, 34.91852
193.1656, 36.62952
193.6477, 41.96695
194.1299, 45.06909
194.6120, 42.96976
195.0941, 38.12607
195.5762, 34.61557
196.0583, 35.25568
196.5404, 39.75610
197.0226, 43.29700
197.5047, 45.38135
197.9868, 47.12714
198.4689, 48.76733
198.9510, 50.29871
199.4331, 51.58014
199.9153, 52.45474
200.3974, 52.95187
200.8795, 54.08694
201.3616, 56.35318
201.8437, 58.61926
202.3258, 60.96765
202.8080, 63.06204
203.2901, 63.66345
203.7722, 61.31497
204.2543, 56.43491
204.7364, 54.29178
205.2185, 57.29929
205.7007, 60.75812
206.1828, 61.18750
206.6649, 58.85495
207.1470, 57.23859
207.6291, 59.52969
208.1112, 64.68692
208.5934, 67.31094
209.0755, 64.93762
209.5576, 61.38861
210.0397, 59.95700
210.5218, 60.71539
211.0039, 62.10339
211.4861, 63.59256
211.9682, 64.94922
212.4503, 65.65530
212.9324, 65.37674
213.4145, 64.61002
213.8967, 63.77151
214.3788, 62.75113
214.8609, 62.06314
215.3430, 62.09030
215.8251, 62.57520
216.3072, 63.27405
216.7894, 64.58133
217.2715, 65.91446
217.7536, 66.02213
218.2357, 64.23987
218.7178, 62.43936
219.1999, 61.24268
219.6821, 60.50659
220.1642, 60.14563
220.6463, 60.18631
221.1284, 60.35638
221.6105, 60.07578
222.0926, 59.02679
222.5748, 58.23227
223.0569, 58.33502
223.5390, 58.70728
224.0211, 58.59424
224.5032, 57.65216
224.9853, 56.25031
225.4675, 54.93246
225.9496, 52.95969
226.4317, 52.18433
226.9138, 54.18198
227.3959, 56.93750
227.8780, 57.95007
228.3602, 55.84430
228.8423, 51.95392
229.3244, 50.79248
229.8065, 55.75745
230.2886, 58.80542
230.7707, 57.69336
231.2529, 54.73282
231.7350, 52.54062
232.2171, 52.37155
232.6992, 53.59320
233.1813, 54.19504
233.6634, 53.73315
234.1456, 53.08203
234.6277, 52.15585
235.1098, 51.15216
235.5919, 50.27310
236.0740, 49.61258
236.5561, 49.13556
237.0383, 48.73502
237.5204, 48.55658
238.0025, 48.36948
238.4846, 48.28284
238.9667, 48.02017
239.4488, 47.22168
239.9310, 45.72211
240.4131, 43.89127
240.8952, 42.27066
241.3773, 40.26224
241.8594, 38.94363
242.3415, 38.94525
242.8237, 39.62143
243.3058, 40.32349
243.7879, 40.84946
244.2700, 40.98026
244.7521, 40.12845
245.2342, 37.90524
245.7164, 35.54007
246.1985, 32.49509
246.6806, 29.61609
247.1627, 28.53210
247.6448, 29.97186
248.1269, 32.17029
248.6091, 31.67194
249.0912, 27.55780
249.5733, 24.08688
250.0554, 22.53867
250.5375, 22.11884
251.0196, 21.64096
251.5018, 20.78598
251.9839, 19.76077
252.4660, 18.56955
252.9481, 17.08032
253.4302, 16.43448
253.9123, 17.93393
254.3945, 20.25406
254.8766, 21.32962
255.3587, 20.66290
255.8408, 18.94043
256.3229, 16.12686
256.8051, 12.39423
257.2872, 9.950958
257.7693, 10.04324
258.2514, 11.68924
258.7335, 13.37698
259.2156, 14.96072
259.6978, 16.24954
260.1799, 17.19046
260.6620, 17.75800
261.1441, 17.52811
261.6262, 15.47708
262.1083, 12.81012
262.5905, 11.66940
263.0726, 12.55341
263.5547, 13.80820
264.0368, 14.19650
264.5189, 13.95102
265.0010, 13.52347
265.4832, 13.22592
265.9653, 12.87851
266.4474, 11.92633
266.9295, 10.20102
267.4116, 8.609497
267.8937, 7.943115
268.3759, 7.749023
268.8580, 7.347076
269.3401, 6.349670
269.8222, 5.204285
270.3043, 4.623627
270.7864, 4.745605
271.2686, 4.873749
271.7507, 4.739227
272.2328, 4.401672
272.7149, 3.789459
273.1970, 2.701202
273.6791, 1.704346
274.1613, 1.878967
274.6434, 3.583130
275.1255, 4.574799
275.6076, 3.266754
276.0897, 1.220642
276.5718, 0.5332340
277.0540, 1.812195
277.5361, 2.497925
278.0182, 2.321991
278.5003, 1.207489
278.9824, 0.1130680
279.4645, 2.287109
279.9467, 4.145264
280.4288, 4.693329
280.9109, 3.801849
281.3930, 2.441101
281.8751, 1.493286
282.3572, 0.9732360
282.8394, 0.7126770
283.3215, 0.9215700
283.8036, 1.203979
284.2857, 1.250458
284.7678, 1.111145
285.2499, 1.141510
285.7321, 1.861786
286.2142, 3.297729
286.6963, 4.161713
287.1784, 4.119263
287.6605, 3.732513
288.1426, 3.054443
288.6248, 2.206940
289.1069, 1.483124
289.5890, 0.9841920
290.0711, 0.7383730
290.5532, 1.200836
291.0353, 3.137390
291.5175, 4.846436
291.9996, 5.711639
292.4817, 5.888519
292.9638, 5.694397
293.4459, 5.315765
293.9280, 4.722260
294.4102, 3.676849
294.8923, 1.415283
295.3744, 3.5004001E-02
295.8565, 0.6738280
296.3386, 2.218475
296.8207, 2.738770
297.3029, 1.166504
297.7850, 1.438690
298.2671, 2.306396
298.7492, 0.4065550
299.2313, 1.215637
299.7134, 1.873383
300.1956, 1.989288
300.6777, 1.820099
301.1598, 1.446625
301.6419, 1.072113
302.1240, 1.153168
302.6061, 2.025726
303.0883, 2.359833
303.5704, 1.716675
304.0525, 0.6663820
304.5346, 0.7119750
305.0167, 2.292267
305.4988, 3.488708
305.9810, 3.315002
306.4631, 1.313110
306.9452, 0.1558530
307.4273, 1.209625
307.9094, 2.177673
308.3915, 1.698944
308.8737, 2.7404999E-02
309.3558, 1.722412
309.8379, 2.137848
310.3200, 1.209229
310.8021, 0.3029790
311.2842, 1.092804
311.7664, 1.884735
312.2485, 1.259613
312.7306, 0.2700200
313.2127, 1.635742
313.6948, 2.147797
314.1769, 1.868286
314.6591, 1.122864
315.1412, 0.7226260
315.6233, 2.110107
316.1054, 2.485291
316.5875, 2.213715
317.0696, 1.737579
317.5518, 1.238373
318.0339, 0.7523500
318.5160, 0.3212590
318.9981, 0.2754820
319.4802, 0.3131710
319.9623, 1.075623
320.4445, 2.620605
320.9266, 2.941223
321.4087, 1.633270
321.8908, 9.4025001E-02
322.3729, 0.1366580
322.8550, 2.303284
323.3372, 3.586731
323.8193, 1.968506
324.3014, 7.2019999E-03
324.7835, 0.7604060
325.2656, 0.2210390
325.7477, 0.6278380
326.2299, 0.6866150
326.7120, 0.1581120
327.1941, 0.5288090
327.6762, 0.2453610
328.1583, 0.9163510
328.6404, 0.8095700
329.1226, 0.1230160
329.6047, 0.5192570
330.0868, 0.6457520
330.5689, 0.3280640
331.0510, 6.4240001E-02
331.5331, 0.2376100
332.0153, 0.2922970
332.4974, 0.2438660
332.9795, 1.007904
333.4616, 1.512543
333.9437, 1.509949
334.4258, 1.038971
334.9080, 3.4118999E-02
335.3901, 2.033325
335.8722, 3.017120
336.3543, 1.126221
336.8365, 1.543091
337.3186, 2.963135
337.8007, 2.442749
338.2828, 1.605164
338.7649, 2.814545
339.2470, 6.424011
339.7292, 9.195648
340.2113, 9.548126
340.6934, 9.615021
341.1755, 10.95056
341.6576, 13.51810
342.1397, 15.97247
342.6219, 16.86163
343.1040, 16.39865
343.5861, 16.85474
344.0682, 18.55460
344.5503, 20.99149
345.0324, 24.14981
345.5146, 27.72284
345.9967, 30.93320
346.4788, 33.00244
346.9609, 34.52051
347.4430, 37.13281
347.9251, 41.37857
348.4073, 45.28546
348.8894, 47.34494
349.3715, 48.66818
349.8536, 50.59064
350.3357, 53.51089
350.8178, 57.08450
351.3000, 61.13513
351.7821, 65.70364
352.2642, 69.93961
352.7463, 73.23938
353.2284, 76.28409
353.7105, 79.91757
354.1927, 84.21469
354.6748, 88.74783
355.1569, 93.62033
355.6390, 98.49097
356.1211, 102.2852
356.6032, 104.4194
357.0854, 106.4855
357.5675, 110.2180
358.0496, 115.2834
358.5317, 119.9748
359.0138, 122.7734
359.4959, 125.1102
359.9781, 129.9400
360.4602, 137.8535
360.9423, 145.1633
361.4244, 148.7939
361.9065, 149.8148
362.3886, 150.8824
362.8708, 152.0440
363.3529, 153.6155
363.8350, 156.1829
364.3171, 159.6907
364.7992, 163.1036
365.2813, 165.9021
365.7635, 168.1767
366.2456, 170.2442
366.7277, 172.1169
367.2098, 173.8995
367.6919, 175.9818
368.1740, 177.9311
368.6562, 178.7179
369.1383, 177.8803
369.6204, 176.5971
370.1025, 176.3254
370.5846, 177.1353
371.0667, 178.2305
371.5489, 180.4052
372.0310, 182.2455
372.5131, 182.1754
372.9952, 180.2024
373.4773, 177.7703
373.9594, 175.8159
374.4416, 174.4395
374.9237, 174.0141
375.4058, 176.2328
375.8879, 177.5076
376.3700, 175.3294
376.8521, 171.2124
377.3343, 168.4106
377.8164, 168.4167
378.2985, 170.1359
378.7806, 171.2342
379.2627, 172.5411
379.7448, 171.9478
380.2270, 167.1843
380.7091, 161.4552
381.1912, 158.1201
381.6733, 157.8311
382.1554, 158.5639
382.6375, 158.0098
383.1197, 155.8609
383.6018, 153.8382
384.0839, 152.6670
384.5660, 150.9586
385.0481, 147.4812
385.5302, 142.8820
386.0124, 138.8182
386.4945, 136.4371
386.9766, 135.4173
387.4587, 133.9687
387.9408, 132.1781
388.4229, 129.7611
388.9051, 126.2240
389.3872, 122.2808
389.8693, 118.6787
390.3514, 115.6659
390.8335, 112.8658
391.3156, 109.6607
391.7978, 105.7809
392.2799, 102.2266
392.7620, 99.50119
393.2441, 96.60410
393.7262, 92.65729
394.2083, 88.04584
394.6905, 83.91107
395.1726, 81.15628
395.6547, 79.70242
396.1368, 78.82294
396.6189, 79.19589
397.1010, 79.16006
397.5832, 78.52994
398.0653, 77.13815
398.5474, 74.65112
399.0295, 70.82803
399.5116, 66.32501
399.9937, 61.82355
400.4759, 57.03238
400.9580, 53.82175
401.4401, 54.70062
401.9222, 55.85352
402.4043, 54.26831
402.8864, 49.90604
403.3686, 45.50232
403.8507, 43.32935
404.3328, 42.85379
404.8149, 41.68454
405.2970, 39.42499
405.7791, 36.96777
406.2613, 34.76764
406.7434, 32.81824
407.2255, 31.14050
407.7076, 30.00684
408.1897, 28.90564
408.6718, 26.96124
409.1540, 24.22375
409.6361, 22.32321
410.1182, 22.52332
410.6003, 23.47757
411.0824, 22.72461
411.5645, 19.81995
412.0467, 17.05469
412.5288, 15.60867
413.0109, 14.91290
413.4930, 13.86429
413.9751, 12.19720
414.4572, 10.64978
414.9394, 10.08115
415.4215, 10.54773
415.9036, 10.76920
416.3857, 10.68478
416.8678, 10.35483
417.3499, 9.520538
417.8321, 8.413239
418.3142, 7.727814
418.7963, 7.830811
419.2784, 8.668213
419.7605, 10.10931
420.2426, 13.03033
420.7248, 15.34854
421.2069, 16.19818
421.6890, 16.67313
422.1711, 17.91422
422.6532, 20.16476
423.1353, 22.87106
423.6175, 25.30539
424.0996, 27.20148
424.5817, 30.22403
425.0638, 34.63855
425.5459, 39.73120
426.0280, 45.56424
426.5102, 51.83688
426.9923, 58.18423
427.4744, 64.44400
427.9565, 70.40887
428.4386, 75.01004
428.9207, 76.43610
429.4029, 79.88611
429.8850, 87.44305
430.3671, 96.01791
430.8492, 103.2311
431.3313, 108.6621
431.8134, 113.1854
432.2956, 117.6509
432.7777, 122.0740
433.2598, 126.1247
433.7419, 129.6124
434.2241, 132.9109
434.7062, 136.6961
435.1883, 140.4059
435.6704, 142.8772
436.1525, 143.2902
436.6346, 142.6662
437.1168, 142.6563
437.5989, 143.3533
438.0810, 143.7226
438.5631, 143.5672
439.0452, 142.7608
439.5273, 140.9504
440.0095, 137.9844
440.4916, 135.2870
440.9737, 133.9024
441.4558, 133.3218
441.9379, 132.4047
442.4200, 130.8523
442.9022, 129.1801
443.3843, 127.8207
443.8664, 126.7718
444.3485, 125.7426
444.8306, 124.4777
445.3127, 123.6300
445.7949, 123.7777
446.2770, 124.4254
446.7591, 124.4169
447.2412, 123.2397
447.7233, 121.8645
448.2054, 122.2125
448.6876, 125.8943
449.1697, 127.4841
449.6518, 125.2563
450.1339, 121.7737
450.6160, 118.6488
451.0981, 116.2809
451.5803, 114.8208
452.0624, 114.5455
452.5445, 115.2316
453.0266, 114.1825
453.5087, 109.2234
453.9908, 104.9793
454.4730, 102.4017
454.9551, 100.7800
455.4372, 99.52899
455.9193, 98.38229
456.4014, 96.97641
456.8835, 94.68259
457.3657, 91.23767
457.8478, 87.99783
458.3299, 85.14285
458.8120, 82.33075
459.2941, 79.48569
459.7762, 76.62265
460.2584, 73.72778
460.7405, 70.67728
461.2226, 67.73380
461.7047, 65.47488
462.1868, 63.95419
462.6689, 62.37186
463.1511, 60.59836
463.6332, 58.70929
464.1153, 56.38214
464.5974, 53.47919
465.0795, 50.83923
465.5616, 49.02188
466.0438, 47.77310
466.5259, 46.46146
467.0080, 44.97263
467.4901, 43.43039
467.9722, 41.76215
468.4543, 40.13843
468.9365, 39.09213
469.4186, 39.03815
469.9007, 39.05582
470.3828, 38.41559
470.8649, 37.53589
471.3470, 37.72626
471.8292, 39.58887
472.3113, 41.35574
472.7934, 40.07434
473.2755, 33.98434
473.7576, 30.08936
474.2397, 29.81012
474.7219, 30.25452
475.2040, 29.90372
475.6861, 28.78979
476.1682, 27.40939
476.6503, 26.07980
477.1324, 24.90497
477.6146, 24.33240
478.0967, 25.18219
478.5788, 25.28006
479.0609, 23.82681
479.5430, 22.04160
480.0251, 20.93646
480.5073, 20.59802
480.9894, 20.32596
481.4715, 19.38324
481.9536, 17.84009
482.4357, 16.68176
482.9178, 16.19290
483.4000, 15.58810
483.8821, 14.01819
484.3642, 12.30771
484.8463, 11.77701
485.3284, 13.11285
485.8105, 14.50348
486.2927, 14.01303
486.7748, 11.91629
487.2569, 9.809265
487.7390, 7.777252
488.2211, 6.313293
488.7032, 6.446442
489.1854, 7.857239
489.6675, 8.745422
490.1496, 8.379028
490.6317, 7.683075
491.1138, 7.590302
491.5959, 7.869141
492.0781, 7.413574
492.5602, 5.548645
493.0423, 3.098267
493.5244, 1.915466
494.0065, 3.056732
494.4886, 3.462250
494.9708, 2.499786
495.4529, 1.169739
495.9350, 4.6234000E-02
496.4171, 0.9650270
496.8992, 1.277649
497.3813, 0.6239620
497.8635, 0.7181700
498.3456, 0.9513240
498.8277, 1.237762
499.3098, 2.580658
499.7919, 2.053619
500.2740, 0.9034420
500.7562, 1.8890001E-02
501.2383, 0.3555600
501.7204, 0.1586910
502.2025, 1.132538
502.6846, 3.333893
503.1667, 4.140808
503.6489, 2.714478
504.1310, 1.421509
504.6131, 1.768250
505.0952, 2.960876
505.5773, 3.978027
506.0594, 4.744568
506.5416, 4.907990
507.0237, 3.678345
507.5058, 1.530945
507.9879, 0.2640080
508.4700, 0.4710080
508.9521, 0.9539790
509.4343, 0.2322690
509.9164, 1.679382
510.3985, 2.588165
510.8806, 1.726593
511.3627, 0.4565430
511.8448, 0.7044980
512.3270, 1.666840
512.8091, 2.346771
513.2912, 2.703796
513.7733, 2.757660
514.2554, 2.540283
514.7375, 2.003296
515.2197, 1.272217
515.7018, 0.1500850
516.1839, 1.279236
516.6660, 1.502533
517.1481, 1.007874
517.6302, 0.2260440
518.1124, 0.6864320
518.5945, 1.430603
519.0766, 0.9386290
519.5587, 1.490723
520.0408, 2.830658
520.5229, 0.5934140
521.0051, 1.570709
521.4872, 0.5778500
521.9693, 3.166565
522.4514, 6.122131
522.9335, 5.260132
523.4156, 2.572235
523.8978, 2.103302
524.3799, 4.033783
524.8620, 5.392517
525.3441, 4.371460
525.8262, 2.169098
526.3083, 1.355194
526.7905, 2.294250
527.2726, 3.273468
527.7547, 3.839417
528.2368, 4.179108
528.7189, 4.612488
529.2010, 5.102325
529.6832, 5.090820
530.1653, 4.000305
530.6474, 2.122345
531.1295, 1.411285
531.6116, 3.307251
532.0938, 4.595612
532.5759, 3.942200
533.0580, 3.243896
533.5401, 4.616272
534.0222, 8.085358
534.5043, 11.66547
534.9865, 13.50522
535.4686, 13.71594
535.9507, 13.46115
536.4328, 12.12100
536.9149, 11.50223
537.3970, 12.94946
537.8792, 15.07254
538.3613, 16.42972
538.8434, 16.71667
539.3255, 16.60867
539.8076, 16.68930
540.2897, 16.76559
540.7719, 15.99478
541.2540, 14.06885
541.7361, 12.79367
542.2182, 13.85129
542.7003, 16.68875
543.1824, 18.42532
543.6646, 18.72110
544.1467, 18.38348
544.6288, 16.82059
545.1109, 15.14719
545.5930, 15.34412
546.0751, 17.62790
546.5573, 19.71811
547.0394, 18.99734
547.5215, 15.33392
548.0036, 14.07059
548.4857, 18.69016
548.9678, 21.76736
549.4500, 20.41272
549.9321, 17.62241
550.4142, 16.78262
550.8963, 18.73608
551.3784, 21.68277
551.8605, 24.26038
552.3427, 26.37091
552.8248, 26.17795
553.3069, 22.29257
553.7890, 18.83704
554.2711, 18.59842
554.7532, 20.13910
555.2354, 21.68631
555.7175, 23.18204
556.1996, 23.97562
556.6817, 23.01440
557.1638, 21.11801
557.6459, 20.29602
558.1281, 20.95197
558.6102, 21.58212
559.0923, 20.71896
559.5744, 18.47263
560.0565, 17.25797
560.5386, 17.37723
561.0208, 17.88632
561.5029, 19.18616
561.9850, 20.60522
562.4671, 21.40405
562.9492, 21.36179
563.4313, 20.55350
563.9135, 18.90201
564.3956, 16.46191
564.8777, 14.61813
565.3598, 13.26630
565.8419, 12.81247
566.3240, 13.81888
566.8062, 15.32367
567.2883, 16.41614
567.7704, 16.90170
568.2525, 17.13376
568.7346, 17.53525
569.2167, 17.89096
569.6989, 17.53839
570.1810, 16.35312
570.6631, 15.08212
571.1452, 14.19919
571.6273, 13.62247
572.1094, 13.00351
572.5916, 12.18237
573.0737, 11.67148
573.5558, 11.77475
574.0379, 12.18112
574.5200, 12.54572
575.0021, 12.82883
575.4843, 13.26172
575.9664, 14.10898
576.4485, 15.19504
576.9306, 15.37875
577.4127, 13.81161
577.8948, 12.84378
578.3770, 12.81308
578.8591, 13.19910
579.3412, 14.18542
579.8233, 15.63211
580.3054, 16.62064
580.7875, 16.42960
581.2697, 15.39514
581.7518, 14.20828
582.2339, 12.82864
582.7161, 12.17734
583.1982, 13.07156
583.6803, 14.44339
584.1624, 14.65570
584.6445, 13.67609
585.1266, 13.00946
585.6088, 13.00980
586.0909, 13.39996
586.5730, 13.98523
587.0551, 14.75360
587.5372, 15.82162
588.0193, 17.28702
588.5015, 18.81491
588.9836, 19.74533
589.4657, 20.19504
589.9478, 20.06750
590.4299, 17.85208
590.9120, 16.60394
591.3942, 18.17163
591.8763, 21.82297
592.3584, 26.02133
592.8405, 30.23730
593.3226, 34.13376
593.8047, 37.14865
594.2869, 39.28433
594.7690, 40.87619
595.2511, 41.71674
595.7332, 42.43304
596.2153, 43.44006
596.6974, 44.77670
597.1796, 46.63358
597.6617, 49.63385
598.1438, 52.46948
598.6259, 54.64020
599.1080, 56.09412
599.5901, 56.24100
600.0723, 55.13925
600.5544, 54.59048
601.0365, 56.80008
601.5186, 61.89261
602.0007, 64.27112
602.4828, 61.21680
602.9650, 58.67801
603.4471, 58.12753
603.9292, 58.27994
604.4113, 57.83545
604.8934, 56.56567
605.3755, 55.07492
605.8577, 54.09644
606.3398, 53.33496
606.8219, 51.50287
607.3040, 48.38602
607.7861, 45.47699
608.2682, 43.32864
608.7504, 41.79062
609.2325, 40.84814
609.7146, 40.72406
610.1967, 40.19794
610.6788, 38.55197
611.1609, 36.63358
611.6431, 35.34732
612.1252, 34.50220
612.6073, 33.10196
613.0894, 30.55469
613.5715, 27.74838
614.0536, 26.75015
614.5358, 28.53265
615.0179, 29.74139
615.5000, 29.80319
615.9821, 29.85651
616.4642, 30.43475
616.9464, 31.34564
617.4285, 32.15298
617.9106, 32.66119
618.3927, 33.13937
618.8748, 34.20941
619.3569, 35.62112
619.8391, 35.76547
620.3212, 34.03439
620.8033, 32.50104
621.2854, 32.99429
621.7675, 35.16992
622.2496, 36.75571
622.7318, 38.00824
623.2139, 38.36047
623.6960, 37.01678
624.1781, 35.05890
624.6602, 33.59238
625.1423, 32.75653
625.6245, 32.14618
626.1066, 31.44220
626.5887, 30.69348
627.0708, 30.10645
627.5529, 29.69235
628.0350, 29.41995
628.5172, 29.80594
628.9993, 29.91751
629.4814, 28.99368
629.9635, 27.16797
630.4456, 25.25992
630.9277, 23.39648
631.4099, 21.82178
631.8920, 20.86340
632.3741, 20.44211
632.8562, 20.30313
633.3383, 20.40997
633.8204, 20.54169
634.3026, 20.51556
634.7847, 20.38956
635.2668, 19.48083
635.7489, 16.90179
636.2310, 14.70645
636.7131, 13.82892
637.1953, 13.48770
637.6774, 12.79513
638.1595, 11.55127
638.6416, 10.08084
639.1237, 8.569550
639.6058, 7.090851
640.0880, 6.125031
640.5701, 5.885315
641.0522, 5.275452
641.5343, 3.472412
642.0164, 1.391785
642.4985, 0.2615360
642.9807, 0.1315610
643.4628, 0.1894840
643.9449, 0.1687620
644.4270, 0.2869260
644.9091, 0.9542540
645.3912, 1.905853
645.8734, 2.478180
646.3555, 2.400146
646.8376, 1.806763
647.3197, 0.8358150
647.8018, 0.6248470
648.2839, 1.871826
648.7661, 3.316132
649.2482, 4.006073
649.7303, 2.809906
650.2124, 1.121094
650.6945, 0.9519040
651.1766, 2.779938
651.6588, 4.384186
652.1409, 3.495605
652.6230, 1.372925
653.1051, 0.7475890
653.5872, 1.737061
654.0693, 2.771729
654.5515, 3.075409
655.0336, 2.883026
655.5157, 2.712280
655.9978, 2.810974
656.4799, 2.284271
656.9620, 0.2114870
657.4442, 1.577454
657.9263, 1.788849
658.4084, 1.085571
658.8905, 0.6473690
659.3726, 0.9502870
659.8547, 1.878510
660.3369, 3.818085
660.8190, 6.598022
661.3011, 7.529419
661.7832, 5.949341
662.2653, 3.960114
662.7474, 2.424042
663.2296, 1.358124
663.7117, 0.9178770
664.1938, 1.501648
664.6759, 1.376892
665.1580, 1.199066
665.6401, 3.805634
666.1223, 3.855499
666.6044, 1.864868
667.0865, 6.8359002E-02
667.5686, 0.8763120
668.0507, 0.9647220
668.5328, 1.068512
669.0150, 1.189880
669.4971, 1.323151
669.9792, 1.549835
670.4613, 1.679443
670.9434, 1.453064
671.4255, 1.150177
671.9077, 1.276886
672.3898, 2.044739
672.8719, 2.690186
673.3540, 2.512970
673.8361, 2.009216
674.3182, 2.031158
674.8004, 2.574982
675.2825, 2.899017
675.7646, 2.470825
676.2467, 1.919128
676.7288, 2.835388
677.2109, 6.591400
677.6931, 8.590973
678.1752, 7.974121
678.6573, 6.664795
679.1394, 4.943451
679.6215, 3.242279
680.1036, 2.091217
680.5858, 1.659454
681.0679, 1.916779
681.5500, 3.374756
682.0321, 5.450073
682.5142, 6.322113
682.9963, 5.784393
683.4785, 5.236847
683.9606, 5.588226
684.4427, 6.252380
684.9248, 5.691406
685.4069, 2.538910
685.8890, 1.451904
686.3712, 4.500061
686.8533, 7.679901
687.3354, 9.068512
687.8175, 8.982544
688.2996, 7.993866
688.7817, 6.341919
689.2639, 4.947357
689.7460, 5.045837
690.2281, 6.455933
690.7102, 8.106995
691.1923, 10.13379
691.6744, 11.56854
692.1566, 11.88342
692.6387, 11.32834
693.1208, 10.10788
693.6029, 7.789825
694.0850, 6.721008
694.5671, 8.442963
695.0493, 10.41364
695.5314, 10.97202
696.0135, 10.54633
696.4956, 10.15234
696.9777, 10.16583
697.4598, 10.29922
697.9420, 10.16705
698.4241, 9.787292
698.9062, 9.360321
699.3883, 8.447266
699.8704, 8.692291
700.3525, 12.12894
700.8347, 16.24698
701.3168, 17.42331
701.7989, 15.38184
702.2810, 13.45645
702.7631, 12.06720
703.2452, 11.58157
703.7274, 12.99231
704.2095, 15.30685
704.6916, 16.54590
705.1737, 16.09085
705.6558, 14.91522
706.1379, 14.19321
706.6201, 13.87555
707.1022, 13.29520
707.5843, 12.37753
708.0664, 11.79727
708.5485, 11.73514
709.0306, 11.82971
709.5128, 11.79019
709.9949, 11.80252
710.4770, 12.40704
710.9591, 14.29672
711.4412, 16.02054
711.9233, 16.81665
712.4055, 16.72366
712.8876, 15.31415
713.3697, 12.66852
713.8518, 10.38187
714.3339, 10.16553
714.8160, 11.81711
715.2982, 13.11475
715.7803, 13.99371
716.2624, 14.42734
716.7445, 14.01477
717.2266, 13.50809
717.7087, 13.64023
718.1909, 14.16446
718.6730, 14.01996
719.1551, 12.16879
719.6372, 10.50412
720.1193, 10.49072
720.6014, 11.45908
721.0836, 12.35382
721.5657, 12.97385
722.0478, 13.53491
722.5299, 14.19537
723.0120, 14.82941
723.4941, 15.31339
723.9763, 16.27539
724.4584, 16.02527
724.9405, 12.56757
725.4226, 9.656464
725.9047, 9.870117
726.3868, 12.02646
726.8690, 13.57788
727.3511, 13.81625
727.8332, 13.70691
728.3153, 14.00357
728.7974, 14.19058
729.2795, 13.31146
729.7617, 11.52429
730.2438, 9.862091
730.7259, 8.844177
731.2080, 8.553619
731.6901, 9.419403
732.1722, 12.02505
732.6544, 13.27737
733.1365, 12.44977
733.6186, 11.24246
734.1007, 9.816559
734.5828, 8.693420
735.0649, 8.809387
735.5471, 10.40851
736.0292, 11.63025
736.5113, 11.01141
736.9934, 10.08221
737.4755, 10.78680
737.9576, 12.47552
738.4398, 13.03696
738.9219, 11.74371
739.4040, 9.789856
739.8861, 8.601044
740.3682, 8.163269
740.8503, 7.910126
741.3325, 7.773315
741.8146, 7.963409
742.2967, 8.893646
742.7788, 9.906586
743.2609, 10.42969
743.7430, 10.49429
744.2252, 10.51608
744.7073, 10.68353
745.1894, 10.78006
745.6715, 10.64874
746.1536, 10.36386
746.6357, 10.04675
747.1179, 9.715363
747.6000, 9.284454
748.0821, 8.645447
748.5642, 7.942261
749.0463, 7.710175
749.5284, 8.120117
750.0106, 8.226898
750.4927, 7.761322
750.9748, 7.173035
751.4569, 6.825348
751.9390, 6.570190
752.4211, 6.027924
752.9033, 4.887360
753.3854, 4.090210
753.8675, 4.439972
754.3496, 4.924286
754.8317, 4.536011
755.3138, 3.433380
755.7960, 2.133942
756.2781, 0.8728640
756.7602, 5.8288999E-02
757.2423, 0.4972530
757.7244, 2.138550
758.2065, 3.361359
758.6887, 4.034454
759.1708, 4.667145
759.6529, 5.649078
760.1350, 6.551941
760.6171, 6.569305
761.0992, 5.626495
761.5814, 5.076630
762.0635, 5.343140
762.5456, 5.748352
763.0277, 5.949982
763.5098, 6.127350
763.9919, 6.674591
764.4741, 7.551056
764.9562, 8.116272
765.4383, 7.679626
765.9204, 6.844208
766.4025, 6.862091
766.8846, 7.731415
767.3668, 9.603302
767.8489, 12.83560
768.3310, 15.89865
768.8131, 17.44211
769.2952, 17.72696
769.7773, 18.26508
770.2595, 18.51389
770.7416, 19.79556
771.2237, 23.20059
771.7058, 26.71063
772.1879, 28.87839
772.6700, 30.17630
773.1522, 31.66522
773.6343, 33.70532
774.1164, 36.33435
774.5985, 40.09314
775.0806, 44.32651
775.5627, 47.32693
776.0449, 49.12433
776.5270, 51.13766
777.0091, 53.96365
777.4912, 57.38647
777.9733, 60.99680
778.4554, 64.71848
778.9376, 69.52084
779.4197, 76.01501
779.9019, 82.81940
780.3840, 89.81909
780.8661, 96.89627
781.3482, 103.5525
781.8303, 110.0418
782.3124, 117.6589
782.7946, 127.6742
783.2767, 138.1702
783.7588, 147.2509
784.2409, 155.8532
784.7230, 165.3144
785.2051, 175.9833
785.6873, 188.5634
786.1694, 203.6965
786.6515, 220.2459
787.1336, 235.0280
787.6157, 247.3417
788.0978, 261.4525
788.5800, 278.3502
789.0621, 295.8190
789.5442, 312.4710
790.0263, 329.0941
790.5084, 347.4768
790.9905, 368.0666
791.4727, 388.1001
791.9548, 406.2024
792.4369, 424.0360
792.9190, 442.4982
793.4011, 461.6783
793.8832, 482.4781
794.3654, 504.6896
794.8475, 525.4096
795.3296, 541.2927
795.8117, 554.5172
796.2938, 571.4802
796.7759, 592.0347
797.2581, 609.4137
797.7402, 621.6827
798.2223, 631.7346
798.7044, 641.9301
799.1865, 651.9855
799.6686, 660.2563
800.1508, 666.1780
800.6329, 670.9473
801.1150, 674.2557
801.5971, 676.5818
802.0792, 679.1015
802.5613, 680.7433
803.0435, 679.5765
803.5256, 675.0378
804.0077, 667.8793
804.4898, 657.8875
804.9719, 646.1640
805.4540, 634.3257
805.9362, 622.3119
806.4183, 609.4196
806.9004, 595.4163
807.3825, 579.7119
807.8646, 561.3129
808.3467, 540.4542
808.8289, 520.5964
809.3110, 502.5099
809.7931, 483.3583
810.2752, 462.2726
810.7573, 440.2863
811.2394, 417.6240
811.7216, 394.8495
812.2037, 374.1787
812.6858, 356.6245
813.1679, 339.6594
813.6500, 322.3658
814.1321, 305.2801
814.6143, 289.3610
815.0964, 274.1215
815.5785, 257.8357
816.0606, 239.8615
816.5427, 222.3792
817.0248, 208.1680
817.5070, 196.5617
817.9891, 185.6051
818.4712, 175.2082
818.9533, 163.8452
819.4354, 150.6491
819.9175, 137.7794
820.3997, 127.7645
820.8818, 120.5378
821.3639, 113.9913
821.8460, 109.2057
822.3281, 103.4848
822.8102, 95.18005
823.2924, 87.18472
823.7745, 81.72852
824.2566, 77.99332
824.7387, 74.03189
825.2208, 69.29062
825.7029, 64.33087
826.1851, 58.74178
826.6672, 53.63948
827.1493, 51.10629
827.6314, 50.23596
828.1135, 47.73889
828.5956, 42.40146
829.0778, 36.84625
829.5599, 34.63892
830.0420, 35.12567
830.5241, 33.46132
831.0062, 29.19237
831.4883, 25.98190
831.9705, 25.16521
832.4526, 24.98061
832.9347, 23.80417
833.4168, 21.77553
833.8989, 20.09775
834.3810, 19.01332
834.8632, 17.82631
835.3453, 16.26248
835.8274, 14.79967
836.3095, 13.41769
836.7916, 12.43086
837.2737, 12.83762
837.7559, 15.06364
838.2380, 16.21478
838.7201, 12.95998
839.2022, 8.206650
839.6843, 5.938049
840.1664, 5.689484
840.6486, 5.526291
841.1307, 4.823181
841.6128, 3.864258
842.0949, 2.894409
842.5770, 2.032745
843.0591, 1.975418
843.5413, 3.024506
844.0234, 3.132141
844.5055, 1.296280
844.9876, 0.2048650
845.4697, 0.6589360
845.9518, 2.889725
846.4340, 3.638885
846.9161, 2.505569
847.3982, 1.064743
847.8803, 1.341019
848.3624, 3.119629
848.8445, 3.116501
849.3267, 2.183533
849.8088, 1.254578
850.2909, 0.5998540
850.7730, 0.5189670
851.2551, 1.863297
851.7372, 3.255005
852.2194, 2.577438
852.7015, 0.6956790
853.1836, 7.1870000E-03
853.6657, 0.7481380
854.1478, 1.166367
854.6299, 4.5120001E-02
855.1121, 1.975632
855.5942, 2.553482
856.0763, 1.650146
856.5584, 0.3060150
857.0405, 1.876221
857.5226, 3.341904
858.0048, 3.383453
858.4869, 2.435013
858.9690, 0.7100220
859.4511, 2.008224
859.9332, 3.586914
860.4153, 3.288483
860.8975, 2.483444
861.3796, 0.7865600
861.8617, 0.6392970
862.3438, 0.4573670
862.8259, 0.8465420
863.3080, 1.637634
863.7902, 1.160965
864.2723, 0.4016570
864.7544, 4.2052999E-02
865.2365, 7.4160001E-03
865.7186, 0.3104400
866.2007, 0.8320770
866.6829, 0.9370420
867.1650, 0.4044040
867.6471, 0.2197720
868.1292, 0.1815640
868.6113, 0.3261410
869.0934, 1.4404000E-02
869.5756, 1.244797
870.0577, 2.510101
870.5398, 3.807220
871.0219, 4.481277
871.5040, 3.803986
871.9861, 2.150909
872.4683, 0.9042510
872.9504, 0.3755800
873.4325, 0.3273320
873.9146, 1.799789
874.3967, 2.777969
874.8788, 2.337067
875.3610, 1.299118
875.8431, 0.7276150
876.3252, 0.7593690
876.8073, 0.7962950
877.2894, 0.3790130
877.7715, 4.3593999E-02
878.2537, 0.2554930
878.7358, 0.7871550
879.2179, 1.479568
879.7000, 2.170181
880.1821, 2.260788
880.6642, 1.332565
881.1464, 0.4516910
881.6285, 1.754349
882.1106, 4.679871
882.5927, 5.904770
883.0748, 5.241623
883.5569, 4.285522
884.0391, 3.552628
884.5212, 3.055389
885.0033, 2.770630
885.4854, 2.714249
885.9675, 3.238663
886.4496, 5.057266
886.9318, 6.035507
887.4139, 5.435379
887.8960, 4.418610
888.3781, 3.323792
888.8602, 2.362686
889.3423, 2.022049
889.8245, 2.532257
890.3066, 2.858353
890.7887, 2.416748
891.2708, 2.037933
891.7529, 2.335571
892.2350, 2.933929
892.7172, 3.278320
893.1993, 3.322525
893.6814, 3.427429
894.1635, 3.817734
894.6456, 4.348907
895.1277, 4.962509
895.6099, 5.547607
896.0920, 5.925552
896.5741, 6.036438
897.0562, 5.544907
897.5383, 4.260376
898.0204, 2.956787
898.5026, 2.866333
898.9847, 3.868317
899.4668, 4.313385
899.9489, 4.024185
900.4310, 4.299927
900.9131, 5.830841
901.3953, 7.157471
901.8774, 6.773392
902.3595, 5.185776
902.8416, 4.726120
903.3237, 6.366821
903.8058, 7.399948
904.2880, 7.680466
904.7701, 7.555084
905.2522, 6.841873
905.7343, 5.940582
906.2164, 5.438416
906.6985, 5.438980
907.1807, 5.270676
907.6628, 4.242584
908.1449, 3.468216
908.6270, 3.890869
909.1091, 4.571198
909.5912, 4.378525
910.0734, 3.596024
910.5555, 3.113251
911.0376, 3.226044
911.5197, 3.762985
912.0018, 5.112259
912.4839, 6.665283
912.9661, 6.805695
913.4482, 5.727814
913.9303, 4.444626
914.4124, 3.251083
914.8945, 2.329834
915.3766, 2.046951
915.8588, 2.130783
916.3409, 1.095627
916.8230, 1.359680
917.3051, 1.195908
917.7872, 2.899704
918.2693, 6.076187
918.7515, 5.473373
919.2336, 3.299194
919.7157, 2.984543
920.1978, 4.885910
920.6799, 5.988312
921.1620, 5.341095
921.6442, 5.066238
922.1263, 5.457809
922.6084, 6.254761
923.0905, 7.678268
923.5726, 9.337357
924.0547, 10.44527
924.5369, 10.95900
925.0190, 10.33463
925.5011, 6.698608
925.9832, 3.642334
926.4653, 4.259949
926.9474, 6.548080
927.4296, 7.595673
927.9117, 7.050369
928.3938, 6.272964
928.8759, 6.088608
929.3580, 6.126236
929.8401, 5.989365
930.3223, 5.730362
930.8044, 5.323639
931.2865, 4.882721
931.7686, 4.708466
932.2507, 4.879745
932.7328, 5.628754
933.2150, 7.581558
933.6971, 10.08392
934.1792, 10.19661
934.6613, 7.924561
935.1434, 6.574677
935.6255, 6.807022
936.1077, 7.802444
936.5898, 9.257233
937.0719, 10.70012
937.5540, 11.03214
938.0361, 10.01659
938.5182, 8.903854
939.0004, 6.837845
939.4825, 6.481216
939.9646, 9.951447
940.4467, 13.95984
940.9288, 15.26321
941.4109, 14.48643
941.8931, 14.33368
942.3752, 15.29503
942.8573, 16.13191
943.3394, 16.28593
943.8215, 16.76024
944.3036, 18.42177
944.7858, 20.49622
945.2679, 21.88562
945.7500, 22.51660
946.2321, 23.28238
946.7142, 24.87476
947.1964, 26.29289
947.6785, 26.30560
948.1606, 26.32199
948.6427, 28.41350
949.1248, 31.83383
949.6069, 34.03099
950.0891, 34.13515
950.5712, 34.62482
951.0533, 38.24846
951.5354, 43.39784
952.0175, 47.51491
952.4996, 50.93889
952.9818, 54.53783
953.4639, 58.52106
953.9460, 62.83575
954.4281, 67.40732
954.9102, 72.40784
955.3923, 78.32076
955.8745, 85.00519
956.3566, 90.74161
956.8387, 95.47549
957.3208, 100.6705
957.8029, 106.6451
958.2850, 114.2967
958.7672, 124.9084
959.2493, 137.4449
959.7314, 147.1694
960.2135, 152.5186
960.6956, 161.1260
961.1777, 174.4890
961.6599, 188.2525
962.1420, 199.9712
962.6241, 211.8061
963.1062, 226.9555
963.5883, 245.3777
964.0704, 262.5617
964.5526, 277.2364
965.0347, 292.5563
965.5168, 308.9421
965.9989, 325.8477
966.4810, 343.4945
966.9631, 361.2651
967.4453, 378.1964
967.9274, 394.1979
968.4095, 410.7423
968.8916, 428.9643
969.3737, 446.9698
969.8558, 463.5533
970.3380, 479.9120
970.8201, 496.3953
971.3022, 513.7759
971.7843, 534.1003
972.2664, 558.1834
972.7485, 580.9692
973.2307, 599.1501
973.7128, 614.4497
974.1949, 628.8613
974.6770, 641.1181
975.1591, 649.9192
975.6412, 654.9575
976.1234, 656.0901
976.6055, 653.4678
977.0876, 645.5594
977.5698, 629.9820
978.0519, 608.0221
978.5340, 581.5891
979.0161, 551.2427
979.4982, 518.1857
979.9803, 482.8443
980.4625, 446.4878
980.9446, 409.9436
981.4267, 373.5216
981.9088, 337.0325
982.3909, 300.8871
982.8730, 268.2997
983.3552, 239.5365
983.8373, 214.4894
984.3194, 193.4197
984.8015, 174.2402
985.2836, 154.3989
985.7657, 134.6855
986.2479, 119.1069
986.7300, 108.2502
987.2121, 98.43869
987.6942, 89.38539
988.1763, 81.16235
988.6584, 73.87679
989.1406, 67.36813
989.6227, 61.49255
990.1048, 56.21428
990.5869, 51.59468
991.0690, 47.65906
991.5511, 44.37227
992.0333, 42.41452
992.5154, 40.22261
992.9975, 36.39648
993.4796, 32.09302
993.9617, 29.17639
994.4438, 27.75455
994.9260, 26.49965
995.4081, 25.59744
995.8902, 24.47887
996.3723, 22.72234
996.8544, 21.00523
997.3365, 19.66098
997.8187, 18.73013
998.3008, 18.47937
998.7829, 19.07874
999.2650, 18.83577
999.7471, 16.24414
1000.229, 13.92854
1000.711, 13.53973
1001.193, 13.63785
1001.676, 12.58418
1002.158, 10.82130
1002.640, 10.03534
1003.122, 10.86900
1003.604, 11.16423
1004.086, 9.231003
1004.568, 6.767242
1005.050, 4.645813
1005.533, 3.144363
1006.015, 2.641754
1006.497, 3.069000
1006.979, 4.300293
1007.461, 6.412537
1007.943, 7.916412
1008.425, 7.165070
1008.907, 5.315002
1009.389, 3.500946
1009.872, 1.887207
1010.354, 0.6561890
1010.836, 0.1370850
1011.318, 0.3680420
1011.800, 8.0292001E-02
1012.282, 0.7352910
1012.764, 1.109375
1013.246, 1.218445
1013.729, 1.062775
1014.211, 0.6759030
1014.693, 0.1009220
1015.175, 1.161865
1015.657, 1.205750
1016.139, 0.8611760
1016.621, 3.306580
1017.103, 2.666779
1017.585, 0.2183230
1018.068, 1.511322
1018.550, 1.224365
1019.032, 0.7549130
1019.514, 0.5000310
1019.996, 0.5776060
1020.478, 1.180267
1020.960, 1.842285
1021.442, 1.344330
1021.924, 0.2610470
1022.407, 1.884888
1022.889, 3.555206
1023.371, 3.875153
1023.853, 2.270813
1024.335, 2.8534001E-02
1024.817, 2.159515
1025.299, 3.737579
1025.781, 3.233978
1026.264, 0.2697450
1026.746, 1.684265
1027.228, 2.525421
1027.710, 2.190155
1028.192, 0.2127380
1028.674, 1.641357
1029.156, 1.410522
1029.638, 0.1483760
1030.120, 0.3301390
1030.603, 4.010498
1031.085, 5.257324
1031.567, 3.166199
1032.049, 0.5323790
1032.531, 2.258942
1033.013, 4.330353
1033.495, 4.630737
1033.977, 3.469818
1034.459, 2.333801
1034.942, 0.7173160
1035.424, 0.4093320
1035.906, 2.555908
1036.388, 4.036865
1036.870, 3.060516
1037.352, 1.736786
1037.834, 2.273438
1038.316, 4.348938
1038.799, 6.040161
1039.281, 7.425903
1039.763, 8.285278
1040.245, 8.439941
1040.727, 8.305328
1041.209, 7.599304
1041.691, 6.990051
1042.173, 7.340790
1042.656, 8.407349
1043.138, 8.857483
1043.620, 7.967041
1044.102, 7.817383
1044.584, 9.302521
1045.066, 10.58563
1045.548, 11.11298
1046.030, 11.04050
1046.512, 10.06940
1046.995, 8.577057
1047.477, 8.179718
1047.959, 9.445984
1048.441, 10.90714
1048.923, 13.08743
1049.405, 14.51828
1049.887, 13.73392
1050.369, 12.57706
1050.851, 12.72049
1051.334, 14.16336
1051.816, 16.64209
1052.298, 21.36923
1052.780, 23.64594
1053.262, 20.25510
1053.744, 16.79443
1054.226, 16.06064
1054.708, 16.33966
1055.191, 15.91324
1055.673, 14.83649
1056.155, 13.91281
1056.637, 13.37302
1057.119, 12.76947
1057.601, 11.28589
1058.083, 10.52078
1058.565, 12.14581
1059.047, 14.19260
1059.530, 14.63553
1060.012, 13.71732
1060.494, 12.70291
1060.976, 11.79513
1061.458, 11.28751
1061.940, 11.53558
1062.422, 11.90424
1062.904, 11.94501
1063.386, 12.03003
1063.869, 13.05716
1064.351, 14.39789
1064.833, 14.12704
1065.315, 11.52243
1065.797, 9.195953
1066.279, 7.886658
1066.761, 7.525208
1067.243, 8.537720
1067.726, 10.10934
1068.208, 12.11194
1068.690, 13.85406
1069.172, 13.74112
1069.654, 11.28342
1070.136, 9.316406
1070.618, 9.047974
1071.100, 9.607361
1071.583, 11.12665
1072.065, 12.74902
1072.547, 13.57349
1073.029, 13.84964
1073.511, 14.56284
1073.993, 15.97141
1074.475, 16.67279
1074.957, 15.07388
1075.439, 13.84998
1075.922, 15.04227
1076.404, 16.58734
1076.886, 16.37488
1077.368, 15.14374
1077.850, 14.39560
1078.332, 14.41846
1078.814, 14.97324
1079.296, 16.59628
1079.779, 18.03598
1080.261, 18.79523
1080.743, 18.88098
1081.225, 17.62424
1081.707, 16.01822
1082.189, 15.59610
1082.671, 16.41013
1083.153, 17.45169
1083.635, 18.74005
1084.118, 19.92969
1084.600, 20.85165
1085.082, 21.22958
1085.564, 20.59256
1086.046, 19.43951
1086.528, 18.19125
1087.010, 17.11423
1087.492, 16.52124
1087.974, 16.22333
1088.457, 16.67410
1088.939, 19.63086
1089.421, 22.23837
1089.903, 22.15866
1090.385, 20.87814
1090.867, 20.21817
1091.349, 20.18027
1091.831, 19.77469
1092.314, 18.46323
1092.796, 17.92084
1093.278, 19.80670
1093.760, 21.36575
1094.242, 20.85068
1094.724, 19.58557
1095.206, 18.26334
1095.688, 17.43329
1096.171, 18.50192
1096.653, 22.16223
1097.135, 24.27765
1097.617, 22.29608
1098.099, 20.29428
1098.581, 19.87817
1099.063, 20.05875
1099.545, 20.58127
1100.027, 20.89258
1100.510, 19.71725
1100.992, 16.83691
1101.474, 15.09512
1101.956, 15.53766
1102.438, 16.63205
1102.920, 19.74527
1103.402, 21.52649
1103.884, 17.99036
1104.366, 12.92569
1104.849, 12.36578
1105.331, 16.31030
1105.813, 18.33527
1106.295, 15.58612
1106.777, 13.87997
1107.259, 14.77472
1107.741, 15.93622
1108.223, 16.71634
1108.706, 16.92444
1109.188, 16.18970
1109.670, 14.69278
1110.152, 13.34674
1110.634, 11.95505
1111.116, 11.28381
1111.598, 11.67126
1112.080, 12.35315
1112.563, 13.82300
1113.045, 14.88638
1113.527, 14.07556
1114.009, 12.23248
1114.491, 11.80417
1114.973, 13.41629
1115.455, 13.74619
1115.937, 11.87207
1116.419, 10.31616
1116.901, 9.296356
1117.384, 9.045593
1117.866, 9.976471
1118.348, 11.52054
1118.830, 12.85077
1119.312, 13.97998
1119.794, 14.39066
1120.276, 13.73111
1120.758, 13.25552
1121.241, 13.23120
1121.723, 12.98279
1122.205, 12.02194
1122.687, 11.10825
1123.169, 11.34747
1123.651, 12.32172
1124.133, 11.51239
1124.615, 8.289459
1125.098, 6.427917
1125.580, 6.272949
1126.062, 6.745911
1126.544, 7.713989
1127.026, 8.451721
1127.508, 8.367828
1127.990, 8.016113
1128.472, 8.704590
1128.954, 10.35727
1129.437, 10.57101
1129.919, 9.312439
1130.401, 7.759216
1130.883, 6.055023
1131.365, 5.675751
1131.847, 7.693634
1132.329, 10.24380
1132.811, 10.26392
1133.293, 8.544647
1133.776, 8.858185
1134.258, 10.85434
1134.740, 10.87549
1135.222, 8.693207
1135.704, 7.315613
1136.186, 7.940063
1136.668, 9.206940
1137.150, 9.863373
1137.633, 10.08673
1138.115, 10.25137
1138.597, 10.30161
1139.079, 9.881775
1139.561, 9.223358
1140.043, 9.219757
1140.525, 9.928833
1141.007, 9.972107
1141.490, 8.285797
1141.972, 6.849365
1142.454, 8.859589
1142.936, 12.17966
1143.418, 13.66541
1143.900, 13.58093
1144.382, 11.94244
1144.864, 9.428345
1145.346, 7.836456
1145.828, 7.878937
1146.311, 8.587585
1146.793, 9.825073
1147.275, 10.65198
1147.757, 9.516968
1148.239, 8.007050
1148.721, 8.018738
1149.203, 9.156647
1149.685, 10.77988
1150.168, 12.45895
1150.650, 12.69119
1151.132, 9.835541
1151.614, 7.710541
1152.096, 9.191803
1152.578, 11.21951
1153.060, 12.05054
1153.542, 11.99869
1154.025, 11.39206
1154.507, 10.38293
1154.989, 9.129486
1155.471, 7.470123
1155.953, 6.457733
1156.435, 6.854095
1156.917, 7.265533
1157.399, 7.003113
1157.881, 6.873993
1158.364, 7.744995
1158.846, 8.962219
1159.328, 9.438202
1159.810, 9.124084
1160.292, 8.407440
1160.774, 6.400452
1161.256, 5.638855
1161.738, 7.044708
1162.220, 8.387299
1162.703, 8.857697
1163.185, 8.957245
1163.667, 9.215149
1164.149, 9.452850
1164.631, 8.983429
1165.113, 7.561066
1165.595, 7.004730
1166.077, 7.581787
1166.560, 7.919342
1167.042, 7.804504
1167.524, 6.940369
1168.006, 4.922485
1168.488, 2.995422
1168.970, 3.395782
1169.452, 5.395050
1169.934, 4.773010
1170.417, 1.788696
1170.899, 0.3573000
1171.381, 0.7947080
1171.863, 1.953430
1172.345, 3.391113
1172.827, 4.628571
1173.309, 5.369934
1173.791, 5.429993
1174.273, 3.923309
1174.755, 1.761841
1175.238, 1.394867
1175.720, 2.221100
1176.202, 2.344849
1176.684, 1.583191
1177.166, 0.7326050
1177.648, 0.1648860
1178.130, 0.1340330
1178.612, 1.526642
1179.095, 2.766205
1179.577, 1.661926
1180.059, 1.6479000E-02
1180.541, 8.8500999E-02
1181.023, 0.9833070
1181.505, 2.126770
1181.987, 3.042328
1182.469, 3.628387
1182.952, 3.907288
1183.434, 3.638672
1183.916, 2.681946
1184.398, 1.183594
1184.880, 2.089539
1185.362, 4.744690
1185.844, 3.658203
1186.326, 0.3447270
1186.808, 1.276520
1187.291, 0.6395870
1187.773, 3.7170000E-02
1188.255, 0.6907960
1188.737, 1.138031
1189.219, 1.687408
1189.701, 1.539581
1190.183, 0.1913450
1190.665, 2.121643
1191.147, 2.828918
1191.630, 2.489624
1192.112, 1.754211
1192.594, 0.4754940
1193.076, 0.4839780
1193.558, 1.102386
1194.040, 1.554657
1194.522, 1.930817
1195.004, 1.709991
1195.487, 0.4383240
1195.969, 0.8379520
1196.451, 0.5649410
1196.933, 0.8303530
1197.415, 1.961792
1197.897, 2.742004
1198.379, 2.429901
1198.861, 1.158356
1199.344, 2.1606000E-02
1199.826, 0.6347050
1200.308, 0.7351990
1200.790, 0.1169430
1201.272, 0.2795720
1201.754, 1.443298
1202.236, 3.457794
1202.718, 2.475189
1203.200, 0.2967530
1203.682, 6.4879999E-02
1204.165, 1.599518
1204.647, 3.318878
1205.129, 4.724060
1205.611, 5.896729
1206.093, 7.205048
1206.575, 7.718262
1207.057, 6.630585
1207.539, 4.943573
1208.022, 1.997253
1208.504, 0.1661380
1208.986, 1.997131
1209.468, 6.998505
1209.950, 8.918274
1210.432, 6.197479
1210.914, 4.240234
1211.396, 3.889374
1211.879, 3.572296
1212.361, 2.243835
1212.843, 2.392731
1213.325, 6.761383
1213.807, 10.99393
1214.289, 9.031311
1214.771, 2.754242
1215.253, 1.828186
1215.735, 7.139771
1216.218, 9.461945
1216.700, 8.372406
1217.182, 7.117157
1217.664, 6.418488
1218.146, 6.771027
1218.628, 8.537476
1219.110, 10.61368
1219.592, 11.80121
1220.074, 11.97464
1220.557, 10.14026
1221.039, 7.315216
1221.521, 5.787903
1222.003, 5.635986
1222.485, 6.655853
1222.967, 8.433746
1223.449, 9.508881
1223.931, 9.130554
1224.414, 7.762085
1224.896, 4.243835
1225.378, 1.762421
1225.860, 3.747772
1226.342, 6.928436
1226.824, 7.526978
1227.306, 6.607025
1227.788, 7.066803
1228.271, 9.126709
1228.753, 9.803711
1229.235, 6.587494
1229.717, 5.458862
1230.199, 9.683594
1230.681, 12.67343
1231.163, 11.41251
1231.645, 9.454956
1232.127, 9.756592
1232.609, 10.99792
1233.092, 10.38824
1233.574, 7.981750
1234.056, 7.441864
1234.538, 9.955719
1235.020, 11.54227
1235.502, 11.25415
1235.984, 11.24716
1236.466, 12.56375
1236.949, 13.88223
1237.431, 13.83246
1237.913, 13.20554
1238.395, 13.72186
1238.877, 14.57971
1239.359, 13.71930
1239.841, 11.56021
1240.323, 9.268463
1240.806, 7.637787
1241.288, 7.349396
1241.770, 8.050507
1242.252, 8.558960
1242.734, 8.314423
1243.216, 7.805542
1243.698, 7.698242
1244.180, 7.685699
1244.662, 7.867279
1245.145, 7.733368
1245.627, 6.411407
1246.109, 4.645203
1246.591, 3.143158
1247.073, 1.818512
1247.555, 2.213104
1248.037, 6.474304
1248.519, 8.603149
1249.001, 6.859711
1249.484, 5.630554
1249.966, 6.248535
1250.448, 7.430634
1250.930, 8.339417
1251.412, 8.987030
1251.894, 9.416962
1252.376, 9.582062
1252.858, 9.192078
1253.341, 8.322113
1253.823, 7.221588
1254.305, 6.108032
1254.787, 7.145294
1255.269, 10.45746
1255.751, 12.14615
1256.233, 9.227448
1256.715, 5.518768
1257.198, 4.785828
1257.680, 5.386353
1258.162, 5.848938
1258.644, 6.195404
1259.126, 6.009186
1259.608, 5.937622
1260.090, 8.086487
1260.572, 12.26248
1261.054, 13.72910
1261.536, 8.960480
1262.019, 6.487915
1262.501, 10.11554
1262.983, 13.22165
1263.465, 13.73886
1263.947, 13.16513
1264.429, 12.10168
1264.911, 10.72635
1265.393, 9.538635
1265.876, 8.499908
1266.358, 7.005188
1266.840, 4.998810
1267.322, 4.322906
1267.804, 5.052765
1268.286, 6.130524
1268.768, 7.257172
1269.250, 7.500397
1269.733, 6.339203
1270.215, 4.991547
1270.697, 4.887115
1271.179, 5.260315
1271.661, 5.053711
1272.143, 4.605530
1272.625, 4.161163
1273.107, 3.970276
1273.589, 4.448212
1274.072, 5.547882
1274.554, 7.151611
1275.036, 9.460480
1275.518, 10.18423
1276.000, 7.285950
1276.482, 4.630371
1276.964, 3.454803
1277.446, 2.558197
1277.929, 0.5732120
1278.411, 0.6439510
1278.893, 0.9622500
1279.375, 4.488892
1279.857, 7.570526
1280.339, 9.509705
1280.821, 7.392426
1281.303, 6.336670
1281.786, 3.593323
1282.268, 0.0000000E+00
##END=



