##NAMES=Olsacherite
##RRUFFID=R140741
##IDEAL CHEMISTRY=Pb^2+^_2_(Se^6+^O_4_)(S^6+^O_4_)
##LOCALITY=Virgen De Surumi mine, Pakajake Canyon, Chayanta Province, Potos√≠ Department, Bolivia
##OWNER=RRUFF
##SOURCE=Rock Currier
##DESCRIPTION=Sprays of colorless prismatic crystals. This sample was originally labeled as mandarinoite.
##STATUS=The identification of this mineral has been confirmed by X-ray diffraction.
##URL=rruff.info/R140741
8.813672e+001, 5.683334e+002
8.861884e+001, 5.738956e+002
8.910095e+001, 5.809395e+002
8.958307e+001, 5.914839e+002
9.006519e+001, 6.031109e+002
9.054730e+001, 6.130967e+002
9.102942e+001, 6.219857e+002
9.151154e+001, 6.293843e+002
9.199365e+001, 6.345536e+002
9.247577e+001, 6.380770e+002
9.295789e+001, 6.412831e+002
9.344000e+001, 6.454233e+002
9.392212e+001, 6.493550e+002
9.440424e+001, 6.507565e+002
9.488635e+001, 6.497614e+002
9.536847e+001, 6.485610e+002
9.585059e+001, 6.504207e+002
9.633270e+001, 6.551434e+002
9.681482e+001, 6.597522e+002
9.729694e+001, 6.626096e+002
9.777905e+001, 6.638183e+002
9.826117e+001, 6.642348e+002
9.874329e+001, 6.633159e+002
9.922540e+001, 6.622355e+002
9.970752e+001, 6.639532e+002
1.001896e+002, 6.686705e+002
1.006718e+002, 6.749869e+002
1.011539e+002, 6.824935e+002
1.016360e+002, 6.918179e+002
1.021181e+002, 6.996158e+002
1.026002e+002, 7.052471e+002
1.030823e+002, 7.089661e+002
1.035645e+002, 7.121209e+002
1.040466e+002, 7.137107e+002
1.045287e+002, 7.161296e+002
1.050108e+002, 7.216218e+002
1.054929e+002, 7.317432e+002
1.059750e+002, 7.420881e+002
1.064572e+002, 7.518075e+002
1.069393e+002, 7.607949e+002
1.074214e+002, 7.707179e+002
1.079035e+002, 7.828287e+002
1.083856e+002, 7.953878e+002
1.088677e+002, 8.062794e+002
1.093499e+002, 8.131433e+002
1.098320e+002, 8.209078e+002
1.103141e+002, 8.310983e+002
1.107962e+002, 8.453288e+002
1.112783e+002, 8.575817e+002
1.117604e+002, 8.666154e+002
1.122426e+002, 8.737783e+002
1.127247e+002, 8.809363e+002
1.132068e+002, 8.874492e+002
1.136889e+002, 8.947533e+002
1.141710e+002, 9.036034e+002
1.146531e+002, 9.152595e+002
1.151353e+002, 9.261708e+002
1.156174e+002, 9.353695e+002
1.160995e+002, 9.431997e+002
1.165816e+002, 9.506722e+002
1.170637e+002, 9.589061e+002
1.175458e+002, 9.664157e+002
1.180280e+002, 9.721476e+002
1.185101e+002, 9.746566e+002
1.189922e+002, 9.767526e+002
1.194743e+002, 9.796370e+002
1.199564e+002, 9.832674e+002
1.204385e+002, 9.874284e+002
1.209207e+002, 9.927778e+002
1.214028e+002, 9.983427e+002
1.218849e+002, 1.002993e+003
1.223670e+002, 1.006013e+003
1.228491e+002, 1.008238e+003
1.233312e+002, 1.009945e+003
1.238134e+002, 1.011177e+003
1.242955e+002, 1.012971e+003
1.247776e+002, 1.017093e+003
1.252597e+002, 1.022353e+003
1.257418e+002, 1.026385e+003
1.262239e+002, 1.026523e+003
1.267061e+002, 1.025264e+003
1.271882e+002, 1.027301e+003
1.276703e+002, 1.032940e+003
1.281524e+002, 1.038785e+003
1.286345e+002, 1.040318e+003
1.291166e+002, 1.038495e+003
1.295988e+002, 1.037636e+003
1.300809e+002, 1.041002e+003
1.305630e+002, 1.047158e+003
1.310451e+002, 1.050863e+003
1.315272e+002, 1.051416e+003
1.320093e+002, 1.051006e+003
1.324915e+002, 1.053421e+003
1.329736e+002, 1.058641e+003
1.334557e+002, 1.063005e+003
1.339378e+002, 1.063869e+003
1.344199e+002, 1.061431e+003
1.349020e+002, 1.059508e+003
1.353842e+002, 1.058218e+003
1.358663e+002, 1.057626e+003
1.363484e+002, 1.058468e+003
1.368305e+002, 1.061224e+003
1.373126e+002, 1.062879e+003
1.377947e+002, 1.060871e+003
1.382769e+002, 1.054434e+003
1.387590e+002, 1.049385e+003
1.392411e+002, 1.046960e+003
1.397232e+002, 1.046155e+003
1.402053e+002, 1.043146e+003
1.406874e+002, 1.037347e+003
1.411696e+002, 1.030522e+003
1.416517e+002, 1.024047e+003
1.421338e+002, 1.018311e+003
1.426159e+002, 1.011872e+003
1.430980e+002, 1.004247e+003
1.435801e+002, 9.956642e+002
1.440623e+002, 9.880259e+002
1.445444e+002, 9.824313e+002
1.450265e+002, 9.766935e+002
1.455086e+002, 9.690792e+002
1.459907e+002, 9.582460e+002
1.464728e+002, 9.476089e+002
1.469550e+002, 9.372837e+002
1.474371e+002, 9.272633e+002
1.479192e+002, 9.185900e+002
1.484013e+002, 9.113800e+002
1.488834e+002, 9.054587e+002
1.493655e+002, 9.006414e+002
1.498477e+002, 8.994949e+002
1.503298e+002, 8.967264e+002
1.508119e+002, 8.910541e+002
1.512940e+002, 8.819750e+002
1.517761e+002, 8.729224e+002
1.522583e+002, 8.636470e+002
1.527404e+002, 8.547050e+002
1.532225e+002, 8.466154e+002
1.537046e+002, 8.396590e+002
1.541867e+002, 8.334398e+002
1.546688e+002, 8.280748e+002
1.551510e+002, 8.237737e+002
1.556331e+002, 8.193031e+002
1.561152e+002, 8.154542e+002
1.565973e+002, 8.111560e+002
1.570794e+002, 8.050062e+002
1.575615e+002, 7.936622e+002
1.580437e+002, 7.828450e+002
1.585258e+002, 7.750541e+002
1.590079e+002, 7.714025e+002
1.594900e+002, 7.682111e+002
1.599721e+002, 7.653997e+002
1.604542e+002, 7.622665e+002
1.609364e+002, 7.575787e+002
1.614185e+002, 7.487062e+002
1.619006e+002, 7.396572e+002
1.623827e+002, 7.327097e+002
1.628648e+002, 7.286532e+002
1.633469e+002, 7.256720e+002
1.638291e+002, 7.241554e+002
1.643112e+002, 7.232132e+002
1.647933e+002, 7.207423e+002
1.652754e+002, 7.142118e+002
1.657575e+002, 7.066793e+002
1.662396e+002, 7.005849e+002
1.667218e+002, 6.971146e+002
1.672039e+002, 6.938286e+002
1.676860e+002, 6.883787e+002
1.681681e+002, 6.816987e+002
1.686502e+002, 6.765240e+002
1.691323e+002, 6.764000e+002
1.696145e+002, 6.777585e+002
1.700966e+002, 6.768732e+002
1.705787e+002, 6.718724e+002
1.710608e+002, 6.659356e+002
1.715429e+002, 6.615016e+002
1.720250e+002, 6.583389e+002
1.725072e+002, 6.555850e+002
1.729893e+002, 6.529624e+002
1.734714e+002, 6.502603e+002
1.739535e+002, 6.470648e+002
1.744356e+002, 6.426053e+002
1.749177e+002, 6.383829e+002
1.753999e+002, 6.363903e+002
1.758820e+002, 6.363710e+002
1.763641e+002, 6.363682e+002
1.768462e+002, 6.352450e+002
1.773283e+002, 6.331046e+002
1.778104e+002, 6.299883e+002
1.782926e+002, 6.251756e+002
1.787747e+002, 6.201118e+002
1.792568e+002, 6.170002e+002
1.797389e+002, 6.158065e+002
1.802210e+002, 6.152300e+002
1.807031e+002, 6.145364e+002
1.811853e+002, 6.136588e+002
1.816674e+002, 6.124439e+002
1.821495e+002, 6.110735e+002
1.826316e+002, 6.092067e+002
1.831137e+002, 6.054124e+002
1.835958e+002, 5.996001e+002
1.840780e+002, 5.947081e+002
1.845601e+002, 5.944274e+002
1.850422e+002, 5.977232e+002
1.855243e+002, 6.001793e+002
1.860064e+002, 6.001703e+002
1.864885e+002, 5.984247e+002
1.869707e+002, 5.967683e+002
1.874528e+002, 5.952098e+002
1.879349e+002, 5.935065e+002
1.884170e+002, 5.913965e+002
1.888991e+002, 5.889061e+002
1.893812e+002, 5.861766e+002
1.898634e+002, 5.828080e+002
1.903455e+002, 5.792463e+002
1.908276e+002, 5.772767e+002
1.913097e+002, 5.770407e+002
1.917918e+002, 5.775656e+002
1.922739e+002, 5.780768e+002
1.927561e+002, 5.785592e+002
1.932382e+002, 5.783587e+002
1.937203e+002, 5.770135e+002
1.942024e+002, 5.747383e+002
1.946845e+002, 5.726151e+002
1.951666e+002, 5.705613e+002
1.956488e+002, 5.689384e+002
1.961309e+002, 5.685320e+002
1.966130e+002, 5.694312e+002
1.970951e+002, 5.697871e+002
1.975772e+002, 5.687292e+002
1.980593e+002, 5.664286e+002
1.985415e+002, 5.647404e+002
1.990236e+002, 5.637086e+002
1.995057e+002, 5.632142e+002
1.999878e+002, 5.635132e+002
2.004699e+002, 5.648488e+002
2.009520e+002, 5.652762e+002
2.014342e+002, 5.637391e+002
2.019163e+002, 5.603293e+002
2.023984e+002, 5.582411e+002
2.028805e+002, 5.579016e+002
2.033626e+002, 5.580720e+002
2.038447e+002, 5.568433e+002
2.043269e+002, 5.538134e+002
2.048090e+002, 5.513658e+002
2.052911e+002, 5.505151e+002
2.057732e+002, 5.512962e+002
2.062553e+002, 5.515914e+002
2.067374e+002, 5.513719e+002
2.072196e+002, 5.506717e+002
2.077017e+002, 5.493803e+002
2.081838e+002, 5.472503e+002
2.086659e+002, 5.453174e+002
2.091480e+002, 5.438771e+002
2.096301e+002, 5.429084e+002
2.101123e+002, 5.425937e+002
2.105944e+002, 5.433295e+002
2.110765e+002, 5.441720e+002
2.115586e+002, 5.437038e+002
2.120407e+002, 5.415536e+002
2.125228e+002, 5.391171e+002
2.130050e+002, 5.368876e+002
2.134871e+002, 5.349469e+002
2.139692e+002, 5.324052e+002
2.144513e+002, 5.289055e+002
2.149334e+002, 5.251973e+002
2.154155e+002, 5.223043e+002
2.158977e+002, 5.204354e+002
2.163798e+002, 5.188828e+002
2.168619e+002, 5.174994e+002
2.173440e+002, 5.163173e+002
2.178261e+002, 5.152034e+002
2.183082e+002, 5.144918e+002
2.187904e+002, 5.135460e+002
2.192725e+002, 5.113070e+002
2.197546e+002, 5.071563e+002
2.202367e+002, 5.031479e+002
2.207188e+002, 5.000177e+002
2.212009e+002, 4.979248e+002
2.216831e+002, 4.954102e+002
2.221652e+002, 4.922154e+002
2.226473e+002, 4.888507e+002
2.231294e+002, 4.862369e+002
2.236115e+002, 4.851153e+002
2.240936e+002, 4.831657e+002
2.245758e+002, 4.792180e+002
2.250579e+002, 4.727033e+002
2.255400e+002, 4.685765e+002
2.260221e+002, 4.679822e+002
2.265042e+002, 4.687542e+002
2.269863e+002, 4.680882e+002
2.274685e+002, 4.654005e+002
2.279506e+002, 4.623320e+002
2.284327e+002, 4.593128e+002
2.289148e+002, 4.563622e+002
2.293969e+002, 4.530306e+002
2.298790e+002, 4.491970e+002
2.303612e+002, 4.450701e+002
2.308433e+002, 4.408445e+002
2.313254e+002, 4.361461e+002
2.318075e+002, 4.319429e+002
2.322896e+002, 4.285900e+002
2.327717e+002, 4.262109e+002
2.332539e+002, 4.235944e+002
2.337360e+002, 4.207139e+002
2.342181e+002, 4.176882e+002
2.347002e+002, 4.146418e+002
2.351823e+002, 4.117036e+002
2.356644e+002, 4.085600e+002
2.361466e+002, 4.050512e+002
2.366287e+002, 4.011431e+002
2.371108e+002, 3.975323e+002
2.375929e+002, 3.942231e+002
2.380750e+002, 3.912979e+002
2.385571e+002, 3.890717e+002
2.390393e+002, 3.886705e+002
2.395214e+002, 3.868519e+002
2.400035e+002, 3.824839e+002
2.404856e+002, 3.753244e+002
2.409677e+002, 3.695032e+002
2.414498e+002, 3.653336e+002
2.419320e+002, 3.621923e+002
2.424141e+002, 3.595231e+002
2.428962e+002, 3.576282e+002
2.433783e+002, 3.556116e+002
2.438604e+002, 3.533013e+002
2.443425e+002, 3.506898e+002
2.448247e+002, 3.480143e+002
2.453068e+002, 3.454324e+002
2.457889e+002, 3.425984e+002
2.462710e+002, 3.390972e+002
2.467531e+002, 3.344205e+002
2.472352e+002, 3.300488e+002
2.477174e+002, 3.260404e+002
2.481995e+002, 3.224572e+002
2.486816e+002, 3.200491e+002
2.491637e+002, 3.199352e+002
2.496458e+002, 3.196868e+002
2.501279e+002, 3.171878e+002
2.506101e+002, 3.110490e+002
2.510922e+002, 3.056909e+002
2.515743e+002, 3.020316e+002
2.520564e+002, 2.998069e+002
2.525385e+002, 2.968731e+002
2.530206e+002, 2.926437e+002
2.535028e+002, 2.884628e+002
2.539849e+002, 2.854130e+002
2.544670e+002, 2.839124e+002
2.549491e+002, 2.824474e+002
2.554312e+002, 2.810446e+002
2.559133e+002, 2.795806e+002
2.563955e+002, 2.772140e+002
2.568776e+002, 2.733004e+002
2.573597e+002, 2.694200e+002
2.578418e+002, 2.667209e+002
2.583239e+002, 2.659032e+002
2.588061e+002, 2.642592e+002
2.592882e+002, 2.613514e+002
2.597703e+002, 2.574893e+002
2.602524e+002, 2.537923e+002
2.607345e+002, 2.499471e+002
2.612166e+002, 2.467906e+002
2.616988e+002, 2.449822e+002
2.621809e+002, 2.452036e+002
2.626630e+002, 2.446675e+002
2.631451e+002, 2.431557e+002
2.636272e+002, 2.408740e+002
2.641093e+002, 2.382013e+002
2.645915e+002, 2.346175e+002
2.650736e+002, 2.317715e+002
2.655557e+002, 2.309354e+002
2.660378e+002, 2.331477e+002
2.665199e+002, 2.329733e+002
2.670020e+002, 2.294454e+002
2.674842e+002, 2.241995e+002
2.679663e+002, 2.207393e+002
2.684484e+002, 2.194480e+002
2.689305e+002, 2.188351e+002
2.694126e+002, 2.184300e+002
2.698947e+002, 2.183111e+002
2.703769e+002, 2.178493e+002
2.708590e+002, 2.169582e+002
2.713411e+002, 2.158215e+002
2.718232e+002, 2.147128e+002
2.723053e+002, 2.135911e+002
2.727874e+002, 2.126475e+002
2.732696e+002, 2.120961e+002
2.737517e+002, 2.119854e+002
2.742338e+002, 2.111425e+002
2.747159e+002, 2.093215e+002
2.751980e+002, 2.072287e+002
2.756801e+002, 2.059508e+002
2.761623e+002, 2.056413e+002
2.766444e+002, 2.052347e+002
2.771265e+002, 2.043936e+002
2.776086e+002, 2.031315e+002
2.780907e+002, 2.018126e+002
2.785728e+002, 2.004181e+002
2.790550e+002, 1.990146e+002
2.795371e+002, 1.975830e+002
2.800192e+002, 1.960971e+002
2.805013e+002, 1.950003e+002
2.809834e+002, 1.945575e+002
2.814655e+002, 1.946059e+002
2.819477e+002, 1.941974e+002
2.824298e+002, 1.932310e+002
2.829119e+002, 1.923092e+002
2.833940e+002, 1.921091e+002
2.838761e+002, 1.926161e+002
2.843582e+002, 1.929714e+002
2.848404e+002, 1.929459e+002
2.853225e+002, 1.926652e+002
2.858046e+002, 1.925183e+002
2.862867e+002, 1.925157e+002
2.867688e+002, 1.925282e+002
2.872509e+002, 1.925961e+002
2.877331e+002, 1.926676e+002
2.882152e+002, 1.922187e+002
2.886973e+002, 1.910091e+002
2.891794e+002, 1.894272e+002
2.896615e+002, 1.884041e+002
2.901436e+002, 1.879252e+002
2.906258e+002, 1.873645e+002
2.911079e+002, 1.859864e+002
2.915900e+002, 1.840813e+002
2.920721e+002, 1.829750e+002
2.925542e+002, 1.829504e+002
2.930363e+002, 1.834865e+002
2.935185e+002, 1.839655e+002
2.940006e+002, 1.843699e+002
2.944827e+002, 1.845171e+002
2.949648e+002, 1.839344e+002
2.954469e+002, 1.830233e+002
2.959290e+002, 1.831147e+002
2.964112e+002, 1.845031e+002
2.968933e+002, 1.859063e+002
2.973754e+002, 1.854555e+002
2.978575e+002, 1.835822e+002
2.983396e+002, 1.818685e+002
2.988217e+002, 1.813031e+002
2.993039e+002, 1.813438e+002
2.997860e+002, 1.810172e+002
3.002681e+002, 1.802731e+002
3.007502e+002, 1.795034e+002
3.012323e+002, 1.789153e+002
3.017144e+002, 1.785875e+002
3.021966e+002, 1.787354e+002
3.026787e+002, 1.800670e+002
3.031608e+002, 1.815673e+002
3.036429e+002, 1.817964e+002
3.041250e+002, 1.808101e+002
3.046071e+002, 1.797419e+002
3.050893e+002, 1.794254e+002
3.055714e+002, 1.796208e+002
3.060535e+002, 1.799807e+002
3.065356e+002, 1.806281e+002
3.070177e+002, 1.811546e+002
3.074998e+002, 1.810822e+002
3.079820e+002, 1.804984e+002
3.084641e+002, 1.798714e+002
3.089462e+002, 1.789694e+002
3.094283e+002, 1.783896e+002
3.099104e+002, 1.790309e+002
3.103925e+002, 1.820243e+002
3.108747e+002, 1.846120e+002
3.113568e+002, 1.842200e+002
3.118389e+002, 1.817960e+002
3.123210e+002, 1.799928e+002
3.128031e+002, 1.806128e+002
3.132852e+002, 1.820583e+002
3.137674e+002, 1.830799e+002
3.142495e+002, 1.833066e+002
3.147316e+002, 1.836011e+002
3.152137e+002, 1.845133e+002
3.156958e+002, 1.857612e+002
3.161779e+002, 1.868628e+002
3.166601e+002, 1.880804e+002
3.171422e+002, 1.887599e+002
3.176243e+002, 1.881658e+002
3.181064e+002, 1.859508e+002
3.185885e+002, 1.844754e+002
3.190706e+002, 1.851966e+002
3.195528e+002, 1.868690e+002
3.200349e+002, 1.880775e+002
3.205170e+002, 1.880948e+002
3.209991e+002, 1.879358e+002
3.214812e+002, 1.878687e+002
3.219633e+002, 1.879064e+002
3.224455e+002, 1.880263e+002
3.229276e+002, 1.879608e+002
3.234097e+002, 1.881182e+002
3.238918e+002, 1.888042e+002
3.243739e+002, 1.907456e+002
3.248560e+002, 1.924619e+002
3.253382e+002, 1.936732e+002
3.258203e+002, 1.944392e+002
3.263024e+002, 1.951459e+002
3.267845e+002, 1.958906e+002
3.272666e+002, 1.965368e+002
3.277487e+002, 1.970137e+002
3.282309e+002, 1.970737e+002
3.287130e+002, 1.972935e+002
3.291951e+002, 1.976623e+002
3.296772e+002, 1.981909e+002
3.301593e+002, 1.989166e+002
3.306414e+002, 1.999398e+002
3.311236e+002, 2.010365e+002
3.316057e+002, 2.021342e+002
3.320878e+002, 2.032038e+002
3.325699e+002, 2.044181e+002
3.330520e+002, 2.061194e+002
3.335341e+002, 2.077394e+002
3.340163e+002, 2.082440e+002
3.344984e+002, 2.065899e+002
3.349805e+002, 2.058853e+002
3.354626e+002, 2.072617e+002
3.359447e+002, 2.108481e+002
3.364268e+002, 2.133700e+002
3.369090e+002, 2.143217e+002
3.373911e+002, 2.150272e+002
3.378732e+002, 2.168972e+002
3.383553e+002, 2.202794e+002
3.388374e+002, 2.234095e+002
3.393195e+002, 2.260445e+002
3.398017e+002, 2.281803e+002
3.402838e+002, 2.296386e+002
3.407659e+002, 2.300954e+002
3.412480e+002, 2.310245e+002
3.417301e+002, 2.337537e+002
3.422122e+002, 2.383473e+002
3.426944e+002, 2.426469e+002
3.431765e+002, 2.463261e+002
3.436586e+002, 2.497436e+002
3.441407e+002, 2.534572e+002
3.446228e+002, 2.574458e+002
3.451049e+002, 2.618580e+002
3.455871e+002, 2.672915e+002
3.460692e+002, 2.734362e+002
3.465513e+002, 2.776114e+002
3.470334e+002, 2.793151e+002
3.475155e+002, 2.810152e+002
3.479977e+002, 2.862654e+002
3.484798e+002, 2.945187e+002
3.489619e+002, 3.026576e+002
3.494440e+002, 3.092795e+002
3.499261e+002, 3.149937e+002
3.504082e+002, 3.206812e+002
3.508904e+002, 3.263407e+002
3.513725e+002, 3.327194e+002
3.518546e+002, 3.412852e+002
3.523367e+002, 3.510385e+002
3.528188e+002, 3.598611e+002
3.533009e+002, 3.665192e+002
3.537831e+002, 3.727692e+002
3.542652e+002, 3.806627e+002
3.547473e+002, 3.899186e+002
3.552294e+002, 3.992652e+002
3.557115e+002, 4.073954e+002
3.561936e+002, 4.154230e+002
3.566758e+002, 4.248276e+002
3.571579e+002, 4.366107e+002
3.576400e+002, 4.479876e+002
3.581221e+002, 4.567934e+002
3.586042e+002, 4.637996e+002
3.590863e+002, 4.707204e+002
3.595685e+002, 4.782269e+002
3.600506e+002, 4.859497e+002
3.605327e+002, 4.934360e+002
3.610148e+002, 5.005421e+002
3.614969e+002, 5.085440e+002
3.619790e+002, 5.195526e+002
3.624612e+002, 5.311064e+002
3.629433e+002, 5.407140e+002
3.634254e+002, 5.451978e+002
3.639075e+002, 5.500848e+002
3.643896e+002, 5.577509e+002
3.648717e+002, 5.678849e+002
3.653539e+002, 5.766493e+002
3.658360e+002, 5.831670e+002
3.663181e+002, 5.880726e+002
3.668002e+002, 5.918420e+002
3.672823e+002, 5.923362e+002
3.677644e+002, 5.944357e+002
3.682466e+002, 5.993527e+002
3.687287e+002, 6.061758e+002
3.692108e+002, 6.123027e+002
3.696929e+002, 6.189539e+002
3.701750e+002, 6.236987e+002
3.706571e+002, 6.254266e+002
3.711393e+002, 6.232395e+002
3.716214e+002, 6.210137e+002
3.721035e+002, 6.182285e+002
3.725856e+002, 6.157783e+002
3.730677e+002, 6.149732e+002
3.735498e+002, 6.165853e+002
3.740320e+002, 6.182161e+002
3.745141e+002, 6.194882e+002
3.749962e+002, 6.203840e+002
3.754783e+002, 6.204761e+002
3.759604e+002, 6.196625e+002
3.764425e+002, 6.183021e+002
3.769247e+002, 6.165101e+002
3.774068e+002, 6.142073e+002
3.778889e+002, 6.122867e+002
3.783710e+002, 6.110277e+002
3.788531e+002, 6.100762e+002
3.793352e+002, 6.088054e+002
3.798174e+002, 6.072828e+002
3.802995e+002, 6.047084e+002
3.807816e+002, 5.999094e+002
3.812637e+002, 5.933082e+002
3.817458e+002, 5.883323e+002
3.822279e+002, 5.853171e+002
3.827101e+002, 5.828519e+002
3.831922e+002, 5.791870e+002
3.836743e+002, 5.744456e+002
3.841564e+002, 5.694158e+002
3.846385e+002, 5.642792e+002
3.851206e+002, 5.590449e+002
3.856028e+002, 5.537025e+002
3.860849e+002, 5.482531e+002
3.865670e+002, 5.427048e+002
3.870491e+002, 5.373412e+002
3.875312e+002, 5.317828e+002
3.880133e+002, 5.252299e+002
3.884955e+002, 5.169989e+002
3.889776e+002, 5.086472e+002
3.894597e+002, 5.018510e+002
3.899418e+002, 4.961772e+002
3.904239e+002, 4.903780e+002
3.909060e+002, 4.838194e+002
3.913882e+002, 4.768692e+002
3.918703e+002, 4.696222e+002
3.923524e+002, 4.618597e+002
3.928345e+002, 4.547134e+002
3.933166e+002, 4.494267e+002
3.937987e+002, 4.448246e+002
3.942809e+002, 4.394958e+002
3.947630e+002, 4.319178e+002
3.952451e+002, 4.245848e+002
3.957272e+002, 4.182746e+002
3.962093e+002, 4.130029e+002
3.966914e+002, 4.080832e+002
3.971736e+002, 4.040738e+002
3.976557e+002, 3.999115e+002
3.981378e+002, 3.949197e+002
3.986199e+002, 3.879910e+002
3.991020e+002, 3.816224e+002
3.995841e+002, 3.758843e+002
4.000663e+002, 3.707480e+002
4.005484e+002, 3.661613e+002
4.010305e+002, 3.623617e+002
4.015126e+002, 3.588268e+002
4.019947e+002, 3.555422e+002
4.024768e+002, 3.527448e+002
4.029590e+002, 3.490024e+002
4.034411e+002, 3.438275e+002
4.039232e+002, 3.382673e+002
4.044053e+002, 3.336469e+002
4.048874e+002, 3.303991e+002
4.053695e+002, 3.264588e+002
4.058517e+002, 3.209503e+002
4.063338e+002, 3.145173e+002
4.068159e+002, 3.099745e+002
4.072980e+002, 3.076237e+002
4.077801e+002, 3.056997e+002
4.082622e+002, 3.030667e+002
4.087444e+002, 2.997589e+002
4.092265e+002, 2.963853e+002
4.097086e+002, 2.929836e+002
4.101907e+002, 2.895283e+002
4.106728e+002, 2.858473e+002
4.111549e+002, 2.819869e+002
4.116371e+002, 2.783541e+002
4.121192e+002, 2.751371e+002
4.126013e+002, 2.722954e+002
4.130834e+002, 2.699741e+002
4.135655e+002, 2.681788e+002
4.140476e+002, 2.662242e+002
4.145298e+002, 2.630435e+002
4.150119e+002, 2.594152e+002
4.154940e+002, 2.565883e+002
4.159761e+002, 2.551703e+002
4.164582e+002, 2.543081e+002
4.169403e+002, 2.532365e+002
4.174225e+002, 2.521450e+002
4.179046e+002, 2.515886e+002
4.183867e+002, 2.529090e+002
4.188688e+002, 2.541673e+002
4.193509e+002, 2.535357e+002
4.198330e+002, 2.502401e+002
4.203152e+002, 2.480876e+002
4.207973e+002, 2.493941e+002
4.212794e+002, 2.523298e+002
4.217615e+002, 2.547795e+002
4.222436e+002, 2.546320e+002
4.227257e+002, 2.556198e+002
4.232079e+002, 2.593261e+002
4.236900e+002, 2.655012e+002
4.241721e+002, 2.708258e+002
4.246542e+002, 2.741342e+002
4.251363e+002, 2.772623e+002
4.256184e+002, 2.810949e+002
4.261006e+002, 2.853267e+002
4.265827e+002, 2.907240e+002
4.270648e+002, 2.975449e+002
4.275469e+002, 3.054094e+002
4.280290e+002, 3.135254e+002
4.285111e+002, 3.217987e+002
4.289933e+002, 3.305041e+002
4.294754e+002, 3.398290e+002
4.299575e+002, 3.497824e+002
4.304396e+002, 3.590415e+002
4.309217e+002, 3.673295e+002
4.314038e+002, 3.758047e+002
4.318860e+002, 3.854713e+002
4.323681e+002, 3.963392e+002
4.328502e+002, 4.075850e+002
4.333323e+002, 4.193564e+002
4.338144e+002, 4.310261e+002
4.342965e+002, 4.411908e+002
4.347787e+002, 4.499393e+002
4.352608e+002, 4.584001e+002
4.357429e+002, 4.675007e+002
4.362250e+002, 4.767108e+002
4.367071e+002, 4.848295e+002
4.371892e+002, 4.917938e+002
4.376714e+002, 4.979876e+002
4.381535e+002, 5.043133e+002
4.386356e+002, 5.099890e+002
4.391177e+002, 5.135045e+002
4.395998e+002, 5.134843e+002
4.400819e+002, 5.121867e+002
4.405641e+002, 5.115015e+002
4.410462e+002, 5.111075e+002
4.415283e+002, 5.098387e+002
4.420104e+002, 5.063631e+002
4.424925e+002, 5.023182e+002
4.429746e+002, 4.986287e+002
4.434568e+002, 4.951786e+002
4.439389e+002, 4.929282e+002
4.444210e+002, 4.930062e+002
4.449031e+002, 4.941546e+002
4.453852e+002, 4.948723e+002
4.458673e+002, 4.940693e+002
4.463495e+002, 4.936367e+002
4.468316e+002, 4.942965e+002
4.473137e+002, 4.959249e+002
4.477958e+002, 4.967507e+002
4.482779e+002, 4.965914e+002
4.487600e+002, 4.958028e+002
4.492422e+002, 4.945685e+002
4.497243e+002, 4.929604e+002
4.502064e+002, 4.906983e+002
4.506885e+002, 4.876453e+002
4.511706e+002, 4.840475e+002
4.516527e+002, 4.803460e+002
4.521349e+002, 4.765599e+002
4.526170e+002, 4.725804e+002
4.530991e+002, 4.685053e+002
4.535812e+002, 4.642184e+002
4.540633e+002, 4.594877e+002
4.545454e+002, 4.543251e+002
4.550276e+002, 4.483608e+002
4.555097e+002, 4.408482e+002
4.559918e+002, 4.321143e+002
4.564739e+002, 4.241991e+002
4.569560e+002, 4.174274e+002
4.574381e+002, 4.111372e+002
4.579203e+002, 4.044606e+002
4.584024e+002, 3.975162e+002
4.588845e+002, 3.905554e+002
4.593666e+002, 3.835721e+002
4.598488e+002, 3.767570e+002
4.603309e+002, 3.706464e+002
4.608130e+002, 3.652063e+002
4.612951e+002, 3.594614e+002
4.617772e+002, 3.525241e+002
4.622593e+002, 3.452190e+002
4.627415e+002, 3.384144e+002
4.632236e+002, 3.322706e+002
4.637057e+002, 3.267454e+002
4.641878e+002, 3.223009e+002
4.646699e+002, 3.184928e+002
4.651520e+002, 3.143706e+002
4.656342e+002, 3.091365e+002
4.661163e+002, 3.042137e+002
4.665984e+002, 3.000945e+002
4.670805e+002, 2.969131e+002
4.675626e+002, 2.937967e+002
4.680447e+002, 2.908474e+002
4.685269e+002, 2.878661e+002
4.690090e+002, 2.846841e+002
4.694911e+002, 2.812693e+002
4.699732e+002, 2.776889e+002
4.704553e+002, 2.737227e+002
4.709374e+002, 2.697108e+002
4.714196e+002, 2.664401e+002
4.719017e+002, 2.641049e+002
4.723838e+002, 2.618802e+002
4.728659e+002, 2.595731e+002
4.733480e+002, 2.571371e+002
4.738301e+002, 2.540091e+002
4.743123e+002, 2.500537e+002
4.747944e+002, 2.462130e+002
4.752765e+002, 2.434977e+002
4.757586e+002, 2.416936e+002
4.762407e+002, 2.399248e+002
4.767228e+002, 2.380988e+002
4.772050e+002, 2.360710e+002
4.776871e+002, 2.335054e+002
4.781692e+002, 2.305557e+002
4.786513e+002, 2.277420e+002
4.791334e+002, 2.255594e+002
4.796155e+002, 2.235008e+002
4.800977e+002, 2.208078e+002
4.805798e+002, 2.174822e+002
4.810619e+002, 2.147520e+002
4.815440e+002, 2.141095e+002
4.820261e+002, 2.140168e+002
4.825082e+002, 2.130426e+002
4.829904e+002, 2.101652e+002
4.834725e+002, 2.074220e+002
4.839546e+002, 2.053770e+002
4.844367e+002, 2.038546e+002
4.849188e+002, 2.025111e+002
4.854009e+002, 2.015298e+002
4.858831e+002, 2.004743e+002
4.863652e+002, 1.991455e+002
4.868473e+002, 1.975228e+002
4.873294e+002, 1.962171e+002
4.878115e+002, 1.957937e+002
4.882936e+002, 1.950220e+002
4.887758e+002, 1.926665e+002
4.892579e+002, 1.878067e+002
4.897400e+002, 1.847452e+002
4.902221e+002, 1.843044e+002
4.907042e+002, 1.851859e+002
4.911863e+002, 1.848942e+002
4.916685e+002, 1.833709e+002
4.921506e+002, 1.816664e+002
4.926327e+002, 1.802444e+002
4.931148e+002, 1.789529e+002
4.935969e+002, 1.772003e+002
4.940790e+002, 1.749673e+002
4.945612e+002, 1.729876e+002
4.950433e+002, 1.720736e+002
4.955254e+002, 1.717775e+002
4.960075e+002, 1.712669e+002
4.964896e+002, 1.704239e+002
4.969717e+002, 1.692475e+002
4.974539e+002, 1.674079e+002
4.979360e+002, 1.652773e+002
4.984181e+002, 1.635931e+002
4.989002e+002, 1.629138e+002
4.993823e+002, 1.625199e+002
4.998644e+002, 1.621706e+002
5.003466e+002, 1.618241e+002
5.008287e+002, 1.612231e+002
5.013108e+002, 1.596395e+002
5.017929e+002, 1.582513e+002
5.022750e+002, 1.578067e+002
5.027571e+002, 1.590367e+002
5.032393e+002, 1.599128e+002
5.037214e+002, 1.602708e+002
5.042035e+002, 1.603066e+002
5.046856e+002, 1.603031e+002
5.051677e+002, 1.604450e+002
5.056498e+002, 1.601483e+002
5.061320e+002, 1.591781e+002
5.066141e+002, 1.576681e+002
5.070962e+002, 1.562648e+002
5.075783e+002, 1.548638e+002
5.080604e+002, 1.540023e+002
5.085425e+002, 1.544044e+002
5.090247e+002, 1.558731e+002
5.095068e+002, 1.563981e+002
5.099889e+002, 1.558227e+002
5.104710e+002, 1.547453e+002
5.109531e+002, 1.535805e+002
5.114352e+002, 1.524439e+002
5.119174e+002, 1.516897e+002
5.123995e+002, 1.515006e+002
5.128816e+002, 1.516400e+002
5.133637e+002, 1.521524e+002
5.138458e+002, 1.528426e+002
5.143279e+002, 1.530728e+002
5.148101e+002, 1.520335e+002
5.152922e+002, 1.507618e+002
5.157743e+002, 1.499964e+002
5.162564e+002, 1.498400e+002
5.167385e+002, 1.497655e+002
5.172206e+002, 1.495199e+002
5.177028e+002, 1.493206e+002
5.181849e+002, 1.493436e+002
5.186670e+002, 1.495813e+002
5.191491e+002, 1.500927e+002
5.196312e+002, 1.511774e+002
5.201133e+002, 1.524746e+002
5.205955e+002, 1.532476e+002
5.210776e+002, 1.534444e+002
5.215597e+002, 1.531557e+002
5.220418e+002, 1.521180e+002
5.225239e+002, 1.504022e+002
5.230060e+002, 1.500141e+002
5.234882e+002, 1.513246e+002
5.239703e+002, 1.526149e+002
5.244524e+002, 1.521217e+002
5.249345e+002, 1.500866e+002
5.254166e+002, 1.491073e+002
5.258987e+002, 1.495356e+002
5.263809e+002, 1.507407e+002
5.268630e+002, 1.523299e+002
5.273451e+002, 1.540948e+002
5.278272e+002, 1.553543e+002
5.283093e+002, 1.557860e+002
5.287914e+002, 1.556557e+002
5.292736e+002, 1.549457e+002
5.297557e+002, 1.538131e+002
5.302378e+002, 1.529866e+002
5.307199e+002, 1.533880e+002
5.312020e+002, 1.538507e+002
5.316841e+002, 1.534188e+002
5.321663e+002, 1.517205e+002
5.326484e+002, 1.503596e+002
5.331305e+002, 1.496553e+002
5.336126e+002, 1.495121e+002
5.340947e+002, 1.498387e+002
5.345768e+002, 1.509409e+002
5.350590e+002, 1.521182e+002
5.355411e+002, 1.535485e+002
5.360232e+002, 1.549798e+002
5.365053e+002, 1.556700e+002
5.369874e+002, 1.554710e+002
5.374695e+002, 1.548524e+002
5.379517e+002, 1.537381e+002
5.384338e+002, 1.522124e+002
5.389159e+002, 1.517333e+002
5.393980e+002, 1.524273e+002
5.398801e+002, 1.533929e+002
5.403622e+002, 1.539358e+002
5.408444e+002, 1.541062e+002
5.413265e+002, 1.540712e+002
5.418086e+002, 1.538025e+002
5.422907e+002, 1.535401e+002
5.427728e+002, 1.536192e+002
5.432549e+002, 1.539112e+002
5.437371e+002, 1.541347e+002
5.442192e+002, 1.541048e+002
5.447013e+002, 1.540270e+002
5.451834e+002, 1.539615e+002
5.456655e+002, 1.539473e+002
5.461476e+002, 1.541412e+002
5.466298e+002, 1.547541e+002
5.471119e+002, 1.554746e+002
5.475940e+002, 1.562710e+002
5.480761e+002, 1.573342e+002
5.485582e+002, 1.576623e+002
5.490403e+002, 1.563180e+002
5.495225e+002, 1.548091e+002
5.500046e+002, 1.544637e+002
5.504867e+002, 1.561468e+002
5.509688e+002, 1.570573e+002
5.514509e+002, 1.567256e+002
5.519330e+002, 1.556662e+002
5.524152e+002, 1.548281e+002
5.528973e+002, 1.541411e+002
5.533794e+002, 1.542155e+002
5.538615e+002, 1.557300e+002
5.543436e+002, 1.580725e+002
5.548257e+002, 1.590305e+002
5.553079e+002, 1.586203e+002
5.557900e+002, 1.578324e+002
5.562721e+002, 1.573155e+002
5.567542e+002, 1.569455e+002
5.572363e+002, 1.564036e+002
5.577184e+002, 1.555715e+002
5.582006e+002, 1.551351e+002
5.586827e+002, 1.558520e+002
5.591648e+002, 1.571863e+002
5.596469e+002, 1.584747e+002
5.601290e+002, 1.600354e+002
5.606111e+002, 1.609259e+002
5.610933e+002, 1.605612e+002
5.615754e+002, 1.592747e+002
5.620575e+002, 1.579716e+002
5.625396e+002, 1.559331e+002
5.630217e+002, 1.547956e+002
5.635038e+002, 1.554673e+002
5.639860e+002, 1.580700e+002
5.644681e+002, 1.590114e+002
5.649502e+002, 1.575668e+002
5.654323e+002, 1.558080e+002
5.659144e+002, 1.553283e+002
5.663965e+002, 1.562302e+002
5.668787e+002, 1.567938e+002
5.673608e+002, 1.569337e+002
5.678429e+002, 1.566505e+002
5.683250e+002, 1.555316e+002
5.688071e+002, 1.538655e+002
5.692892e+002, 1.529556e+002
5.697714e+002, 1.533336e+002
5.702535e+002, 1.545163e+002
5.707356e+002, 1.565114e+002
5.712177e+002, 1.589435e+002
5.716998e+002, 1.604658e+002
5.721819e+002, 1.597621e+002
5.726641e+002, 1.584252e+002
5.731462e+002, 1.573488e+002
5.736283e+002, 1.565877e+002
5.741104e+002, 1.563511e+002
5.745925e+002, 1.572833e+002
5.750746e+002, 1.583594e+002
5.755568e+002, 1.589116e+002
5.760389e+002, 1.586905e+002
5.765210e+002, 1.582456e+002
5.770031e+002, 1.572046e+002
5.774852e+002, 1.562074e+002
5.779673e+002, 1.562503e+002
5.784495e+002, 1.577433e+002
5.789316e+002, 1.588194e+002
5.794137e+002, 1.590333e+002
5.798958e+002, 1.586485e+002
5.803779e+002, 1.582170e+002
5.808600e+002, 1.577454e+002
5.813422e+002, 1.576004e+002
5.818243e+002, 1.581413e+002
5.823064e+002, 1.591071e+002
5.827885e+002, 1.600598e+002
5.832706e+002, 1.609833e+002
5.837527e+002, 1.616033e+002
5.842349e+002, 1.612903e+002
5.847170e+002, 1.607880e+002
5.851991e+002, 1.608862e+002
5.856812e+002, 1.617978e+002
5.861633e+002, 1.630774e+002
5.866454e+002, 1.647726e+002
5.871276e+002, 1.666458e+002
5.876097e+002, 1.683867e+002
5.880918e+002, 1.701049e+002
5.885739e+002, 1.714836e+002
5.890560e+002, 1.719924e+002
5.895381e+002, 1.721744e+002
5.900203e+002, 1.738002e+002
5.905024e+002, 1.776758e+002
5.909845e+002, 1.811966e+002
5.914666e+002, 1.832692e+002
5.919487e+002, 1.840875e+002
5.924308e+002, 1.851060e+002
5.929130e+002, 1.862651e+002
5.933951e+002, 1.881243e+002
5.938772e+002, 1.915844e+002
5.943593e+002, 1.960784e+002
5.948414e+002, 1.997965e+002
5.953235e+002, 2.024307e+002
5.958057e+002, 2.050467e+002
5.962878e+002, 2.086305e+002
5.967699e+002, 2.128323e+002
5.972520e+002, 2.171062e+002
5.977341e+002, 2.215490e+002
5.982162e+002, 2.256972e+002
5.986984e+002, 2.290649e+002
5.991805e+002, 2.319689e+002
5.996626e+002, 2.352288e+002
6.001447e+002, 2.402008e+002
6.006268e+002, 2.442847e+002
6.011089e+002, 2.465259e+002
6.015911e+002, 2.471109e+002
6.020732e+002, 2.478451e+002
6.025553e+002, 2.488924e+002
6.030374e+002, 2.497885e+002
6.035195e+002, 2.505430e+002
6.040016e+002, 2.512110e+002
6.044838e+002, 2.500180e+002
6.049659e+002, 2.466542e+002
6.054480e+002, 2.429572e+002
6.059301e+002, 2.412605e+002
6.064122e+002, 2.408600e+002
6.068943e+002, 2.391433e+002
6.073765e+002, 2.353641e+002
6.078586e+002, 2.310145e+002
6.083407e+002, 2.275486e+002
6.088228e+002, 2.246340e+002
6.093049e+002, 2.217448e+002
6.097870e+002, 2.184676e+002
6.102692e+002, 2.153155e+002
6.107513e+002, 2.125540e+002
6.112334e+002, 2.101155e+002
6.117155e+002, 2.077630e+002
6.121976e+002, 2.052840e+002
6.126797e+002, 2.030284e+002
6.131619e+002, 2.012625e+002
6.136440e+002, 2.000204e+002
6.141261e+002, 1.981146e+002
6.146082e+002, 1.950919e+002
6.150903e+002, 1.922001e+002
6.155724e+002, 1.903247e+002
6.160546e+002, 1.894868e+002
6.165367e+002, 1.885862e+002
6.170188e+002, 1.874721e+002
6.175009e+002, 1.867609e+002
6.179830e+002, 1.877934e+002
6.184651e+002, 1.898510e+002
6.189473e+002, 1.907298e+002
6.194294e+002, 1.894520e+002
6.199115e+002, 1.877135e+002
6.203936e+002, 1.868038e+002
6.208757e+002, 1.865973e+002
6.213578e+002, 1.868219e+002
6.218400e+002, 1.880426e+002
6.223221e+002, 1.890151e+002
6.228042e+002, 1.889418e+002
6.232863e+002, 1.880179e+002
6.237684e+002, 1.875869e+002
6.242505e+002, 1.879845e+002
6.247327e+002, 1.886851e+002
6.252148e+002, 1.898195e+002
6.256969e+002, 1.915590e+002
6.261790e+002, 1.914423e+002
6.266611e+002, 1.889225e+002
6.271432e+002, 1.859669e+002
6.276254e+002, 1.842836e+002
6.281075e+002, 1.837338e+002
6.285896e+002, 1.825771e+002
6.290717e+002, 1.805483e+002
6.295538e+002, 1.785811e+002
6.300359e+002, 1.781485e+002
6.305181e+002, 1.785319e+002
6.310002e+002, 1.781645e+002
6.314823e+002, 1.762246e+002
6.319644e+002, 1.740232e+002
6.324465e+002, 1.724514e+002
6.329286e+002, 1.712758e+002
6.334108e+002, 1.700543e+002
6.338929e+002, 1.681999e+002
6.343750e+002, 1.667276e+002
6.348571e+002, 1.663487e+002
6.353392e+002, 1.668095e+002
6.358214e+002, 1.662129e+002
6.363035e+002, 1.636547e+002
6.367856e+002, 1.614926e+002
6.372677e+002, 1.609627e+002
6.377498e+002, 1.620614e+002
6.382319e+002, 1.619021e+002
6.387141e+002, 1.602545e+002
6.391962e+002, 1.585573e+002
6.396783e+002, 1.583490e+002
6.401604e+002, 1.590841e+002
6.406425e+002, 1.587849e+002
6.411246e+002, 1.571359e+002
6.416068e+002, 1.552481e+002
6.420889e+002, 1.538607e+002
6.425710e+002, 1.529731e+002
6.430531e+002, 1.526721e+002
6.435352e+002, 1.534510e+002
6.440173e+002, 1.540350e+002
6.444995e+002, 1.537676e+002
6.449816e+002, 1.529948e+002
6.454637e+002, 1.523113e+002
6.459458e+002, 1.515562e+002
6.464279e+002, 1.512356e+002
6.469100e+002, 1.516372e+002
6.473922e+002, 1.525309e+002
6.478743e+002, 1.529219e+002
6.483564e+002, 1.526277e+002
6.488385e+002, 1.524624e+002
6.493206e+002, 1.528277e+002
6.498027e+002, 1.536174e+002
6.502849e+002, 1.543613e+002
6.507670e+002, 1.550581e+002
6.512491e+002, 1.555639e+002
6.517312e+002, 1.554514e+002
6.522133e+002, 1.552061e+002
6.526954e+002, 1.556132e+002
6.531776e+002, 1.567975e+002
6.536597e+002, 1.580610e+002
6.541418e+002, 1.593638e+002
6.546239e+002, 1.603723e+002
6.551060e+002, 1.607202e+002
6.555881e+002, 1.597087e+002
6.560703e+002, 1.591853e+002
6.565524e+002, 1.594846e+002
6.570345e+002, 1.603504e+002
6.575166e+002, 1.616219e+002
6.579987e+002, 1.636976e+002
6.584808e+002, 1.649795e+002
6.589630e+002, 1.648706e+002
6.594451e+002, 1.642295e+002
6.599272e+002, 1.652360e+002
6.604093e+002, 1.678209e+002
6.608914e+002, 1.700401e+002
6.613735e+002, 1.708225e+002
6.618557e+002, 1.710445e+002
6.623378e+002, 1.722545e+002
6.628199e+002, 1.742430e+002
6.633020e+002, 1.760781e+002
6.637841e+002, 1.771954e+002
6.642662e+002, 1.780060e+002
6.647484e+002, 1.787602e+002
6.652305e+002, 1.794725e+002
6.657126e+002, 1.801435e+002
6.661947e+002, 1.801606e+002
6.666768e+002, 1.806664e+002
6.671589e+002, 1.824389e+002
6.676411e+002, 1.860352e+002
6.681232e+002, 1.885821e+002
6.686053e+002, 1.897679e+002
6.690874e+002, 1.904215e+002
6.695695e+002, 1.911418e+002
6.700516e+002, 1.919353e+002
6.705338e+002, 1.932874e+002
6.710159e+002, 1.953754e+002
6.714980e+002, 1.975338e+002
6.719801e+002, 1.987801e+002
6.724622e+002, 1.994558e+002
6.729443e+002, 2.003460e+002
6.734265e+002, 2.019829e+002
6.739086e+002, 2.034342e+002
6.743907e+002, 2.035910e+002
6.748728e+002, 2.032112e+002
6.753549e+002, 2.037150e+002
6.758370e+002, 2.066298e+002
6.763192e+002, 2.092544e+002
6.768013e+002, 2.106538e+002
6.772834e+002, 2.111890e+002
6.777655e+002, 2.120418e+002
6.782476e+002, 2.132173e+002
6.787297e+002, 2.146934e+002
6.792119e+002, 2.164422e+002
6.796940e+002, 2.184730e+002
6.801761e+002, 2.211528e+002
6.806582e+002, 2.245049e+002
6.811403e+002, 2.271416e+002
6.816224e+002, 2.275251e+002
6.821046e+002, 2.267476e+002
6.825867e+002, 2.266399e+002
6.830688e+002, 2.272984e+002
6.835509e+002, 2.281787e+002
6.840330e+002, 2.289294e+002
6.845151e+002, 2.297518e+002
6.849973e+002, 2.308993e+002
6.854794e+002, 2.326480e+002
6.859615e+002, 2.340285e+002
6.864436e+002, 2.340795e+002
6.869257e+002, 2.342553e+002
6.874078e+002, 2.358919e+002
6.878900e+002, 2.398488e+002
6.883721e+002, 2.427786e+002
6.888542e+002, 2.441930e+002
6.893363e+002, 2.449409e+002
6.898184e+002, 2.462771e+002
6.903005e+002, 2.481146e+002
6.907827e+002, 2.497506e+002
6.912648e+002, 2.509875e+002
6.917469e+002, 2.519433e+002
6.922290e+002, 2.522984e+002
6.927111e+002, 2.524890e+002
6.931932e+002, 2.534924e+002
6.936754e+002, 2.567392e+002
6.941575e+002, 2.599070e+002
6.946396e+002, 2.616722e+002
6.951217e+002, 2.623781e+002
6.956038e+002, 2.633903e+002
6.960859e+002, 2.653551e+002
6.965681e+002, 2.670853e+002
6.970502e+002, 2.681168e+002
6.975323e+002, 2.685677e+002
6.980144e+002, 2.697253e+002
6.984965e+002, 2.718001e+002
6.989786e+002, 2.736693e+002
6.994608e+002, 2.744444e+002
6.999429e+002, 2.744680e+002
7.004250e+002, 2.751868e+002
7.009071e+002, 2.765843e+002
7.013892e+002, 2.779743e+002
7.018713e+002, 2.783918e+002
7.023535e+002, 2.787720e+002
7.028356e+002, 2.802698e+002
7.033177e+002, 2.831717e+002
7.037998e+002, 2.860883e+002
7.042819e+002, 2.887062e+002
7.047640e+002, 2.910002e+002
7.052462e+002, 2.929795e+002
7.057283e+002, 2.949174e+002
7.062104e+002, 2.958062e+002
7.066925e+002, 2.949788e+002
7.071746e+002, 2.939203e+002
7.076567e+002, 2.945423e+002
7.081389e+002, 2.969262e+002
7.086210e+002, 2.985883e+002
7.091031e+002, 2.990462e+002
7.095852e+002, 2.991033e+002
7.100673e+002, 2.998809e+002
7.105494e+002, 3.011192e+002
7.110316e+002, 3.021860e+002
7.115137e+002, 3.027177e+002
7.119958e+002, 3.032462e+002
7.124779e+002, 3.042028e+002
7.129600e+002, 3.054048e+002
7.134421e+002, 3.064911e+002
7.139243e+002, 3.077877e+002
7.144064e+002, 3.084731e+002
7.148885e+002, 3.079915e+002
7.153706e+002, 3.068313e+002
7.158527e+002, 3.065690e+002
7.163348e+002, 3.074326e+002
7.168170e+002, 3.084346e+002
7.172991e+002, 3.093721e+002
7.177812e+002, 3.101278e+002
7.182633e+002, 3.098124e+002
7.187454e+002, 3.085993e+002
7.192275e+002, 3.083395e+002
7.197097e+002, 3.117154e+002
7.201918e+002, 3.155673e+002
7.206739e+002, 3.157864e+002
7.211560e+002, 3.127431e+002
7.216381e+002, 3.104378e+002
7.221202e+002, 3.120060e+002
7.226024e+002, 3.137054e+002
7.230845e+002, 3.128883e+002
7.235666e+002, 3.088502e+002
7.240487e+002, 3.077280e+002
7.245308e+002, 3.116076e+002
7.250129e+002, 3.151634e+002
7.254951e+002, 3.144259e+002
7.259772e+002, 3.091506e+002
7.264593e+002, 3.069394e+002
7.269414e+002, 3.081159e+002
7.274235e+002, 3.101982e+002
7.279056e+002, 3.112291e+002
7.283878e+002, 3.114402e+002
7.288699e+002, 3.111235e+002
7.293520e+002, 3.102309e+002
7.298341e+002, 3.094352e+002
7.303162e+002, 3.094112e+002
7.307983e+002, 3.095693e+002
7.312805e+002, 3.092953e+002
7.317626e+002, 3.078583e+002
7.322447e+002, 3.071230e+002
7.327268e+002, 3.075190e+002
7.332089e+002, 3.083984e+002
7.336910e+002, 3.091177e+002
7.341732e+002, 3.096991e+002
7.346553e+002, 3.099765e+002
7.351374e+002, 3.098977e+002
7.356195e+002, 3.095689e+002
7.361016e+002, 3.088696e+002
7.365837e+002, 3.080085e+002
7.370659e+002, 3.077838e+002
7.375480e+002, 3.087148e+002
7.380301e+002, 3.098207e+002
7.385122e+002, 3.101827e+002
7.389943e+002, 3.101375e+002
7.394764e+002, 3.102607e+002
7.399586e+002, 3.112734e+002
7.404407e+002, 3.118562e+002
7.409228e+002, 3.114023e+002
7.414049e+002, 3.103542e+002
7.418870e+002, 3.096780e+002
7.423691e+002, 3.095491e+002
7.428513e+002, 3.093175e+002
7.433334e+002, 3.087817e+002
7.438155e+002, 3.080738e+002
7.442976e+002, 3.076039e+002
7.447797e+002, 3.073307e+002
7.452618e+002, 3.068985e+002
7.457440e+002, 3.060392e+002
7.462261e+002, 3.049953e+002
7.467082e+002, 3.037890e+002
7.471903e+002, 3.025672e+002
7.476724e+002, 3.018365e+002
7.481545e+002, 3.023127e+002
7.486367e+002, 3.028313e+002
7.491188e+002, 3.030179e+002
7.496009e+002, 3.028330e+002
7.500830e+002, 3.020751e+002
7.505651e+002, 3.004519e+002
7.510472e+002, 2.988466e+002
7.515294e+002, 2.977498e+002
7.520115e+002, 2.970284e+002
7.524936e+002, 2.956023e+002
7.529757e+002, 2.934744e+002
7.534578e+002, 2.917944e+002
7.539399e+002, 2.918662e+002
7.544221e+002, 2.926403e+002
7.549042e+002, 2.925878e+002
7.553863e+002, 2.916995e+002
7.558684e+002, 2.910839e+002
7.563505e+002, 2.921230e+002
7.568326e+002, 2.929309e+002
7.573148e+002, 2.919633e+002
7.577969e+002, 2.885664e+002
7.582790e+002, 2.868929e+002
7.587611e+002, 2.877039e+002
7.592432e+002, 2.890059e+002
7.597253e+002, 2.897461e+002
7.602075e+002, 2.899279e+002
7.606896e+002, 2.888623e+002
7.611717e+002, 2.863720e+002
7.616538e+002, 2.842335e+002
7.621359e+002, 2.842124e+002
7.626180e+002, 2.854683e+002
7.631002e+002, 2.868024e+002
7.635823e+002, 2.880861e+002
7.640644e+002, 2.892038e+002
7.645465e+002, 2.895518e+002
7.650286e+002, 2.900794e+002
7.655107e+002, 2.917518e+002
7.659929e+002, 2.957897e+002
7.664750e+002, 2.980522e+002
7.669571e+002, 2.975892e+002
7.674392e+002, 2.966345e+002
7.679213e+002, 2.970982e+002
7.684034e+002, 2.989881e+002
7.688856e+002, 3.019966e+002
7.693677e+002, 3.062795e+002
7.698498e+002, 3.104393e+002
7.703319e+002, 3.122355e+002
7.708140e+002, 3.130866e+002
7.712961e+002, 3.157151e+002
7.717783e+002, 3.211589e+002
7.722604e+002, 3.267629e+002
7.727425e+002, 3.307965e+002
7.732246e+002, 3.344423e+002
7.737067e+002, 3.390041e+002
7.741888e+002, 3.456885e+002
7.746710e+002, 3.514604e+002
7.751531e+002, 3.555537e+002
7.756352e+002, 3.596378e+002
7.761173e+002, 3.657527e+002
7.765994e+002, 3.738826e+002
7.770815e+002, 3.831910e+002
7.775637e+002, 3.938067e+002
7.780458e+002, 4.047917e+002
7.785279e+002, 4.144690e+002
7.790100e+002, 4.238280e+002
7.794921e+002, 4.347995e+002
7.799742e+002, 4.484793e+002
7.804564e+002, 4.625467e+002
7.809385e+002, 4.754581e+002
7.814206e+002, 4.884322e+002
7.819027e+002, 5.031917e+002
7.823848e+002, 5.194279e+002
7.828669e+002, 5.378560e+002
7.833491e+002, 5.589752e+002
7.838312e+002, 5.818589e+002
7.843133e+002, 6.044238e+002
7.847954e+002, 6.266955e+002
7.852775e+002, 6.514613e+002
7.857596e+002, 6.793438e+002
7.862418e+002, 7.091776e+002
7.867239e+002, 7.400362e+002
7.872060e+002, 7.715203e+002
7.876881e+002, 8.036665e+002
7.881702e+002, 8.344977e+002
7.886523e+002, 8.675770e+002
7.891345e+002, 9.044828e+002
7.896166e+002, 9.442277e+002
7.900987e+002, 9.858600e+002
7.905808e+002, 1.029207e+003
7.910629e+002, 1.074138e+003
7.915450e+002, 1.120788e+003
7.920272e+002, 1.168521e+003
7.925093e+002, 1.213748e+003
7.929914e+002, 1.257453e+003
7.934735e+002, 1.302807e+003
7.939556e+002, 1.351915e+003
7.944377e+002, 1.401798e+003
7.949199e+002, 1.449880e+003
7.954020e+002, 1.496771e+003
7.958841e+002, 1.541978e+003
7.963662e+002, 1.585268e+003
7.968483e+002, 1.627468e+003
7.973304e+002, 1.669172e+003
7.978126e+002, 1.709462e+003
7.982947e+002, 1.746008e+003
7.987768e+002, 1.778666e+003
7.992589e+002, 1.807873e+003
7.997410e+002, 1.833761e+003
8.002231e+002, 1.856123e+003
8.007053e+002, 1.874897e+003
8.011874e+002, 1.889873e+003
8.016695e+002, 1.900256e+003
8.021516e+002, 1.904784e+003
8.026337e+002, 1.906186e+003
8.031158e+002, 1.908119e+003
8.035980e+002, 1.908362e+003
8.040801e+002, 1.903026e+003
8.045622e+002, 1.889974e+003
8.050443e+002, 1.872393e+003
8.055264e+002, 1.850700e+003
8.060085e+002, 1.825189e+003
8.064907e+002, 1.796143e+003
8.069728e+002, 1.763230e+003
8.074549e+002, 1.727906e+003
8.079370e+002, 1.690315e+003
8.084191e+002, 1.650118e+003
8.089012e+002, 1.605934e+003
8.093834e+002, 1.558638e+003
8.098655e+002, 1.510639e+003
8.103476e+002, 1.462740e+003
8.108297e+002, 1.414244e+003
8.113118e+002, 1.365979e+003
8.117939e+002, 1.316946e+003
8.122761e+002, 1.265686e+003
8.127582e+002, 1.208961e+003
8.132403e+002, 1.154504e+003
8.137224e+002, 1.102970e+003
8.142045e+002, 1.054211e+003
8.146866e+002, 1.008062e+003
8.151688e+002, 9.652217e+002
8.156509e+002, 9.230960e+002
8.161330e+002, 8.809575e+002
8.166151e+002, 8.397899e+002
8.170972e+002, 8.004252e+002
8.175793e+002, 7.631407e+002
8.180615e+002, 7.275610e+002
8.185436e+002, 6.939185e+002
8.190257e+002, 6.620189e+002
8.195078e+002, 6.325938e+002
8.199899e+002, 6.049557e+002
8.204720e+002, 5.780264e+002
8.209542e+002, 5.518350e+002
8.214363e+002, 5.267640e+002
8.219184e+002, 5.024080e+002
8.224005e+002, 4.798724e+002
8.228826e+002, 4.614474e+002
8.233647e+002, 4.463267e+002
8.238469e+002, 4.318000e+002
8.243290e+002, 4.171103e+002
8.248111e+002, 4.026561e+002
8.252932e+002, 3.881321e+002
8.257753e+002, 3.740104e+002
8.262574e+002, 3.613151e+002
8.267396e+002, 3.509945e+002
8.272217e+002, 3.407580e+002
8.277038e+002, 3.298260e+002
8.281859e+002, 3.192169e+002
8.286681e+002, 3.100165e+002
8.291502e+002, 3.024009e+002
8.296323e+002, 2.953576e+002
8.301144e+002, 2.888622e+002
8.305966e+002, 2.826471e+002
8.310787e+002, 2.760837e+002
8.315608e+002, 2.694824e+002
8.320429e+002, 2.632502e+002
8.325250e+002, 2.574328e+002
8.330071e+002, 2.523062e+002
8.334893e+002, 2.487178e+002
8.339714e+002, 2.454675e+002
8.344535e+002, 2.410999e+002
8.349356e+002, 2.342007e+002
8.354177e+002, 2.292762e+002
8.358998e+002, 2.270574e+002
8.363820e+002, 2.255846e+002
8.368641e+002, 2.228558e+002
8.373462e+002, 2.190129e+002
8.378283e+002, 2.145168e+002
8.383104e+002, 2.092886e+002
8.387925e+002, 2.050672e+002
8.392747e+002, 2.042673e+002
8.397568e+002, 2.048019e+002
8.402389e+002, 2.044555e+002
8.407210e+002, 2.028073e+002
8.412031e+002, 2.003405e+002
8.416852e+002, 1.957777e+002
8.421674e+002, 1.916972e+002
8.426495e+002, 1.901933e+002
8.431316e+002, 1.919598e+002
8.436137e+002, 1.912787e+002
8.440958e+002, 1.878254e+002
8.445779e+002, 1.837756e+002
8.450601e+002, 1.808850e+002
8.455422e+002, 1.788243e+002
8.460243e+002, 1.769914e+002
8.465064e+002, 1.753307e+002
8.469885e+002, 1.738576e+002
8.474706e+002, 1.728501e+002
8.479528e+002, 1.718078e+002
8.484349e+002, 1.702635e+002
8.489170e+002, 1.680753e+002
8.493991e+002, 1.666040e+002
8.498812e+002, 1.661117e+002
8.503633e+002, 1.656960e+002
8.508455e+002, 1.646272e+002
8.513276e+002, 1.631309e+002
8.518097e+002, 1.627132e+002
8.522918e+002, 1.632733e+002
8.527739e+002, 1.635653e+002
8.532560e+002, 1.623261e+002
8.537382e+002, 1.607921e+002
8.542203e+002, 1.600347e+002
8.547024e+002, 1.600338e+002
8.551845e+002, 1.598802e+002
8.556666e+002, 1.590826e+002
8.561487e+002, 1.585154e+002
8.566309e+002, 1.586700e+002
8.571130e+002, 1.592980e+002
8.575951e+002, 1.588261e+002
8.580772e+002, 1.572194e+002
8.585593e+002, 1.557644e+002
8.590414e+002, 1.551169e+002
8.595236e+002, 1.549628e+002
8.600057e+002, 1.552259e+002
8.604878e+002, 1.556531e+002
8.609699e+002, 1.554398e+002
8.614520e+002, 1.532897e+002
8.619341e+002, 1.514923e+002
8.624163e+002, 1.512139e+002
8.628984e+002, 1.518443e+002
8.633805e+002, 1.517320e+002
8.638626e+002, 1.505119e+002
8.643447e+002, 1.500355e+002
8.648268e+002, 1.509894e+002
8.653090e+002, 1.525828e+002
8.657911e+002, 1.537404e+002
8.662732e+002, 1.543147e+002
8.667553e+002, 1.537642e+002
8.672374e+002, 1.510328e+002
8.677195e+002, 1.484002e+002
8.682017e+002, 1.471585e+002
8.686838e+002, 1.468544e+002
8.691659e+002, 1.468733e+002
8.696480e+002, 1.475002e+002
8.701301e+002, 1.477025e+002
8.706122e+002, 1.472457e+002
8.710944e+002, 1.465736e+002
8.715765e+002, 1.464417e+002
8.720586e+002, 1.467072e+002
8.725407e+002, 1.464781e+002
8.730228e+002, 1.455118e+002
8.735049e+002, 1.444330e+002
8.739871e+002, 1.435357e+002
8.744692e+002, 1.429452e+002
8.749513e+002, 1.428704e+002
8.754334e+002, 1.437208e+002
8.759155e+002, 1.441611e+002
8.763976e+002, 1.439216e+002
8.768798e+002, 1.434574e+002
8.773619e+002, 1.431110e+002
8.778440e+002, 1.428898e+002
8.783261e+002, 1.424478e+002
8.788082e+002, 1.417278e+002
8.792903e+002, 1.413353e+002
8.797725e+002, 1.423648e+002
8.802546e+002, 1.437047e+002
8.807367e+002, 1.437526e+002
8.812188e+002, 1.423397e+002
8.817009e+002, 1.412348e+002
8.821830e+002, 1.409148e+002
8.826652e+002, 1.412302e+002
8.831473e+002, 1.424177e+002
8.836294e+002, 1.444127e+002
8.841115e+002, 1.448535e+002
8.845936e+002, 1.435232e+002
8.850757e+002, 1.421585e+002
8.855579e+002, 1.418315e+002
8.860400e+002, 1.420847e+002
8.865221e+002, 1.421721e+002
8.870042e+002, 1.421040e+002
8.874863e+002, 1.419320e+002
8.879684e+002, 1.415133e+002
8.884506e+002, 1.411651e+002
8.889327e+002, 1.410918e+002
8.894148e+002, 1.411987e+002
8.898969e+002, 1.411353e+002
8.903790e+002, 1.407906e+002
8.908611e+002, 1.407191e+002
8.913433e+002, 1.412223e+002
8.918254e+002, 1.418411e+002
8.923075e+002, 1.415537e+002
8.927896e+002, 1.406490e+002
8.932717e+002, 1.399784e+002
8.937538e+002, 1.397804e+002
8.942360e+002, 1.399939e+002
8.947181e+002, 1.410617e+002
8.952002e+002, 1.423463e+002
8.956823e+002, 1.427965e+002
8.961644e+002, 1.414833e+002
8.966465e+002, 1.415396e+002
8.971287e+002, 1.436947e+002
8.976108e+002, 1.461586e+002
8.980929e+002, 1.464645e+002
8.985750e+002, 1.451218e+002
8.990571e+002, 1.439866e+002
8.995392e+002, 1.433131e+002
9.000214e+002, 1.429342e+002
9.005035e+002, 1.427638e+002
9.009856e+002, 1.427953e+002
9.014677e+002, 1.430838e+002
9.019498e+002, 1.437726e+002
9.024319e+002, 1.441313e+002
9.029141e+002, 1.439077e+002
9.033962e+002, 1.437957e+002
9.038783e+002, 1.443918e+002
9.043604e+002, 1.455557e+002
9.048425e+002, 1.462613e+002
9.053246e+002, 1.465201e+002
9.058068e+002, 1.464267e+002
9.062889e+002, 1.455932e+002
9.067710e+002, 1.448138e+002
9.072531e+002, 1.448635e+002
9.077352e+002, 1.456502e+002
9.082173e+002, 1.461880e+002
9.086995e+002, 1.463365e+002
9.091816e+002, 1.462378e+002
9.096637e+002, 1.458548e+002
9.101458e+002, 1.452956e+002
9.106279e+002, 1.447436e+002
9.111100e+002, 1.442494e+002
9.115922e+002, 1.443410e+002
9.120743e+002, 1.456990e+002
9.125564e+002, 1.470065e+002
9.130385e+002, 1.464608e+002
9.135206e+002, 1.451232e+002
9.140027e+002, 1.448056e+002
9.144849e+002, 1.472269e+002
9.149670e+002, 1.489465e+002
9.154491e+002, 1.496348e+002
9.159312e+002, 1.496196e+002
9.164133e+002, 1.491552e+002
9.168954e+002, 1.482693e+002
9.173776e+002, 1.474236e+002
9.178597e+002, 1.466039e+002
9.183418e+002, 1.463409e+002
9.188239e+002, 1.479065e+002
9.193060e+002, 1.498673e+002
9.197881e+002, 1.504237e+002
9.202703e+002, 1.488673e+002
9.207524e+002, 1.481394e+002
9.212345e+002, 1.493513e+002
9.217166e+002, 1.505678e+002
9.221987e+002, 1.505473e+002
9.226808e+002, 1.494007e+002
9.231630e+002, 1.492928e+002
9.236451e+002, 1.502220e+002
9.241272e+002, 1.513997e+002
9.246093e+002, 1.526099e+002
9.250914e+002, 1.535804e+002
9.255735e+002, 1.538468e+002
9.260557e+002, 1.535667e+002
9.265378e+002, 1.534919e+002
9.270199e+002, 1.538398e+002
9.275020e+002, 1.544259e+002
9.279841e+002, 1.553549e+002
9.284662e+002, 1.564126e+002
9.289484e+002, 1.569514e+002
9.294305e+002, 1.570110e+002
9.299126e+002, 1.573147e+002
9.303947e+002, 1.582142e+002
9.308768e+002, 1.591234e+002
9.313589e+002, 1.591706e+002
9.318411e+002, 1.588981e+002
9.323232e+002, 1.591083e+002
9.328053e+002, 1.604674e+002
9.332874e+002, 1.615335e+002
9.337695e+002, 1.620132e+002
9.342516e+002, 1.623821e+002
9.347338e+002, 1.631206e+002
9.352159e+002, 1.642207e+002
9.356980e+002, 1.651707e+002
9.361801e+002, 1.659335e+002
9.366622e+002, 1.667247e+002
9.371443e+002, 1.682904e+002
9.376265e+002, 1.695975e+002
9.381086e+002, 1.688337e+002
9.385907e+002, 1.658047e+002
9.390728e+002, 1.653879e+002
9.395549e+002, 1.706823e+002
9.400370e+002, 1.751650e+002
9.405192e+002, 1.758673e+002
9.410013e+002, 1.738791e+002
9.414834e+002, 1.744702e+002
9.419655e+002, 1.774108e+002
9.424476e+002, 1.802208e+002
9.429297e+002, 1.814336e+002
9.434119e+002, 1.822945e+002
9.438940e+002, 1.837069e+002
9.443761e+002, 1.855979e+002
9.448582e+002, 1.878141e+002
9.453403e+002, 1.900167e+002
9.458224e+002, 1.931600e+002
9.463046e+002, 1.978652e+002
9.467867e+002, 2.028267e+002
9.472688e+002, 2.057647e+002
9.477509e+002, 2.071020e+002
9.482330e+002, 2.091370e+002
9.487151e+002, 2.121738e+002
9.491973e+002, 2.163207e+002
9.496794e+002, 2.223669e+002
9.501615e+002, 2.290996e+002
9.506436e+002, 2.355428e+002
9.511257e+002, 2.415198e+002
9.516078e+002, 2.468308e+002
9.520900e+002, 2.506589e+002
9.525721e+002, 2.555063e+002
9.530542e+002, 2.632500e+002
9.535363e+002, 2.731279e+002
9.540184e+002, 2.816468e+002
9.545005e+002, 2.890770e+002
9.549827e+002, 2.975184e+002
9.554648e+002, 3.087218e+002
9.559469e+002, 3.207347e+002
9.564290e+002, 3.323472e+002
9.569111e+002, 3.438963e+002
9.573932e+002, 3.560826e+002
9.578754e+002, 3.684239e+002
9.583575e+002, 3.829287e+002
9.588396e+002, 4.000596e+002
9.593217e+002, 4.189998e+002
9.598038e+002, 4.380575e+002
9.602859e+002, 4.576322e+002
9.607681e+002, 4.785185e+002
9.612502e+002, 5.008875e+002
9.617323e+002, 5.249819e+002
9.622144e+002, 5.518817e+002
9.626965e+002, 5.798640e+002
9.631786e+002, 6.073334e+002
9.636608e+002, 6.335742e+002
9.641429e+002, 6.618000e+002
9.646250e+002, 6.918124e+002
9.651071e+002, 7.235988e+002
9.655892e+002, 7.585353e+002
9.660714e+002, 7.944420e+002
9.665535e+002, 8.284252e+002
9.670356e+002, 8.604974e+002
9.675177e+002, 8.924811e+002
9.679998e+002, 9.227855e+002
9.684819e+002, 9.558480e+002
9.689641e+002, 9.959108e+002
9.694462e+002, 1.039448e+003
9.699283e+002, 1.077904e+003
9.704104e+002, 1.110679e+003
9.708925e+002, 1.145149e+003
9.713746e+002, 1.183862e+003
9.718568e+002, 1.223266e+003
9.723389e+002, 1.259145e+003
9.728210e+002, 1.293350e+003
9.733031e+002, 1.329497e+003
9.737852e+002, 1.370698e+003
9.742673e+002, 1.407103e+003
9.747495e+002, 1.435723e+003
9.752316e+002, 1.460897e+003
9.757137e+002, 1.487029e+003
9.761958e+002, 1.514280e+003
9.766779e+002, 1.530182e+003
9.771600e+002, 1.534715e+003
9.776422e+002, 1.528168e+003
9.781243e+002, 1.510013e+003
9.786064e+002, 1.481413e+003
9.790885e+002, 1.442415e+003
9.795706e+002, 1.393846e+003
9.800527e+002, 1.337610e+003
9.805349e+002, 1.271894e+003
9.810170e+002, 1.202600e+003
9.814991e+002, 1.129476e+003
9.819812e+002, 1.054378e+003
9.824633e+002, 9.799128e+002
9.829454e+002, 9.065187e+002
9.834276e+002, 8.357990e+002
9.839097e+002, 7.664954e+002
9.843918e+002, 7.026497e+002
9.848739e+002, 6.468233e+002
9.853560e+002, 5.968304e+002
9.858381e+002, 5.508552e+002
9.863203e+002, 5.082486e+002
9.868024e+002, 4.701362e+002
9.872845e+002, 4.362651e+002
9.877666e+002, 4.077358e+002
9.882487e+002, 3.869105e+002
9.887308e+002, 3.715379e+002
9.892130e+002, 3.564871e+002
9.896951e+002, 3.418817e+002
9.901772e+002, 3.280984e+002
9.906593e+002, 3.151611e+002
9.911414e+002, 3.033036e+002
9.916235e+002, 2.924543e+002
9.921057e+002, 2.828021e+002
9.925878e+002, 2.748288e+002
9.930699e+002, 2.686183e+002
9.935520e+002, 2.629317e+002
9.940341e+002, 2.575031e+002
9.945162e+002, 2.524293e+002
9.949984e+002, 2.476866e+002
9.954805e+002, 2.434247e+002
9.959626e+002, 2.398881e+002
9.964447e+002, 2.372209e+002
9.969268e+002, 2.348060e+002
9.974089e+002, 2.329310e+002
9.978911e+002, 2.307686e+002
9.983732e+002, 2.276147e+002
9.988553e+002, 2.237145e+002
9.993374e+002, 2.206885e+002
9.998195e+002, 2.185207e+002
1.000302e+003, 2.168895e+002
1.000784e+003, 2.158001e+002
1.001266e+003, 2.149789e+002
1.001748e+003, 2.146219e+002
1.002230e+003, 2.143440e+002
1.002712e+003, 2.130475e+002
1.003194e+003, 2.099677e+002
1.003676e+003, 2.077885e+002
1.004159e+003, 2.069967e+002
1.004641e+003, 2.067823e+002
1.005123e+003, 2.060125e+002
1.005605e+003, 2.049735e+002
1.006087e+003, 2.044364e+002
1.006569e+003, 2.045798e+002
1.007051e+003, 2.045361e+002
1.007533e+003, 2.036474e+002
1.008016e+003, 2.026698e+002
1.008498e+003, 2.021003e+002
1.008980e+003, 2.018982e+002
1.009462e+003, 2.011003e+002
1.009944e+003, 1.996250e+002
1.010426e+003, 1.988275e+002
1.010908e+003, 1.999510e+002
1.011390e+003, 2.014158e+002
1.011872e+003, 2.012740e+002
1.012355e+003, 2.000753e+002
1.012837e+003, 1.989359e+002
1.013319e+003, 1.976777e+002
1.013801e+003, 1.972863e+002
1.014283e+003, 1.982380e+002
1.014765e+003, 1.994693e+002
1.015247e+003, 1.999227e+002
1.015729e+003, 1.996442e+002
1.016211e+003, 1.984532e+002
1.016694e+003, 1.963517e+002
1.017176e+003, 1.950962e+002
1.017658e+003, 1.968416e+002
1.018140e+003, 1.990444e+002
1.018622e+003, 1.998697e+002
1.019104e+003, 1.994346e+002
1.019586e+003, 1.994813e+002
1.020068e+003, 2.001118e+002
1.020551e+003, 2.008218e+002
1.021033e+003, 2.015258e+002
1.021515e+003, 2.020962e+002
1.021997e+003, 2.023285e+002
1.022479e+003, 2.022666e+002
1.022961e+003, 2.019500e+002
1.023443e+003, 2.011651e+002
1.023925e+003, 2.006177e+002
1.024407e+003, 2.004767e+002
1.024890e+003, 2.006324e+002
1.025372e+003, 2.010749e+002
1.025854e+003, 2.017995e+002
1.026336e+003, 2.026003e+002
1.026818e+003, 2.034704e+002
1.027300e+003, 2.040575e+002
1.027782e+003, 2.040168e+002
1.028264e+003, 2.037026e+002
1.028746e+003, 2.028880e+002
1.029229e+003, 2.019905e+002
1.029711e+003, 2.026353e+002
1.030193e+003, 2.057582e+002
1.030675e+003, 2.081395e+002
1.031157e+003, 2.091268e+002
1.031639e+003, 2.094331e+002
1.032121e+003, 2.101154e+002
1.032603e+003, 2.109266e+002
1.033086e+003, 2.112524e+002
1.033568e+003, 2.109529e+002
1.034050e+003, 2.104951e+002
1.034532e+003, 2.092882e+002
1.035014e+003, 2.088216e+002
1.035496e+003, 2.103680e+002
1.035978e+003, 2.135778e+002
1.036460e+003, 2.143457e+002
1.036943e+003, 2.127056e+002
1.037425e+003, 2.114112e+002
1.037907e+003, 2.120034e+002
1.038389e+003, 2.132496e+002
1.038871e+003, 2.142531e+002
1.039353e+003, 2.150051e+002
1.039835e+003, 2.154286e+002
1.040317e+003, 2.147804e+002
1.040799e+003, 2.152932e+002
1.041281e+003, 2.173888e+002
1.041764e+003, 2.198160e+002
1.042246e+003, 2.213712e+002
1.042728e+003, 2.222970e+002
1.043210e+003, 2.230709e+002
1.043692e+003, 2.237577e+002
1.044174e+003, 2.246021e+002
1.044656e+003, 2.257434e+002
1.045138e+003, 2.270671e+002
1.045621e+003, 2.285365e+002
1.046103e+003, 2.301233e+002
1.046585e+003, 2.318645e+002
1.047067e+003, 2.337607e+002
1.047549e+003, 2.353721e+002
1.048031e+003, 2.364383e+002
1.048513e+003, 2.376725e+002
1.048995e+003, 2.400387e+002
1.049478e+003, 2.428236e+002
1.049960e+003, 2.453632e+002
1.050442e+003, 2.477378e+002
1.050924e+003, 2.486829e+002
1.051406e+003, 2.472404e+002
1.051888e+003, 2.467131e+002
1.052370e+003, 2.495164e+002
1.052852e+003, 2.542607e+002
1.053334e+003, 2.581491e+002
1.053817e+003, 2.608922e+002
1.054299e+003, 2.615397e+002
1.054781e+003, 2.578048e+002
1.055263e+003, 2.541826e+002
1.055745e+003, 2.521154e+002
1.056227e+003, 2.507154e+002
1.056709e+003, 2.489414e+002
1.057191e+003, 2.467792e+002
1.057673e+003, 2.455827e+002
1.058156e+003, 2.455264e+002
1.058638e+003, 2.447422e+002
1.059120e+003, 2.402871e+002
1.059602e+003, 2.355955e+002
1.060084e+003, 2.338025e+002
1.060566e+003, 2.348124e+002
1.061048e+003, 2.354844e+002
1.061530e+003, 2.355737e+002
1.062013e+003, 2.356484e+002
1.062495e+003, 2.357228e+002
1.062977e+003, 2.361285e+002
1.063459e+003, 2.381030e+002
1.063941e+003, 2.406304e+002
1.064423e+003, 2.415873e+002
1.064905e+003, 2.400200e+002
1.065387e+003, 2.386796e+002
1.065870e+003, 2.386490e+002
1.066352e+003, 2.388327e+002
1.066834e+003, 2.386924e+002
1.067316e+003, 2.382764e+002
1.067798e+003, 2.378123e+002
1.068280e+003, 2.373519e+002
1.068762e+003, 2.373758e+002
1.069244e+003, 2.386382e+002
1.069726e+003, 2.399154e+002
1.070208e+003, 2.404011e+002
1.070691e+003, 2.403680e+002
1.071173e+003, 2.401621e+002
1.071655e+003, 2.395170e+002
1.072137e+003, 2.398628e+002
1.072619e+003, 2.414113e+002
1.073101e+003, 2.431999e+002
1.073583e+003, 2.448040e+002
1.074065e+003, 2.458345e+002
1.074548e+003, 2.453756e+002
1.075030e+003, 2.436419e+002
1.075512e+003, 2.424788e+002
1.075994e+003, 2.422654e+002
1.076476e+003, 2.429330e+002
1.076958e+003, 2.449906e+002
1.077440e+003, 2.472342e+002
1.077922e+003, 2.466980e+002
1.078405e+003, 2.444512e+002
1.078887e+003, 2.442822e+002
1.079369e+003, 2.473380e+002
1.079851e+003, 2.499855e+002
1.080333e+003, 2.503432e+002
1.080815e+003, 2.495102e+002
1.081297e+003, 2.476157e+002
1.081779e+003, 2.449785e+002
1.082261e+003, 2.457567e+002
1.082744e+003, 2.499139e+002
1.083226e+003, 2.531189e+002
1.083708e+003, 2.529307e+002
1.084190e+003, 2.518243e+002
1.084672e+003, 2.521382e+002
1.085154e+003, 2.530052e+002
1.085636e+003, 2.530854e+002
1.086118e+003, 2.517233e+002
1.086601e+003, 2.508053e+002
1.087083e+003, 2.503345e+002
1.087565e+003, 2.502998e+002
1.088047e+003, 2.510194e+002
1.088529e+003, 2.520095e+002
1.089011e+003, 2.523665e+002
1.089493e+003, 2.522095e+002
1.089975e+003, 2.521051e+002
1.090458e+003, 2.519497e+002
1.090940e+003, 2.524196e+002
1.091422e+003, 2.541788e+002
1.091904e+003, 2.558973e+002
1.092386e+003, 2.550848e+002
1.092868e+003, 2.524157e+002
1.093350e+003, 2.507926e+002
1.093832e+003, 2.505894e+002
1.094314e+003, 2.510647e+002
1.094797e+003, 2.528263e+002
1.095279e+003, 2.540756e+002
1.095761e+003, 2.530046e+002
1.096243e+003, 2.505391e+002
1.096725e+003, 2.511488e+002
1.097207e+003, 2.549332e+002
1.097689e+003, 2.567944e+002
1.098171e+003, 2.545795e+002
1.098653e+003, 2.517460e+002
1.099136e+003, 2.518528e+002
1.099618e+003, 2.531905e+002
1.100100e+003, 2.538190e+002
1.100582e+003, 2.533156e+002
1.101064e+003, 2.528392e+002
1.101546e+003, 2.522453e+002
1.102028e+003, 2.522322e+002
1.102510e+003, 2.536714e+002
1.102993e+003, 2.554983e+002
1.103475e+003, 2.557931e+002
1.103957e+003, 2.549871e+002
1.104439e+003, 2.540422e+002
1.104921e+003, 2.531055e+002
1.105403e+003, 2.523694e+002
1.105885e+003, 2.521330e+002
1.106367e+003, 2.516635e+002
1.106849e+003, 2.499329e+002
1.107332e+003, 2.473857e+002
1.107814e+003, 2.457526e+002
1.108296e+003, 2.450442e+002
1.108778e+003, 2.449041e+002
1.109260e+003, 2.457329e+002
1.109742e+003, 2.464058e+002
1.110224e+003, 2.462760e+002
1.110706e+003, 2.458318e+002
1.111188e+003, 2.461245e+002
1.111671e+003, 2.471033e+002
1.112153e+003, 2.467689e+002
1.112635e+003, 2.447166e+002
1.113117e+003, 2.429261e+002
1.113599e+003, 2.434718e+002
1.114081e+003, 2.445593e+002
1.114563e+003, 2.447157e+002
1.115045e+003, 2.440045e+002
1.115528e+003, 2.436949e+002
1.116010e+003, 2.439832e+002
1.116492e+003, 2.432290e+002
1.116974e+003, 2.405168e+002
1.117456e+003, 2.377084e+002
1.117938e+003, 2.375017e+002
1.118420e+003, 2.384339e+002
1.118902e+003, 2.384865e+002
1.119385e+003, 2.368875e+002
1.119867e+003, 2.363285e+002
1.120349e+003, 2.372884e+002
1.120831e+003, 2.382290e+002
1.121313e+003, 2.383863e+002
1.121795e+003, 2.379781e+002
1.122277e+003, 2.373106e+002
1.122759e+003, 2.364820e+002
1.123241e+003, 2.357337e+002
1.123724e+003, 2.353911e+002
1.124206e+003, 2.347194e+002
1.124688e+003, 2.334018e+002
1.125170e+003, 2.320760e+002
1.125652e+003, 2.314967e+002
1.126134e+003, 2.314067e+002
1.126616e+003, 2.298924e+002
1.127098e+003, 2.273418e+002
1.127580e+003, 2.261832e+002
1.128063e+003, 2.300422e+002
1.128545e+003, 2.328195e+002
1.129027e+003, 2.310793e+002
1.129509e+003, 2.274670e+002
1.129991e+003, 2.249491e+002
1.130473e+003, 2.235321e+002
1.130955e+003, 2.240833e+002
1.131437e+003, 2.267235e+002
1.131920e+003, 2.290211e+002
1.132402e+003, 2.292076e+002
1.132884e+003, 2.283820e+002
1.133366e+003, 2.267560e+002
1.133848e+003, 2.247581e+002
1.134330e+003, 2.238273e+002
1.134812e+003, 2.241332e+002
1.135294e+003, 2.239927e+002
1.135776e+003, 2.229259e+002
1.136259e+003, 2.220192e+002
1.136741e+003, 2.229689e+002
1.137223e+003, 2.242702e+002
1.137705e+003, 2.242317e+002
1.138187e+003, 2.225798e+002
1.138669e+003, 2.213535e+002
1.139151e+003, 2.205836e+002
1.139633e+003, 2.202527e+002
1.140115e+003, 2.205550e+002
1.140598e+003, 2.208927e+002
1.141080e+003, 2.200184e+002
1.141562e+003, 2.187146e+002
1.142044e+003, 2.183185e+002
1.142526e+003, 2.195621e+002
1.143008e+003, 2.201080e+002
1.143490e+003, 2.195514e+002
1.143972e+003, 2.188440e+002
1.144455e+003, 2.185627e+002
1.144937e+003, 2.184398e+002
1.145419e+003, 2.178019e+002
1.145901e+003, 2.167918e+002
1.146383e+003, 2.157318e+002
1.146865e+003, 2.141862e+002
1.147347e+003, 2.136391e+002
1.147829e+003, 2.149662e+002
1.148312e+003, 2.162821e+002
1.148794e+003, 2.158531e+002
1.149276e+003, 2.140992e+002
1.149758e+003, 2.129997e+002
1.150240e+003, 2.125101e+002
1.150722e+003, 2.123122e+002
1.151204e+003, 2.127606e+002
1.151686e+003, 2.128272e+002
1.152168e+003, 2.121386e+002
1.152651e+003, 2.109474e+002
1.153133e+003, 2.092158e+002
1.153615e+003, 2.070818e+002
1.154097e+003, 2.060094e+002
1.154579e+003, 2.060840e+002
1.155061e+003, 2.065968e+002
1.155543e+003, 2.081882e+002
1.156025e+003, 2.089560e+002
1.156507e+003, 2.071456e+002
1.156990e+003, 2.040170e+002
1.157472e+003, 2.015876e+002
1.157954e+003, 1.998505e+002
1.158436e+003, 1.997372e+002
1.158918e+003, 2.015182e+002
1.159400e+003, 2.030470e+002
1.159882e+003, 2.023572e+002
1.160364e+003, 2.009312e+002
1.160847e+003, 1.996778e+002
1.161329e+003, 1.986705e+002
1.161811e+003, 1.981038e+002
1.162293e+003, 1.980435e+002
1.162775e+003, 1.977393e+002
1.163257e+003, 1.970070e+002
1.163739e+003, 1.959854e+002
1.164221e+003, 1.942649e+002
1.164703e+003, 1.926897e+002
1.165186e+003, 1.923305e+002
1.165668e+003, 1.933334e+002
1.166150e+003, 1.937675e+002
1.166632e+003, 1.935802e+002
1.167114e+003, 1.931575e+002
1.167596e+003, 1.927279e+002
1.168078e+003, 1.919403e+002
1.168560e+003, 1.898880e+002
1.169042e+003, 1.874222e+002
1.169525e+003, 1.857359e+002
1.170007e+003, 1.852084e+002
1.170489e+003, 1.848995e+002
1.170971e+003, 1.849226e+002
1.171453e+003, 1.847277e+002
1.171935e+003, 1.839296e+002
1.172417e+003, 1.828520e+002
1.172899e+003, 1.817768e+002
1.173382e+003, 1.808483e+002
1.173864e+003, 1.804284e+002
1.174346e+003, 1.816376e+002
1.174828e+003, 1.808979e+002
1.175310e+003, 1.773413e+002
1.175792e+003, 1.740865e+002
1.176274e+003, 1.737100e+002
1.176756e+003, 1.749120e+002
1.177239e+003, 1.753414e+002
1.177721e+003, 1.752075e+002
1.178203e+003, 1.750701e+002
1.178685e+003, 1.756940e+002
1.179167e+003, 1.753005e+002
1.179649e+003, 1.734545e+002
1.180131e+003, 1.713302e+002
1.180613e+003, 1.698670e+002
1.181095e+003, 1.689728e+002
1.181578e+003, 1.686284e+002
1.182060e+003, 1.686982e+002
1.182542e+003, 1.686458e+002
1.183024e+003, 1.685127e+002
1.183506e+003, 1.678002e+002
1.183988e+003, 1.661836e+002
1.184470e+003, 1.644602e+002
1.184952e+003, 1.635550e+002
1.185434e+003, 1.632780e+002
1.185917e+003, 1.631710e+002
1.186399e+003, 1.632051e+002
1.186881e+003, 1.634325e+002
1.187363e+003, 1.649754e+002
1.187845e+003, 1.649778e+002
1.188327e+003, 1.619565e+002
1.188809e+003, 1.584437e+002
1.189291e+003, 1.590617e+002
1.189774e+003, 1.622737e+002
1.190256e+003, 1.631483e+002
1.190738e+003, 1.611584e+002
1.191220e+003, 1.593545e+002
1.191702e+003, 1.594071e+002
1.192184e+003, 1.594410e+002
1.192666e+003, 1.588941e+002
1.193148e+003, 1.579766e+002
1.193630e+003, 1.568609e+002
1.194113e+003, 1.557368e+002
1.194595e+003, 1.554489e+002
1.195077e+003, 1.562432e+002
1.195559e+003, 1.565911e+002
1.196041e+003, 1.549757e+002
1.196523e+003, 1.537714e+002
1.197005e+003, 1.541193e+002
1.197487e+003, 1.552942e+002
1.197969e+003, 1.554064e+002
1.198452e+003, 1.546362e+002
1.198934e+003, 1.534342e+002
1.199416e+003, 1.516791e+002
1.199898e+003, 1.507907e+002
1.200380e+003, 1.528286e+002
1.200862e+003, 1.543007e+002
1.201344e+003, 1.532193e+002
1.201826e+003, 1.504858e+002
1.202309e+003, 1.493435e+002
1.202791e+003, 1.494839e+002
1.203273e+003, 1.497462e+002
1.203755e+003, 1.498101e+002
1.204237e+003, 1.498816e+002
1.204719e+003, 1.497599e+002
1.205201e+003, 1.500411e+002
1.205683e+003, 1.514657e+002
1.206166e+003, 1.534827e+002
1.206648e+003, 1.533947e+002
1.207130e+003, 1.515849e+002
1.207612e+003, 1.495745e+002
1.208094e+003, 1.475290e+002
1.208576e+003, 1.462702e+002
1.209058e+003, 1.468791e+002
1.209540e+003, 1.477343e+002
1.210022e+003, 1.477932e+002
1.210505e+003, 1.472103e+002
1.210987e+003, 1.470431e+002
1.211469e+003, 1.471622e+002
1.211951e+003, 1.469405e+002
1.212433e+003, 1.455397e+002
1.212915e+003, 1.446688e+002
1.213397e+003, 1.457501e+002
1.213879e+003, 1.468426e+002
1.214361e+003, 1.463166e+002
1.214844e+003, 1.444697e+002
1.215326e+003, 1.432874e+002
1.215808e+003, 1.427805e+002
1.216290e+003, 1.429638e+002
1.216772e+003, 1.446893e+002
1.217254e+003, 1.459982e+002
1.217736e+003, 1.463973e+002
1.218218e+003, 1.460535e+002
1.218701e+003, 1.446957e+002
1.219183e+003, 1.425891e+002
1.219665e+003, 1.415764e+002
1.220147e+003, 1.415372e+002
1.220629e+003, 1.416498e+002
1.221111e+003, 1.415839e+002
1.221593e+003, 1.415296e+002
1.222075e+003, 1.415545e+002
1.222557e+003, 1.415998e+002
1.223040e+003, 1.416087e+002
1.223522e+003, 1.415884e+002
1.224004e+003, 1.415373e+002
1.224486e+003, 1.414743e+002
1.224968e+003, 1.415024e+002
1.225450e+003, 1.422080e+002
1.225932e+003, 1.422047e+002
1.226414e+003, 1.407455e+002
1.226896e+003, 1.391003e+002
1.227379e+003, 1.388634e+002
1.227861e+003, 1.396639e+002
1.228343e+003, 1.404465e+002
1.228825e+003, 1.410477e+002
1.229307e+003, 1.408537e+002
1.229789e+003, 1.386762e+002
1.230271e+003, 1.368788e+002
1.230753e+003, 1.359093e+002
1.231236e+003, 1.356028e+002
1.231718e+003, 1.360525e+002
1.232200e+003, 1.369408e+002
1.232682e+003, 1.373418e+002
1.233164e+003, 1.372515e+002
1.233646e+003, 1.371720e+002
1.234128e+003, 1.371887e+002
1.234610e+003, 1.374582e+002
1.235093e+003, 1.381459e+002
1.235575e+003, 1.388389e+002
1.236057e+003, 1.389598e+002
1.236539e+003, 1.386641e+002
1.237021e+003, 1.381161e+002
1.237503e+003, 1.374025e+002
1.237985e+003, 1.371187e+002
1.238467e+003, 1.379268e+002
1.238949e+003, 1.385065e+002
1.239432e+003, 1.386823e+002
1.239914e+003, 1.384664e+002
1.240396e+003, 1.374070e+002
1.240878e+003, 1.361669e+002
1.241360e+003, 1.363414e+002
1.241842e+003, 1.379094e+002
1.242324e+003, 1.385326e+002
1.242806e+003, 1.373056e+002
1.243288e+003, 1.359955e+002
1.243771e+003, 1.347489e+002
1.244253e+003, 1.339973e+002
1.244735e+003, 1.348863e+002
1.245217e+003, 1.363162e+002
1.245699e+003, 1.361809e+002
1.246181e+003, 1.344689e+002
1.246663e+003, 1.346936e+002
1.247145e+003, 1.383379e+002
1.247628e+003, 1.402587e+002
1.248110e+003, 1.390750e+002
1.248592e+003, 1.369216e+002
1.249074e+003, 1.361783e+002
1.249556e+003, 1.362151e+002
1.250038e+003, 1.363543e+002
1.250520e+003, 1.365304e+002
1.251002e+003, 1.367751e+002
1.251484e+003, 1.371294e+002
1.251967e+003, 1.373889e+002
1.252449e+003, 1.375258e+002
1.252931e+003, 1.374750e+002
1.253413e+003, 1.370092e+002
1.253895e+003, 1.364357e+002
1.254377e+003, 1.359923e+002
1.254859e+003, 1.357334e+002
1.255341e+003, 1.358630e+002
1.255823e+003, 1.364192e+002
1.256306e+003, 1.370316e+002
1.256788e+003, 1.376068e+002
1.257270e+003, 1.382289e+002
1.257752e+003, 1.396521e+002
1.258234e+003, 1.406033e+002
1.258716e+003, 1.393696e+002
1.259198e+003, 1.365582e+002
1.259680e+003, 1.352445e+002
1.260163e+003, 1.354366e+002
1.260645e+003, 1.358324e+002
1.261127e+003, 1.362546e+002
1.261609e+003, 1.360984e+002
1.262091e+003, 1.337227e+002
1.262573e+003, 1.317844e+002
1.263055e+003, 1.326210e+002
1.263537e+003, 1.351937e+002
1.264020e+003, 1.355352e+002
1.264502e+003, 1.339881e+002
1.264984e+003, 1.332515e+002
1.265466e+003, 1.340828e+002
1.265948e+003, 1.347126e+002
1.266430e+003, 1.337819e+002
1.266912e+003, 1.327017e+002
1.267394e+003, 1.320904e+002
1.267876e+003, 1.319137e+002
1.268359e+003, 1.322110e+002
1.268841e+003, 1.328433e+002
1.269323e+003, 1.333336e+002
1.269805e+003, 1.335867e+002
1.270287e+003, 1.336105e+002
1.270769e+003, 1.329648e+002
1.271251e+003, 1.327078e+002
1.271733e+003, 1.334617e+002
1.272215e+003, 1.344766e+002
1.272698e+003, 1.338082e+002
1.273180e+003, 1.321930e+002
1.273662e+003, 1.314035e+002
1.274144e+003, 1.318703e+002
1.274626e+003, 1.319338e+002
1.275108e+003, 1.307439e+002
1.275590e+003, 1.303553e+002
1.276072e+003, 1.317871e+002
1.276555e+003, 1.336366e+002
1.277037e+003, 1.332729e+002
1.277519e+003, 1.318958e+002
1.278001e+003, 1.314861e+002
1.278483e+003, 1.324557e+002
1.278965e+003, 1.325226e+002
1.279447e+003, 1.312279e+002
1.279929e+003, 1.303247e+002
1.280411e+003, 1.303886e+002
1.280894e+003, 1.309448e+002
1.281376e+003, 1.319870e+002
1.281858e+003, 1.328136e+002
1.282340e+003, 1.322884e+002
1.282822e+003, 1.304283e+002
1.283304e+003, 1.298905e+002
1.283786e+003, 1.308285e+002
1.284268e+003, 1.313858e+002
1.284750e+003, 1.309658e+002
1.285233e+003, 1.304559e+002
1.285715e+003, 1.307948e+002
1.286197e+003, 1.312999e+002
1.286679e+003, 1.314250e+002
1.287161e+003, 1.312269e+002
1.287643e+003, 1.308279e+002
1.288125e+003, 1.302766e+002
1.288607e+003, 1.303933e+002
1.289090e+003, 1.315623e+002
1.289572e+003, 1.321420e+002
1.290054e+003, 1.299903e+002
1.290536e+003, 1.282283e+002
1.291018e+003, 1.287065e+002
1.291500e+003, 1.305307e+002
1.291982e+003, 1.312623e+002
1.292464e+003, 1.311585e+002
1.292947e+003, 1.312765e+002
1.293429e+003, 1.318887e+002
1.293911e+003, 1.319617e+002
1.294393e+003, 1.304638e+002
1.294875e+003, 1.290849e+002
1.295357e+003, 1.281799e+002
1.295839e+003, 1.278641e+002
1.296321e+003, 1.286140e+002
1.296803e+003, 1.300205e+002
1.297286e+003, 1.314605e+002
1.297768e+003, 1.328587e+002
1.298250e+003, 1.336245e+002
1.298732e+003, 1.336686e+002
1.299214e+003, 1.332025e+002
1.299696e+003, 1.321218e+002
1.300178e+003, 1.310540e+002
1.300660e+003, 1.306346e+002
##END=



