##NAMES=Perovskite
##RRUFFID=R160074
##IDEAL CHEMISTRY=CaTi^4+^O_3_
##LOCALITY=Zlatoust, Southern Ural Mountains, Chelyabinsk, Russia
##OWNER=RRUFF
##SOURCE=UAMM
##DESCRIPTION=
##STATUS=The identification of this mineral has been determined only by Raman spectroscopy
##URL=rruff.info/R160074
88.13672, 0.0000000E+00
88.61884, 3.367798
89.10095, 4.632751
89.58307, 11.73657
90.06519, 21.61615
90.54730, 36.20557
91.02942, 56.48706
91.51154, 69.58777
91.99365, 68.10205
92.47577, 62.65704
92.95789, 69.88812
93.44000, 78.15997
93.92212, 70.86572
94.40424, 60.42767
94.88635, 49.20984
95.36847, 38.04559
95.85059, 26.53992
96.33270, 14.69940
96.81482, 4.185242
97.29694, 5.179626
97.77905, 13.22992
98.26117, 16.04315
98.74329, 12.12085
99.22540, 4.494019
99.70752, 0.4934080
100.1896, 1.273071
100.6718, 2.053589
101.1539, 0.2636720
101.6360, 4.082397
102.1181, 11.17383
102.6002, 21.06775
103.0823, 33.59521
103.5645, 47.35742
104.0466, 61.24524
104.5287, 78.01245
105.0108, 100.6158
105.4929, 130.2745
105.9750, 163.1322
106.4572, 200.6521
106.9393, 244.3751
107.4214, 279.6187
107.9035, 301.0571
108.3856, 317.3274
108.8677, 337.2791
109.3499, 362.6985
109.8320, 390.6791
110.3141, 420.7576
110.7962, 453.8740
111.2783, 488.2935
111.7604, 525.1895
112.2426, 563.6940
112.7247, 601.5719
113.2068, 636.1482
113.6889, 672.0574
114.1710, 711.6770
114.6531, 759.6658
115.1353, 802.9966
115.6174, 836.1938
116.0995, 862.4362
116.5816, 890.3267
117.0637, 927.7271
117.5458, 964.9049
118.0280, 995.5259
118.5101, 1014.302
118.9922, 1030.511
119.4743, 1048.050
119.9564, 1066.795
120.4385, 1085.698
120.9207, 1103.063
121.4028, 1120.599
121.8849, 1140.330
122.3670, 1168.507
122.8491, 1195.372
123.3312, 1210.897
123.8134, 1215.451
124.2955, 1215.491
124.7776, 1213.232
125.2597, 1209.986
125.7418, 1208.466
126.2239, 1211.017
126.7061, 1215.663
127.1882, 1218.574
127.6703, 1219.655
128.1524, 1220.692
128.6345, 1224.007
129.1166, 1229.128
129.5988, 1233.955
130.0809, 1237.718
130.5630, 1240.433
131.0451, 1241.943
131.5272, 1241.937
132.0093, 1241.411
132.4915, 1242.078
132.9736, 1243.913
133.4557, 1245.557
133.9378, 1245.358
134.4199, 1243.492
134.9020, 1243.678
135.3842, 1246.563
135.8663, 1250.825
136.3484, 1254.055
136.8305, 1255.806
137.3126, 1257.872
137.7947, 1262.158
138.2769, 1269.490
138.7590, 1273.056
139.2411, 1271.856
139.7232, 1266.320
140.2053, 1257.517
140.6874, 1244.508
141.1696, 1230.327
141.6517, 1217.100
142.1338, 1205.091
142.6159, 1193.759
143.0980, 1183.034
143.5801, 1173.124
144.0623, 1164.953
144.5444, 1159.637
145.0265, 1155.171
145.5086, 1149.894
145.9907, 1141.650
146.4728, 1133.878
146.9550, 1127.302
147.4371, 1122.104
147.9192, 1115.684
148.4013, 1106.921
148.8834, 1097.540
149.3655, 1089.130
149.8477, 1081.646
150.3298, 1075.061
150.8119, 1070.066
151.2940, 1067.389
151.7761, 1062.091
152.2583, 1052.297
152.7404, 1040.386
153.2225, 1028.839
153.7046, 1019.309
154.1867, 1008.742
154.6688, 996.5847
155.1510, 982.9561
155.6331, 966.6943
156.1152, 945.9673
156.5973, 923.7703
157.0794, 903.8774
157.5615, 887.5669
158.0437, 872.4507
158.5258, 857.8079
159.0079, 843.7400
159.4900, 829.7583
159.9721, 815.2593
160.4542, 800.7683
160.9364, 787.1992
161.4185, 774.8735
161.9006, 763.4561
162.3827, 753.0906
162.8648, 744.6589
163.3469, 735.0657
163.8291, 721.8257
164.3112, 706.2798
164.7933, 691.4688
165.2754, 679.1008
165.7575, 667.8191
166.2396, 656.5332
166.7218, 644.6919
167.2039, 633.5251
167.6860, 623.2729
168.1681, 614.2507
168.6502, 607.2693
169.1323, 603.4326
169.6145, 601.6416
170.0966, 600.8887
170.5787, 601.2524
171.0608, 602.1274
171.5429, 601.6162
172.0250, 600.5945
172.5072, 602.7605
172.9893, 611.7500
173.4714, 625.0693
173.9535, 639.1921
174.4356, 652.4258
174.9177, 666.9482
175.3999, 685.0044
175.8820, 706.8057
176.3641, 731.7378
176.8462, 765.6770
177.3283, 802.4785
177.8104, 830.5359
178.2926, 844.9312
178.7747, 850.0889
179.2568, 852.2822
179.7389, 851.3276
180.2210, 844.1641
180.7031, 827.3708
181.1853, 802.3079
181.6674, 772.1353
182.1495, 736.3093
182.6316, 696.9724
183.1137, 658.1978
183.5958, 619.6577
184.0780, 582.5181
184.5601, 546.8816
185.0422, 513.3254
185.5243, 481.8521
186.0064, 452.6294
186.4885, 425.6082
186.9707, 402.1721
187.4528, 382.4270
187.9349, 363.5828
188.4170, 341.5496
188.8991, 317.0356
189.3812, 295.7322
189.8634, 280.6221
190.3455, 270.0469
190.8276, 257.0820
191.3097, 241.1987
191.7918, 225.4080
192.2739, 213.3101
192.7561, 204.7383
193.2382, 196.8257
193.7203, 188.5891
194.2024, 180.1145
194.6845, 172.2527
195.1666, 165.2031
195.6488, 157.8140
196.1309, 148.0544
196.6130, 135.6018
197.0951, 124.4062
197.5772, 116.1414
198.0593, 110.5081
198.5415, 104.2422
199.0236, 97.35400
199.5057, 90.03467
199.9878, 82.55054
200.4699, 74.98730
200.9520, 67.34082
201.4342, 59.46826
201.9163, 51.46973
202.3984, 44.75781
202.8805, 39.48682
203.3626, 35.41284
203.8447, 32.28442
204.3269, 30.18237
204.8090, 28.76587
205.2911, 27.94751
205.7732, 27.71606
206.2553, 27.65161
206.7374, 27.48022
207.2196, 27.70435
207.7017, 29.00098
208.1838, 31.35132
208.6659, 34.76367
209.1480, 39.39258
209.6301, 45.42358
210.1123, 52.02954
210.5944, 58.93799
211.0765, 66.67969
211.5586, 75.90479
212.0407, 86.43701
212.5228, 98.43677
213.0050, 112.0618
213.4871, 127.3054
213.9692, 142.2231
214.4513, 156.2932
214.9334, 170.7688
215.4155, 187.4131
215.8977, 206.2593
216.3798, 226.8044
216.8619, 248.5435
217.3440, 271.0891
217.8261, 295.6609
218.3082, 322.2932
218.7904, 350.3765
219.2725, 379.6157
219.7546, 411.3889
220.2367, 442.3762
220.7188, 471.6472
221.2009, 499.8674
221.6831, 524.3557
222.1652, 545.8550
222.6473, 563.0859
223.1294, 573.6670
223.6115, 576.5632
224.0936, 575.2375
224.5758, 570.8516
225.0579, 563.7271
225.5400, 550.6682
226.0221, 528.9583
226.5042, 503.7039
226.9863, 481.8938
227.4685, 464.6501
227.9506, 448.2307
228.4327, 431.3618
228.9148, 413.4702
229.3969, 397.9529
229.8790, 384.1819
230.3612, 373.2002
230.8433, 366.6213
231.3254, 366.2356
231.8075, 366.8003
232.2896, 366.8518
232.7717, 366.1018
233.2539, 367.0945
233.7360, 369.0635
234.2181, 373.3530
234.7002, 381.8293
235.1823, 396.0234
235.6644, 411.6790
236.1466, 427.6846
236.6287, 443.8120
237.1108, 462.8342
237.5929, 483.8298
238.0750, 508.3154
238.5571, 538.1008
239.0393, 575.1843
239.5214, 614.0403
240.0035, 653.2747
240.4856, 693.1560
240.9677, 735.9792
241.4498, 783.5295
241.9320, 832.2605
242.4141, 880.2244
242.8962, 930.9856
243.3783, 974.0479
243.8604, 1007.391
244.3425, 1030.925
244.8247, 1047.370
245.3068, 1058.043
245.7889, 1059.948
246.2710, 1050.152
246.7531, 1025.632
247.2352, 995.0828
247.7174, 958.4792
248.1995, 916.4109
248.6816, 873.5491
249.1637, 829.9875
249.6458, 785.5823
250.1279, 740.2830
250.6101, 691.9287
251.0922, 647.0552
251.5743, 607.7153
252.0564, 573.2334
252.5385, 538.7698
253.0206, 502.7422
253.5028, 468.6494
253.9849, 440.0996
254.4670, 419.1509
254.9491, 397.6855
255.4312, 374.5095
255.9133, 350.0762
256.3955, 325.7861
256.8776, 300.6245
257.3597, 276.7061
257.8418, 255.3767
258.3239, 236.8127
258.8061, 219.7390
259.2882, 204.6033
259.7703, 190.6389
260.2524, 175.2368
260.7345, 157.6274
261.2166, 139.9014
261.6988, 122.8645
262.1809, 106.8608
262.6630, 91.82080
263.1451, 78.28613
263.6272, 65.69458
264.1093, 52.63672
264.5915, 38.51392
265.0736, 25.27417
265.5557, 14.05396
266.0378, 5.875732
266.5199, 3.586182
267.0020, 14.83545
267.4842, 26.96631
267.9663, 38.10107
268.4484, 48.47559
268.9305, 57.24536
269.4126, 63.94678
269.8947, 68.59497
270.3769, 71.60205
270.8590, 72.63647
271.3411, 72.64771
271.8232, 73.53198
272.3053, 75.95825
272.7874, 77.04053
273.2696, 76.11450
273.7517, 73.26050
274.2338, 67.02417
274.7159, 57.15942
275.1980, 44.48804
275.6801, 30.08911
276.1623, 13.88696
276.6444, 3.792236
277.1265, 23.25537
277.6086, 44.65234
278.0907, 65.40991
278.5728, 85.76440
279.0550, 105.4026
279.5371, 124.0505
280.0192, 141.7651
280.5013, 158.3772
280.9834, 173.5901
281.4655, 187.7092
281.9477, 202.5449
282.4298, 218.2515
282.9119, 233.3218
283.3940, 246.4580
283.8761, 257.6401
284.3582, 266.9712
284.8404, 274.2507
285.3225, 279.7437
285.8046, 284.2805
286.2867, 287.8008
286.7688, 290.2620
287.2509, 291.4233
287.7331, 291.3474
288.2152, 290.6169
288.6973, 289.1211
289.1794, 287.2405
289.6615, 286.0354
290.1436, 285.4856
290.6258, 284.5098
291.1079, 281.2288
291.5900, 276.6030
292.0721, 275.7786
292.5542, 280.8682
293.0363, 286.3918
293.5185, 282.1216
294.0006, 269.0317
294.4827, 256.7632
294.9648, 251.6501
295.4469, 251.2644
295.9290, 249.0811
296.4112, 244.4019
296.8933, 239.0415
297.3754, 235.1750
297.8575, 232.5466
298.3396, 230.1318
298.8217, 227.8145
299.3039, 225.2822
299.7860, 221.7786
300.2681, 217.1807
300.7502, 212.6785
301.2323, 209.7288
301.7144, 207.7996
302.1966, 205.7693
302.6787, 203.1638
303.1608, 200.2183
303.6429, 197.3259
304.1250, 194.4912
304.6071, 191.0662
305.0893, 186.2175
305.5714, 180.4902
306.0535, 174.8623
306.5356, 168.9766
307.0177, 163.8877
307.4998, 161.4712
307.9820, 161.1680
308.4641, 160.1990
308.9462, 156.5483
309.4283, 151.3928
309.9104, 145.8865
310.3925, 139.8989
310.8747, 134.4895
311.3568, 131.2073
311.8389, 129.2871
312.3210, 126.6030
312.8031, 120.8713
313.2852, 114.6831
313.7674, 110.0442
314.2495, 107.6570
314.7316, 105.9307
315.2137, 105.6121
315.6958, 105.3127
316.1779, 102.6521
316.6601, 93.94629
317.1422, 84.83545
317.6243, 78.19165
318.1064, 74.51611
318.5885, 72.24512
319.0706, 71.54321
319.5528, 71.74463
320.0349, 72.09155
320.5170, 72.31616
320.9991, 72.72974
321.4812, 73.35986
321.9633, 74.19995
322.4455, 75.46289
322.9276, 77.05884
323.4097, 79.13281
323.8918, 81.59009
324.3739, 84.64624
324.8560, 87.25415
325.3382, 88.84839
325.8203, 89.63647
326.3024, 90.91309
326.7845, 93.31470
327.2666, 96.04150
327.7487, 98.78687
328.2309, 101.6233
328.7130, 104.5530
329.1951, 107.3047
329.6772, 110.1672
330.1593, 113.8989
330.6414, 118.6216
331.1236, 124.2764
331.6057, 131.0417
332.0878, 139.3137
332.5699, 148.5845
333.0520, 159.7607
333.5341, 171.6235
334.0163, 182.0933
334.4984, 189.7942
334.9805, 198.5667
335.4626, 209.4810
335.9447, 222.7646
336.4268, 233.8884
336.9090, 242.5413
337.3911, 249.7068
337.8732, 255.9270
338.3553, 260.7576
338.8374, 266.4333
339.3195, 273.6479
339.8017, 281.9026
340.2838, 289.6125
340.7659, 297.0449
341.2480, 302.7363
341.7301, 305.0818
342.2122, 303.8936
342.6944, 303.0457
343.1765, 303.1846
343.6586, 303.4260
344.1407, 302.1567
344.6228, 299.4065
345.1049, 295.3767
345.5871, 290.1936
346.0692, 283.8467
346.5513, 276.5076
347.0334, 268.0923
347.5155, 259.4180
347.9977, 251.6731
348.4798, 244.7151
348.9619, 238.0923
349.4440, 231.7092
349.9261, 225.4929
350.4082, 219.9165
350.8904, 214.9446
351.3725, 208.4692
351.8546, 196.4358
352.3367, 181.5442
352.8188, 169.5225
353.3009, 162.9824
353.7831, 158.6418
354.2652, 153.4285
354.7473, 147.3972
355.2294, 140.8845
355.7115, 133.9592
356.1936, 126.7700
356.6758, 119.3611
357.1579, 111.4080
357.6400, 104.1453
358.1221, 98.11548
358.6042, 93.58154
359.0863, 90.69360
359.5685, 91.45776
360.0506, 92.50562
360.5327, 91.21436
361.0148, 87.06128
361.4969, 84.30469
361.9790, 85.30322
362.4612, 88.62085
362.9433, 92.54126
363.4254, 97.40918
363.9075, 101.4341
364.3896, 103.5659
364.8717, 103.9949
365.3539, 104.8953
365.8360, 106.6448
366.3181, 108.9128
366.8002, 111.4092
367.2823, 113.9990
367.7644, 116.8589
368.2466, 119.6929
368.7287, 122.7695
369.2108, 126.6772
369.6929, 132.6057
370.1750, 137.6050
370.6571, 140.4585
371.1393, 140.0850
371.6214, 141.8093
372.1035, 146.9197
372.5856, 153.2944
373.0677, 157.8647
373.5498, 159.6748
374.0320, 161.6819
374.5141, 164.5630
374.9962, 168.3784
375.4783, 173.1443
375.9604, 179.2063
376.4425, 185.5330
376.9247, 191.2593
377.4068, 196.3201
377.8889, 201.6326
378.3710, 207.2893
378.8531, 213.2588
379.3352, 219.6497
379.8174, 226.4629
380.2995, 233.0957
380.7816, 238.8772
381.2637, 243.9714
381.7458, 249.6355
382.2279, 256.0083
382.7101, 262.4678
383.1922, 268.8726
383.6743, 274.9331
384.1564, 279.2788
384.6385, 281.1426
385.1206, 281.0488
385.6028, 279.4746
386.0849, 276.4941
386.5670, 273.4233
387.0491, 271.3599
387.5312, 269.8743
388.0133, 268.2058
388.4955, 266.0454
388.9776, 264.0256
389.4597, 263.0347
389.9418, 262.7651
390.4239, 262.3167
390.9060, 259.4766
391.3882, 257.4219
391.8703, 258.7605
392.3524, 264.0457
392.8345, 270.9250
393.3166, 278.4609
393.7987, 286.8696
394.2809, 296.3801
394.7630, 308.6895
395.2451, 320.5095
395.7272, 330.3679
396.2093, 338.3284
396.6914, 346.7688
397.1736, 357.4468
397.6557, 367.9209
398.1378, 376.7053
398.6199, 383.5908
399.1020, 388.7407
399.5841, 392.9592
400.0663, 395.4241
400.5484, 394.0518
401.0305, 387.0737
401.5126, 378.4709
401.9947, 369.6196
402.4768, 361.0200
402.9590, 349.9109
403.4411, 335.3738
403.9232, 319.3994
404.4053, 304.3621
404.8874, 290.7703
405.3695, 276.1592
405.8517, 259.4321
406.3338, 241.4163
406.8159, 224.6897
407.2980, 209.2385
407.7801, 195.1565
408.2622, 182.9712
408.7444, 172.5247
409.2265, 162.7593
409.7086, 153.7395
410.1907, 144.7710
410.6728, 134.4941
411.1549, 123.0437
411.6371, 111.7559
412.1192, 101.0776
412.6013, 91.06982
413.0834, 82.16870
413.5655, 74.39551
414.0476, 66.95654
414.5298, 59.19263
415.0119, 51.26270
415.4940, 43.05444
415.9761, 34.04028
416.4582, 25.73901
416.9403, 20.32886
417.4225, 16.94531
417.9046, 13.10718
418.3867, 7.530273
418.8688, 1.269775
419.3509, 5.193115
419.8330, 12.18335
420.3152, 17.59717
420.7973, 19.67700
421.2794, 20.13184
421.7615, 20.97119
422.2436, 22.93579
422.7257, 25.01392
423.2079, 27.10303
423.6900, 29.16553
424.1721, 31.04150
424.6542, 33.08838
425.1363, 34.74512
425.6184, 35.94238
426.1006, 37.64600
426.5827, 36.96338
427.0648, 32.82715
427.5469, 26.88574
428.0290, 22.10815
428.5111, 19.01636
428.9933, 16.04883
429.4754, 13.38599
429.9575, 10.92529
430.4396, 4.578125
430.9217, 6.644287
431.4038, 18.85962
431.8860, 28.37866
432.3681, 35.18286
432.8502, 42.07300
433.3323, 49.09424
433.8144, 57.03076
434.2965, 68.12915
434.7787, 82.14062
435.2608, 95.94751
435.7429, 107.9165
436.2250, 118.4253
436.7071, 128.3777
437.1892, 137.8298
437.6714, 146.4072
438.1535, 154.2783
438.6356, 160.9343
439.1177, 165.4885
439.5998, 168.1511
440.0819, 168.0825
440.5641, 164.0828
441.0462, 156.6494
441.5283, 147.4856
442.0104, 135.7136
442.4925, 123.7971
442.9746, 113.8738
443.4568, 106.7339
443.9389, 99.18481
444.4210, 89.37476
444.9031, 78.83081
445.3852, 69.32178
445.8673, 60.81470
446.3495, 53.79028
446.8316, 48.70752
447.3137, 45.39990
447.7958, 41.84106
448.2779, 36.87061
448.7600, 32.87158
449.2422, 31.11426
449.7243, 32.29248
450.2064, 34.25952
450.6885, 37.47607
451.1706, 41.15356
451.6527, 43.46973
452.1349, 43.65479
452.6170, 46.12476
453.0991, 52.86890
453.5812, 63.19434
454.0633, 72.57715
454.5454, 81.10205
455.0276, 88.98193
455.5097, 95.87256
455.9918, 102.0938
456.4739, 109.2939
456.9560, 118.1257
457.4381, 126.7393
457.9203, 132.0496
458.4024, 134.8967
458.8845, 138.1108
459.3666, 143.1663
459.8488, 149.1450
460.3309, 154.8606
460.8130, 160.3098
461.2951, 166.4421
461.7772, 174.2783
462.2593, 182.8240
462.7415, 191.0515
463.2236, 198.5701
463.7057, 206.0557
464.1878, 213.9214
464.6699, 221.9182
465.1520, 229.6548
465.6342, 236.4758
466.1163, 243.4873
466.5984, 251.7922
467.0805, 261.8423
467.5626, 269.1287
468.0447, 273.2261
468.5269, 274.8318
469.0090, 274.3257
469.4911, 271.3784
469.9732, 266.7871
470.4553, 260.0706
470.9374, 252.0105
471.4196, 244.5725
471.9017, 238.4568
472.3838, 230.4661
472.8659, 218.4841
473.3480, 202.9915
473.8301, 189.8337
474.3123, 179.0818
474.7944, 169.6079
475.2765, 160.6497
475.7586, 152.1577
476.2407, 143.7004
476.7228, 134.7922
477.2050, 126.3496
477.6871, 120.0764
478.1692, 115.6619
478.6513, 112.1780
479.1334, 108.8025
479.6155, 106.3162
480.0977, 105.8594
480.5798, 107.4077
481.0619, 108.9463
481.5440, 108.4844
482.0261, 107.8955
482.5082, 108.9270
482.9904, 113.0911
483.4725, 117.3528
483.9546, 120.3110
484.4367, 122.9553
484.9188, 127.2009
485.4009, 135.0662
485.8831, 143.0066
486.3652, 149.6841
486.8473, 154.8425
487.3294, 162.0261
487.8115, 172.9109
488.2936, 184.0784
488.7758, 192.8428
489.2579, 197.7480
489.7400, 203.8708
490.2221, 211.4290
490.7042, 220.4160
491.1863, 231.6667
491.6685, 245.4551
492.1506, 257.4932
492.6327, 266.9797
493.1148, 273.1621
493.5969, 271.7500
494.0790, 262.7327
494.5612, 252.4565
495.0433, 245.3870
495.5254, 240.7502
496.0075, 237.2400
496.4896, 235.1536
496.9717, 232.5803
497.4539, 227.7673
497.9360, 221.3240
498.4181, 214.5742
498.9002, 207.0168
499.3823, 200.0764
499.8644, 194.8984
500.3466, 191.2708
500.8287, 187.4287
501.3108, 182.4836
501.7929, 177.4648
502.2750, 173.0796
502.7571, 170.0647
503.2393, 166.2256
503.7214, 160.3579
504.2035, 154.2500
504.6856, 150.4207
505.1677, 150.7056
505.6498, 149.6531
506.1320, 145.6328
506.6141, 139.3416
507.0962, 135.0698
507.5783, 133.2109
508.0604, 132.3279
508.5425, 131.4702
509.0247, 130.5283
509.5068, 129.9065
509.9889, 129.6257
510.4710, 129.7568
510.9531, 130.3538
511.4352, 131.2844
511.9174, 132.4563
512.3995, 134.1880
512.8816, 135.9883
513.3637, 137.2021
513.8458, 137.8848
514.3279, 138.3997
514.8101, 138.7180
515.2922, 139.3352
515.7743, 140.3169
516.2564, 141.5613
516.7385, 143.9722
517.2206, 149.5574
517.7028, 155.6293
518.1849, 159.9266
518.6670, 159.3845
519.1491, 160.2858
519.6312, 163.3773
520.1133, 168.1086
520.5955, 173.4138
521.0776, 179.7476
521.5597, 185.5543
522.0418, 190.1694
522.5239, 193.6497
523.0060, 197.4611
523.4882, 201.5552
523.9703, 206.0675
524.4524, 211.4890
524.9345, 217.6416
525.4166, 222.7710
525.8987, 226.5885
526.3809, 229.7891
526.8630, 233.5620
527.3451, 237.5481
527.8272, 240.5634
528.3093, 241.4331
528.7914, 241.7810
529.2736, 243.4001
529.7557, 246.0647
530.2378, 248.6588
530.7199, 250.8480
531.2020, 252.6691
531.6841, 254.2137
532.1663, 255.5851
532.6484, 256.3669
533.1305, 256.3350
533.6126, 255.7295
534.0947, 254.7366
534.5768, 253.3369
535.0590, 251.5701
535.5411, 249.3649
536.0232, 246.7627
536.5053, 244.0538
536.9874, 241.3970
537.4695, 238.2202
537.9517, 234.3099
538.4338, 229.6238
538.9159, 224.3762
539.3980, 218.4351
539.8801, 212.7784
540.3622, 208.5583
540.8444, 205.5018
541.3265, 202.5746
541.8086, 199.8838
542.2907, 196.2460
542.7728, 189.5178
543.2549, 180.8165
543.7371, 172.7230
544.2192, 166.8143
544.7013, 161.4991
545.1834, 155.1846
545.6655, 148.2921
546.1476, 142.7820
546.6298, 139.8041
547.1119, 138.1237
547.5940, 137.7507
548.0761, 139.6591
548.5582, 138.8009
549.0403, 133.5811
549.5225, 126.2516
550.0046, 118.4213
550.4867, 109.1467
550.9688, 101.4474
551.4509, 96.02173
551.9330, 91.88733
552.4152, 86.92285
552.8973, 80.90930
553.3794, 75.36279
553.8615, 70.93225
554.3436, 67.36475
554.8257, 64.16614
555.3079, 61.35339
555.7900, 57.76184
556.2721, 51.69226
556.7542, 44.60132
557.2363, 39.02856
557.7184, 35.43970
558.2006, 32.39734
558.6827, 29.28064
559.1648, 25.96631
559.6469, 22.19800
560.1290, 17.16565
560.6111, 12.54175
561.0933, 9.087036
561.5754, 6.483643
562.0575, 3.930298
562.5396, 1.108032
563.0217, 1.457642
563.5038, 3.459351
563.9860, 4.871948
564.4681, 7.209473
564.9502, 11.14929
565.4323, 14.75012
565.9144, 16.33472
566.3965, 15.77124
566.8787, 15.66858
567.3608, 16.34949
567.8429, 16.97974
568.3250, 15.89844
568.8071, 13.57556
569.2892, 12.10071
569.7714, 12.60876
570.2535, 13.64075
570.7356, 13.17383
571.2177, 11.64014
571.6998, 10.40894
572.1819, 10.82092
572.6641, 11.34314
573.1462, 10.79065
573.6283, 9.093506
574.1104, 7.544556
574.5925, 7.312134
575.0746, 6.834229
575.5568, 4.924072
576.0389, 0.4379880
576.5210, 3.573853
577.0031, 2.773071
577.4852, 1.024902
577.9673, 2.551636
578.4495, 8.377075
578.9316, 13.97546
579.4137, 18.41052
579.8958, 22.09192
580.3779, 26.21533
580.8600, 30.77478
581.3422, 35.40295
581.8243, 39.31213
582.3064, 43.28345
582.7885, 49.34106
583.2706, 57.43872
583.7527, 65.48743
584.2349, 72.15820
584.7170, 77.90259
585.1991, 83.11890
585.6812, 87.81665
586.1633, 92.21790
586.6454, 95.61584
587.1276, 99.05005
587.6097, 103.7681
588.0918, 112.5660
588.5739, 119.5793
589.0560, 123.9620
589.5381, 126.1392
590.0203, 127.1643
590.5024, 126.6901
590.9845, 125.9703
591.4666, 125.5127
591.9487, 125.2679
592.4308, 124.5806
592.9130, 123.3917
593.3951, 122.3478
593.8772, 122.4583
594.3593, 123.1268
594.8414, 122.4358
595.3235, 120.0804
595.8057, 117.2947
596.2878, 115.1090
596.7699, 113.2126
597.2520, 111.1018
597.7341, 107.6101
598.2162, 105.2686
598.6984, 106.7605
599.1805, 110.1732
599.6626, 111.4508
600.1447, 107.6691
600.6268, 103.8318
601.1089, 101.0422
601.5911, 99.28711
602.0732, 98.36145
602.5553, 97.61340
603.0374, 99.00574
603.5195, 104.9144
604.0016, 115.6635
604.4838, 121.4651
604.9659, 121.6937
605.4480, 119.8129
605.9301, 118.2275
606.4122, 117.3103
606.8943, 118.6597
607.3765, 123.0994
607.8586, 128.1063
608.3407, 130.7589
608.8228, 132.1549
609.3049, 134.2781
609.7870, 138.3768
610.2692, 142.9399
610.7513, 147.2986
611.2334, 151.5355
611.7155, 155.9709
612.1976, 161.5780
612.6797, 166.4502
613.1619, 169.4210
613.6440, 170.3071
614.1261, 173.4438
614.6082, 179.7950
615.0903, 186.6515
615.5724, 192.2681
616.0546, 196.6100
616.5367, 200.7638
617.0188, 204.8351
617.5009, 208.3688
617.9830, 210.4093
618.4651, 211.4655
618.9473, 212.9637
619.4294, 215.2396
619.9115, 218.1776
620.3936, 222.6099
620.8757, 227.5454
621.3578, 231.0634
621.8400, 229.8550
622.3221, 229.5587
622.8042, 233.3031
623.2863, 240.4373
623.7684, 246.3513
624.2505, 251.1495
624.7327, 254.2412
625.2148, 254.6213
625.6969, 251.8438
626.1790, 251.9719
626.6611, 255.9646
627.1432, 260.5315
627.6254, 263.0084
628.1075, 263.4840
628.5896, 263.3905
629.0717, 262.8584
629.5538, 262.1656
630.0359, 261.3677
630.5181, 260.6086
631.0002, 260.2405
631.4823, 260.5760
631.9644, 261.2256
632.4465, 262.1244
632.9286, 263.0801
633.4108, 263.7371
633.8929, 263.8779
634.3750, 263.9014
634.8571, 263.6669
635.3392, 263.2347
635.8214, 263.4321
636.3035, 264.6399
636.7856, 265.7866
637.2677, 266.5094
637.7498, 266.8256
638.2319, 266.6732
638.7141, 265.9222
639.1962, 264.7080
639.6783, 263.2961
640.1604, 261.5370
640.6425, 258.7218
641.1246, 254.5936
641.6068, 250.4143
642.0889, 247.5439
642.5710, 245.5737
643.0531, 243.7936
643.5352, 241.9539
644.0173, 240.1517
644.4995, 238.2391
644.9816, 236.3453
645.4637, 234.6715
645.9458, 233.2700
646.4279, 232.2972
646.9100, 231.8917
647.3922, 231.7292
647.8743, 230.8887
648.3564, 229.3423
648.8385, 227.2898
649.3206, 224.5520
649.8027, 221.1758
650.2849, 218.0033
650.7670, 215.0134
651.2491, 212.2089
651.7312, 209.6444
652.2133, 207.4464
652.6954, 206.0848
653.1776, 205.7377
653.6597, 204.3754
654.1418, 199.0947
654.6239, 193.1903
655.1060, 189.8256
655.5881, 191.7230
656.0703, 192.3013
656.5524, 189.5044
657.0345, 185.4678
657.5166, 182.5659
657.9987, 180.9393
658.4808, 180.0249
658.9630, 180.2076
659.4451, 180.4775
659.9272, 177.9557
660.4093, 172.7770
660.8914, 168.7227
661.3735, 167.8937
661.8557, 168.6370
662.3378, 168.8048
662.8199, 168.3267
663.3020, 166.7574
663.7841, 162.0354
664.2662, 157.6119
664.7484, 156.4700
665.2305, 158.7997
665.7126, 160.4728
666.1947, 159.6128
666.6768, 158.5393
667.1589, 158.6927
667.6411, 160.7529
668.1232, 160.7806
668.6053, 157.7004
669.0874, 154.2019
669.5695, 152.9213
670.0516, 153.7206
670.5338, 154.4690
671.0159, 155.0643
671.4980, 154.8068
671.9801, 152.2892
672.4622, 148.2917
672.9443, 144.7188
673.4265, 142.4126
673.9086, 140.2841
674.3907, 137.7241
674.8728, 134.8588
675.3549, 131.9333
675.8370, 129.8402
676.3192, 126.8953
676.8013, 122.2328
677.2834, 116.4631
677.7655, 111.7350
678.2476, 108.3542
678.7297, 105.4849
679.2119, 102.8417
679.6940, 100.4500
680.1761, 98.84143
680.6582, 98.02344
681.1403, 96.87756
681.6224, 94.10449
682.1046, 90.57410
682.5867, 88.09656
683.0688, 86.68591
683.5509, 84.90247
684.0330, 81.35583
684.5151, 77.23633
684.9973, 73.57727
685.4794, 70.80188
685.9615, 67.58423
686.4436, 63.52698
686.9257, 59.05591
687.4078, 54.45557
687.8900, 49.54102
688.3721, 44.96045
688.8542, 40.82812
689.3363, 37.12524
689.8184, 34.22644
690.3005, 32.02991
690.7827, 29.27344
691.2648, 25.38953
691.7469, 21.29980
692.2290, 18.37500
692.7111, 16.16016
693.1932, 13.78064
693.6754, 10.64111
694.1575, 7.403320
694.6396, 4.106934
695.1217, 0.9212650
695.6038, 1.624268
696.0859, 2.932495
696.5681, 4.112183
697.0502, 5.497070
697.5323, 7.019531
698.0144, 7.817505
698.4965, 7.554077
698.9786, 7.955322
699.4608, 10.65405
699.9429, 14.87573
700.4250, 17.50195
700.9071, 18.55225
701.3892, 18.68396
701.8713, 17.50012
702.3535, 16.13367
702.8356, 16.09106
703.3177, 17.78723
703.7998, 18.98376
704.2819, 18.23108
704.7640, 17.05261
705.2462, 16.75500
705.7283, 18.44348
706.2104, 18.80579
706.6925, 17.56140
707.1746, 15.42603
707.6567, 12.86658
708.1389, 9.865723
708.6210, 7.956177
709.1031, 7.586548
709.5852, 7.675903
710.0673, 6.781738
710.5494, 5.173950
711.0316, 3.435181
711.5137, 1.314087
711.9958, 0.2104490
712.4779, 0.2307130
712.9600, 1.568848
713.4421, 1.804321
713.9243, 0.7780760
714.4064, 3.171143
714.8885, 4.814087
715.3706, 5.843872
715.8527, 6.401855
716.3348, 6.085815
716.8170, 6.751953
717.2991, 9.333496
717.7812, 13.20410
718.2633, 16.34229
718.7454, 18.81360
719.2275, 21.13159
719.7097, 23.45703
720.1918, 25.88013
720.6739, 28.61194
721.1560, 31.58728
721.6381, 34.48145
722.1202, 37.26746
722.6024, 39.80627
723.0845, 41.79919
723.5666, 43.08899
724.0487, 45.39001
724.5308, 49.28503
725.0129, 53.37634
725.4951, 56.79077
725.9772, 59.53650
726.4593, 62.54272
726.9414, 65.87915
727.4235, 69.04919
727.9056, 71.35266
728.3878, 73.22266
728.8699, 75.43921
729.3520, 78.13049
729.8341, 81.14136
730.3162, 84.42310
730.7983, 87.93848
731.2805, 91.70093
731.7626, 95.93518
732.2447, 100.0034
732.7268, 104.1654
733.2089, 107.8776
733.6910, 110.2488
734.1732, 110.8052
734.6553, 112.4988
735.1374, 115.9403
735.6195, 119.9532
736.1016, 122.4974
736.5837, 124.0450
737.0659, 126.4269
737.5480, 130.8339
738.0301, 134.9867
738.5122, 136.2216
738.9943, 135.9401
739.4764, 136.5480
739.9586, 140.1172
740.4407, 143.1649
740.9228, 144.6912
741.4049, 145.1880
741.8870, 145.5634
742.3691, 145.6952
742.8513, 146.2495
743.3334, 147.5115
743.8155, 149.2751
744.2976, 151.0431
744.7797, 152.8269
745.2618, 154.5614
745.7440, 155.9463
746.2261, 157.4779
746.7082, 159.9954
747.1903, 163.1783
747.6724, 165.9192
748.1545, 166.8208
748.6367, 168.0430
749.1188, 170.9850
749.6009, 175.4489
750.0830, 178.3876
750.5651, 178.9609
751.0472, 179.7911
751.5294, 182.1423
752.0115, 185.7716
752.4936, 188.8798
752.9757, 191.4126
753.4578, 193.7715
753.9399, 196.0613
754.4221, 198.5165
754.9042, 201.5215
755.3863, 205.0679
755.8684, 208.5182
756.3505, 211.3828
756.8326, 214.2650
757.3148, 217.5724
757.7969, 221.4481
758.2790, 224.3311
758.7611, 225.8903
759.2432, 227.2628
759.7253, 229.1073
760.2075, 231.4393
760.6896, 234.5204
761.1717, 238.4032
761.6538, 241.7960
762.1359, 243.3087
762.6180, 243.9166
763.1002, 245.0245
763.5823, 246.7499
764.0644, 248.6548
764.5465, 250.6239
765.0286, 252.8296
765.5107, 255.4324
765.9929, 258.7700
766.4750, 261.7764
766.9571, 264.3033
767.4392, 266.5308
767.9213, 268.0664
768.4034, 268.8854
768.8856, 273.1450
769.3677, 281.6652
769.8498, 290.5125
770.3319, 295.1748
770.8140, 297.2810
771.2961, 299.9250
771.7783, 304.0688
772.2604, 307.8676
772.7425, 309.8767
773.2246, 311.3157
773.7067, 313.4658
774.1888, 316.7198
774.6710, 320.3904
775.1531, 324.8499
775.6352, 329.3105
776.1173, 332.5952
776.5994, 334.7125
777.0815, 337.3195
777.5637, 340.6578
778.0458, 344.6481
778.5279, 350.0068
779.0100, 355.7816
779.4921, 360.0658
779.9742, 361.2767
780.4564, 362.9547
780.9385, 367.1340
781.4206, 372.5020
781.9027, 377.2849
782.3848, 380.8695
782.8669, 384.7280
783.3491, 389.2112
783.8312, 393.6763
784.3133, 396.8555
784.7954, 398.8119
785.2775, 401.1216
785.7596, 404.2589
786.2418, 407.5173
786.7239, 409.9287
787.2060, 411.8651
787.6881, 414.0497
788.1702, 417.3098
788.6523, 420.0953
789.1345, 421.7362
789.6166, 422.6290
790.0987, 423.3755
790.5808, 423.5363
791.0629, 424.8488
791.5450, 428.1953
792.0272, 432.0236
792.5093, 432.5962
792.9914, 430.4675
793.4735, 430.3956
793.9556, 434.9049
794.4377, 439.5829
794.9199, 439.2336
795.4020, 435.5828
795.8841, 431.8568
796.3662, 429.0500
796.8483, 426.2832
797.3304, 422.8519
797.8126, 419.4109
798.2947, 417.5010
798.7768, 418.0496
799.2589, 417.1213
799.7410, 413.9371
800.2231, 409.0552
800.7053, 403.0392
801.1874, 396.1971
801.6695, 389.5259
802.1516, 383.5354
802.6337, 377.8397
803.1158, 372.2992
803.5980, 366.9092
804.0801, 361.3732
804.5622, 355.2327
805.0443, 349.5809
805.5264, 344.2937
806.0085, 339.7118
806.4907, 337.3325
806.9728, 338.0479
807.4549, 334.5425
807.9370, 323.8964
808.4191, 310.7705
808.9012, 302.1924
809.3834, 297.3433
809.8655, 294.2524
810.3476, 293.7885
810.8297, 292.5011
811.3118, 287.8047
811.7939, 281.0927
812.2761, 274.7739
812.7582, 269.8816
813.2403, 264.2948
813.7224, 257.4226
814.2045, 250.1420
814.6866, 243.9010
815.1688, 238.8430
815.6509, 234.7240
816.1330, 231.8375
816.6151, 229.0956
817.0972, 224.8740
817.5793, 219.9032
818.0615, 215.4418
818.5436, 211.9510
819.0257, 208.8425
819.5078, 205.8263
819.9899, 203.1718
820.4720, 201.5172
820.9542, 202.0431
821.4363, 200.2441
821.9184, 194.7189
822.4005, 188.0552
822.8826, 184.6993
823.3647, 183.9406
823.8469, 182.7554
824.3290, 180.2537
824.8111, 177.1531
825.2932, 172.7585
825.7753, 168.5048
826.2574, 166.5647
826.7396, 169.7472
827.2217, 172.2075
827.7038, 173.3672
828.1859, 173.5771
828.6681, 173.1036
829.1502, 171.8909
829.6323, 170.5621
830.1144, 169.1216
830.5966, 168.3024
831.0787, 168.8536
831.5608, 170.1123
832.0429, 170.9706
832.5250, 171.1439
833.0071, 171.3480
833.4893, 171.5636
833.9714, 172.1960
834.4535, 173.5916
834.9356, 175.5403
835.4177, 178.4126
835.8998, 183.2617
836.3820, 187.6824
836.8641, 188.3917
837.3462, 185.8076
837.8283, 183.3076
838.3104, 181.3113
838.7925, 180.2294
839.2747, 180.9771
839.7568, 182.5737
840.2389, 183.9028
840.7210, 184.6489
841.2031, 185.2897
841.6852, 186.0516
842.1674, 186.6766
842.6495, 186.7765
843.1316, 185.9777
843.6137, 185.8276
844.0958, 186.5023
844.5779, 187.1282
845.0601, 186.8842
845.5422, 185.9325
846.0243, 184.5822
846.5064, 182.9060
846.9885, 181.0710
847.4706, 179.4386
847.9528, 177.4019
848.4349, 174.3879
848.9170, 170.1813
849.3991, 166.3074
849.8812, 162.7939
850.3633, 159.6619
850.8455, 157.2755
851.3276, 155.3097
851.8097, 152.2019
852.2918, 147.9197
852.7739, 142.8584
853.2560, 136.3147
853.7382, 129.7065
854.2203, 124.1505
854.7024, 119.5813
855.1845, 115.0149
855.6666, 110.7678
856.1487, 105.9347
856.6309, 99.73792
857.1130, 92.77429
857.5951, 87.91064
858.0772, 85.19580
858.5593, 82.00525
859.0414, 76.01343
859.5236, 69.53845
860.0057, 66.88806
860.4878, 66.79309
860.9699, 65.20312
861.4520, 58.50867
861.9341, 52.07990
862.4163, 48.05212
862.8984, 45.60986
863.3805, 42.86084
863.8626, 39.63373
864.3447, 36.42346
864.8268, 33.33600
865.3090, 30.25677
865.7911, 26.83527
866.2732, 23.29022
866.7553, 20.48773
867.2374, 19.10828
867.7195, 17.84161
868.2017, 15.74304
868.6838, 13.36578
869.1659, 11.78070
869.6480, 11.89941
870.1301, 11.06830
870.6122, 8.771973
871.0944, 5.970154
871.5765, 3.938232
872.0586, 2.616699
872.5407, 1.694275
873.0228, 1.207764
873.5049, 0.7090450
873.9871, 0.1194460
874.4692, 0.8770750
874.9513, 2.844360
875.4334, 6.870361
875.9155, 9.380859
876.3976, 9.520813
876.8798, 8.897888
877.3619, 8.673035
877.8440, 8.845093
878.3261, 9.174927
878.8082, 9.687317
879.2903, 10.16589
879.7725, 10.22308
880.2546, 10.28522
880.7367, 11.14679
881.2188, 12.89288
881.7009, 13.96515
882.1830, 13.69110
882.6652, 12.72198
883.1473, 11.08887
883.6294, 8.844727
884.1115, 7.785278
884.5936, 8.100525
885.0757, 8.338989
885.5579, 7.543396
886.0400, 6.212463
886.5221, 4.862183
887.0042, 3.696655
887.4863, 3.557617
887.9684, 6.616821
888.4506, 8.967041
888.9327, 8.288696
889.4148, 5.553894
889.8969, 3.941406
890.3790, 3.641968
890.8611, 3.944092
891.3433, 5.026184
891.8254, 6.035034
892.3075, 4.710083
892.7896, 1.963257
893.2717, 0.6111450
893.7538, 2.796875
894.2360, 4.780518
894.7181, 4.103516
895.2002, 2.062195
895.6823, 0.4899290
896.1644, 0.4902340
896.6465, 1.034363
897.1287, 1.010620
897.6108, 0.8684690
898.0929, 1.333679
898.5750, 2.197937
899.0571, 2.380676
899.5392, 1.524902
900.0214, 1.478333
900.5035, 4.946289
900.9856, 8.943176
901.4677, 10.60266
901.9498, 8.535339
902.4319, 7.860962
902.9141, 9.477051
903.3962, 10.90338
903.8783, 10.15552
904.3604, 7.630249
904.8425, 6.178223
905.3246, 5.774963
905.8068, 6.524048
906.2889, 9.635925
906.7710, 12.96167
907.2531, 14.78845
907.7352, 15.18750
908.2173, 15.37671
908.6995, 15.66187
909.1816, 15.56513
909.6637, 14.85492
910.1458, 13.77557
910.6279, 12.83795
911.1100, 12.11963
911.5922, 12.37958
912.0743, 14.44531
912.5564, 16.77625
913.0385, 17.93225
913.5206, 18.31628
914.0027, 18.62183
914.4849, 18.37091
914.9670, 19.06512
915.4491, 21.42743
915.9312, 24.05658
916.4133, 25.07538
916.8954, 24.54675
917.3776, 23.60870
917.8597, 22.24518
918.3418, 21.62805
918.8239, 23.90167
919.3060, 26.92834
919.7881, 28.12891
920.2703, 26.59912
920.7524, 25.80743
921.2345, 26.72327
921.7166, 27.87610
922.1987, 28.58325
922.6808, 28.85168
923.1630, 28.35406
923.6451, 27.10876
924.1272, 26.56366
924.6093, 28.52307
925.0914, 31.02917
925.5735, 32.15948
926.0557, 32.07080
926.5378, 31.73834
927.0199, 30.61243
927.5020, 30.33417
927.9841, 31.59564
928.4662, 33.70795
928.9484, 34.87494
929.4305, 35.12958
929.9126, 35.27631
930.3947, 35.55682
930.8768, 35.81299
931.3589, 35.83453
931.8411, 35.73389
932.3232, 35.66364
932.8053, 35.21729
933.2874, 35.43121
933.7695, 37.03912
934.2516, 38.71436
934.7338, 38.91681
935.2159, 37.69147
935.6980, 36.94257
936.1801, 36.80212
936.6622, 36.67401
937.1443, 36.17108
937.6265, 35.39423
938.1086, 33.76733
938.5907, 31.15637
939.0728, 31.09705
939.5549, 36.93054
940.0370, 41.38519
940.5192, 41.36072
941.0013, 37.87097
941.4834, 35.20062
941.9655, 33.22406
942.4476, 31.56476
942.9297, 30.16083
943.4119, 29.01300
943.8940, 28.59515
944.3761, 28.37292
944.8582, 27.20233
945.3403, 23.56714
945.8224, 20.50287
946.3046, 18.15607
946.7867, 16.98773
947.2688, 18.27393
947.7509, 21.40967
948.2330, 22.72870
948.7151, 21.36401
949.1973, 20.16840
949.6794, 22.71454
950.1615, 25.86719
950.6436, 26.48029
951.1257, 23.27826
951.6078, 20.85797
952.0900, 19.58398
952.5721, 18.68353
953.0542, 17.67841
953.5363, 16.68402
954.0184, 16.54071
954.5005, 17.04785
954.9827, 17.04474
955.4648, 15.02710
955.9469, 13.19702
956.4290, 13.35773
956.9111, 14.74091
957.3932, 14.88464
957.8754, 13.04205
958.3575, 12.08191
958.8396, 12.60822
959.3217, 13.69232
959.8038, 13.90143
960.2859, 13.52948
960.7681, 13.39252
961.2502, 13.71356
961.7323, 13.94318
962.2144, 13.73944
962.6965, 13.29156
963.1786, 12.77338
963.6608, 12.24628
964.1429, 11.65814
964.6250, 10.89581
965.1071, 10.48297
965.5892, 11.04169
966.0714, 12.11188
966.5535, 13.05115
967.0356, 13.75244
967.5177, 13.80939
967.9998, 12.63763
968.4819, 11.19592
968.9641, 9.497559
969.4462, 7.892517
969.9283, 7.307922
970.4104, 7.821655
970.8925, 8.468933
971.3746, 9.138611
971.8568, 9.530212
972.3389, 9.017639
972.8210, 8.081848
973.3031, 7.398926
973.7852, 7.011780
974.2673, 7.214233
974.7495, 8.842896
975.2316, 10.19165
975.7137, 9.766296
976.1958, 7.565979
976.6779, 7.128174
977.1600, 8.431213
977.6422, 9.714539
978.1243, 9.690857
978.6064, 9.160522
979.0885, 8.770447
979.5706, 8.513855
980.0527, 8.230408
980.5349, 8.067017
981.0170, 7.542114
981.4991, 6.347229
981.9812, 5.019714
982.4633, 4.766174
982.9454, 5.356628
983.4276, 5.817566
983.9097, 5.903503
984.3918, 5.835388
984.8739, 5.832275
985.3560, 5.708984
985.8381, 5.095520
986.3203, 3.561157
986.8024, 3.631348
987.2845, 5.853149
987.7666, 7.799316
988.2487, 7.338867
988.7308, 5.504395
989.2130, 4.587097
989.6951, 4.478333
990.1772, 4.426697
990.6593, 3.774109
991.1414, 3.464661
991.6235, 4.344727
992.1057, 5.647766
992.5878, 5.480835
993.0699, 3.609314
993.5520, 2.890808
994.0341, 4.153259
994.5162, 5.715210
994.9984, 5.371643
995.4805, 4.202332
995.9626, 3.718506
996.4447, 4.390381
996.9268, 4.902283
997.4089, 4.881042
997.8911, 4.950012
998.3732, 5.580566
998.8553, 6.643372
999.3374, 7.051514
999.8195, 6.871216
1000.302, 6.707886
1000.784, 7.272156
1001.266, 7.644104
1001.748, 6.766785
1002.230, 5.245728
1002.712, 4.750244
1003.194, 5.900574
1003.676, 6.632568
1004.159, 6.611572
1004.641, 6.303040
1005.123, 5.445618
1005.605, 4.947876
1006.087, 8.067993
1006.569, 15.97156
1007.051, 20.75232
1007.533, 15.81079
1008.016, 9.312744
1008.498, 5.765442
1008.980, 5.048096
1009.462, 5.042542
1009.944, 5.804749
1010.426, 6.404114
1010.908, 6.214600
1011.390, 5.838440
1011.872, 6.182495
1012.355, 6.860596
1012.837, 7.080688
1013.319, 6.432434
1013.801, 5.506226
1014.283, 4.099792
1014.765, 2.839417
1015.247, 2.504578
1015.729, 2.928345
1016.211, 3.250488
1016.694, 3.409424
1017.176, 3.590698
1017.658, 4.086121
1018.140, 4.497803
1018.622, 4.278320
1019.104, 3.590271
1019.586, 4.055664
1020.068, 6.123779
1020.551, 7.362183
1021.033, 6.731689
1021.515, 5.368164
1021.997, 5.272461
1022.479, 5.789978
1022.961, 5.535156
1023.443, 3.185120
1023.925, 2.109680
1024.407, 4.126038
1024.890, 6.699280
1025.372, 8.151001
1025.854, 8.468384
1026.336, 7.964966
1026.818, 6.660950
1027.300, 5.626404
1027.782, 5.503967
1028.264, 6.011902
1028.746, 7.424500
1029.229, 9.338867
1029.711, 10.21075
1030.193, 9.469788
1030.675, 8.974304
1031.157, 9.036804
1031.639, 9.463562
1032.121, 10.38531
1032.603, 11.37811
1033.086, 11.21277
1033.568, 9.467896
1034.050, 8.155579
1034.532, 8.648743
1035.014, 9.388367
1035.496, 9.445129
1035.978, 8.911255
1036.460, 8.893738
1036.943, 9.390381
1037.425, 10.03448
1037.907, 10.87915
1038.389, 11.51172
1038.871, 11.41846
1039.353, 10.86255
1039.835, 10.29486
1040.317, 9.709229
1040.799, 9.274597
1041.281, 8.922485
1041.764, 8.875549
1042.246, 9.339905
1042.728, 10.27631
1043.210, 12.11023
1043.692, 14.69214
1044.174, 15.90155
1044.656, 13.14166
1045.138, 10.50079
1045.621, 9.936096
1046.103, 10.68164
1046.585, 10.62598
1047.067, 9.760193
1047.549, 8.883545
1048.031, 8.168152
1048.513, 7.694092
1048.995, 6.832092
1049.478, 6.679321
1049.960, 9.070801
1050.442, 15.79248
1050.924, 18.62408
1051.406, 15.99054
1051.888, 13.10828
1052.370, 12.96179
1052.852, 14.61340
1053.334, 16.01331
1053.817, 17.02228
1054.299, 17.32031
1054.781, 16.23969
1055.263, 15.08215
1055.745, 14.17285
1056.227, 13.43262
1056.709, 12.73981
1057.191, 12.10449
1057.673, 11.73193
1058.156, 11.58154
1058.638, 11.77862
1059.120, 12.90326
1059.602, 14.11096
1060.084, 14.85999
1060.566, 15.07343
1061.048, 14.50983
1061.530, 12.75610
1062.013, 11.57434
1062.495, 11.64294
1062.977, 12.06799
1063.459, 10.95312
1063.941, 9.218262
1064.423, 8.785095
1064.905, 10.52240
1065.387, 11.93268
1065.870, 12.20233
1066.352, 11.92004
1066.834, 11.20697
1067.316, 10.14807
1067.798, 9.160400
1068.280, 8.293884
1068.762, 8.217529
1069.244, 10.30627
1069.726, 12.17731
1070.208, 11.76324
1070.691, 10.32471
1071.173, 9.822266
1071.655, 10.31433
1072.137, 11.91345
1072.619, 14.95166
1073.101, 17.46472
1073.583, 17.45959
1074.065, 15.93774
1074.548, 13.63293
1075.030, 10.87250
1075.512, 9.180664
1075.994, 9.748779
1076.476, 10.17651
1076.958, 9.959717
1077.440, 9.347839
1077.922, 8.752563
1078.405, 8.190979
1078.887, 7.542175
1079.369, 6.653992
1079.851, 6.499023
1080.333, 8.617554
1080.815, 10.67133
1081.297, 10.95941
1081.779, 9.725525
1082.261, 9.661865
1082.744, 10.75220
1083.226, 12.00092
1083.708, 13.05914
1084.190, 13.95367
1084.672, 14.23584
1085.154, 14.52466
1085.636, 15.91138
1086.118, 19.60339
1086.601, 21.74512
1087.083, 22.29144
1087.565, 21.65015
1088.047, 19.01178
1088.529, 15.73651
1089.011, 14.80713
1089.493, 15.59912
1089.975, 15.30457
1090.458, 11.94781
1090.940, 8.575317
1091.422, 5.311035
1091.904, 2.885925
1092.386, 3.221558
1092.868, 5.511108
1093.350, 5.854858
1093.832, 3.667297
1094.314, 1.697144
1094.797, 1.939087
1095.279, 2.597778
1095.761, 2.370361
1096.243, 1.637878
1096.725, 2.490356
1097.207, 4.994812
1097.689, 6.461182
1098.171, 5.792664
1098.653, 4.553284
1099.136, 4.067200
1099.618, 4.000916
1100.100, 3.882446
1100.582, 3.496338
1101.064, 4.081360
1101.546, 6.100220
1102.028, 7.374634
1102.510, 6.114868
1102.993, 3.879883
1103.475, 3.620117
1103.957, 4.578674
1104.439, 5.035828
1104.921, 4.130188
1105.403, 3.051208
1105.885, 1.712585
1106.367, 0.5437010
1106.849, 8.8806003E-02
1107.332, 0.1801760
1107.814, 0.2094730
1108.296, 0.1183470
1108.778, 0.2167970
1109.260, 1.019714
1109.742, 1.894043
1110.224, 2.927551
1110.706, 3.756531
1111.188, 3.737671
1111.671, 2.887939
1112.153, 2.072693
1112.635, 1.378113
1113.117, 0.9691770
1113.599, 1.078979
1114.081, 1.424133
1114.563, 2.039490
1115.045, 2.796936
1115.528, 2.736145
1116.010, 1.749023
1116.492, 0.6401370
1116.974, 0.4305420
1117.456, 1.298706
1117.938, 1.522278
1118.420, 1.505127
1118.902, 1.791626
1119.385, 2.532349
1119.867, 3.216614
1120.349, 3.827209
1120.831, 4.332458
1121.313, 4.850708
1121.795, 5.115967
1122.277, 4.271179
1122.759, 2.758301
1123.241, 1.625244
1123.724, 1.546265
1124.206, 1.382751
1124.688, 0.7324830
1125.170, 0.3452150
1125.652, 1.287415
1126.134, 3.115295
1126.616, 3.263306
1127.098, 1.956055
1127.580, 0.6640010
1128.063, 8.0321997E-02
1128.545, 0.2117310
1129.027, 0.2252200
1129.509, 0.1389770
1129.991, 0.2053830
1130.473, 0.4291990
1130.955, 0.4895630
1131.437, 0.3660890
1131.920, 0.2778320
1132.402, 0.5484620
1132.884, 0.7894290
1133.366, 0.7878420
1133.848, 0.5409550
1134.330, 6.8359002E-02
1134.812, 0.6281740
1135.294, 1.690430
1135.776, 3.291748
1136.259, 4.555847
1136.741, 4.287170
1137.223, 3.415161
1137.705, 2.821350
1138.187, 2.633057
1138.669, 2.629822
1139.151, 2.851074
1139.633, 3.150574
1140.115, 3.587463
1140.598, 3.866882
1141.080, 2.987915
1141.562, 1.869873
1142.044, 2.226135
1142.526, 5.317383
1143.008, 6.593079
1143.490, 5.272156
1143.972, 3.215210
1144.455, 0.9998170
1144.937, 0.9284060
1145.419, 1.595947
1145.901, 1.118042
1146.383, 0.2455440
1146.865, 3.702026
1147.347, 5.830322
1147.829, 5.868652
1148.312, 5.025757
1148.794, 3.999756
1149.276, 2.875488
1149.758, 1.967285
1150.240, 1.326172
1150.722, 1.210815
1151.204, 2.455322
1151.686, 3.311218
1152.168, 2.953796
1152.651, 2.213562
1153.133, 2.103943
1153.615, 2.526123
1154.097, 2.388062
1154.579, 1.685486
1155.061, 1.625671
1155.543, 4.061646
1156.025, 6.233582
1156.507, 5.988342
1156.990, 4.643372
1157.472, 4.888672
1157.954, 6.740479
1158.436, 7.410767
1158.918, 6.405396
1159.400, 5.540222
1159.882, 7.043274
1160.364, 8.624573
1160.847, 8.334412
1161.329, 6.485474
1161.811, 4.682251
1162.293, 2.842407
1162.775, 2.428772
1163.257, 4.183411
1163.739, 5.920837
1164.221, 4.971741
1164.703, 3.228577
1165.186, 2.694458
1165.668, 3.617981
1166.150, 4.161011
1166.632, 4.316650
1167.114, 4.021851
1167.596, 2.946716
1168.078, 1.980469
1168.560, 2.616394
1169.042, 4.034363
1169.525, 5.235962
1170.007, 6.207520
1170.489, 5.823792
1170.971, 3.519348
1171.453, 1.816956
1171.935, 2.247864
1172.417, 3.727905
1172.899, 4.219849
1173.382, 4.576660
1173.864, 6.616943
1174.346, 13.60828
1174.828, 15.87598
1175.310, 11.77924
1175.792, 7.066162
1176.274, 5.949890
1176.756, 6.898438
1177.239, 7.109436
1177.721, 6.814392
1178.203, 6.673889
1178.685, 7.600891
1179.167, 7.546936
1179.649, 6.008728
1180.131, 4.348083
1180.613, 3.842651
1181.095, 4.155090
1181.578, 4.877747
1182.060, 5.780090
1182.542, 5.941895
1183.024, 3.611145
1183.506, 2.709045
1183.988, 4.305115
1184.470, 6.479248
1184.952, 6.833374
1185.434, 6.032410
1185.917, 5.737244
1186.399, 6.009155
1186.881, 6.299988
1187.363, 6.022034
1187.845, 6.291931
1188.327, 7.706543
1188.809, 9.198242
1189.291, 8.818359
1189.774, 7.218018
1190.256, 6.268799
1190.738, 6.178711
1191.220, 6.600891
1191.702, 8.143860
1192.184, 9.251953
1192.666, 9.418823
1193.148, 8.938904
1193.630, 8.147522
1194.113, 7.239136
1194.595, 7.000244
1195.077, 7.646790
1195.559, 8.047424
1196.041, 7.530945
1196.523, 6.846375
1197.005, 6.188782
1197.487, 5.634094
1197.969, 5.334839
1198.452, 5.308655
1198.934, 5.776733
1199.416, 6.967529
1199.898, 7.615112
1200.380, 6.231934
1200.862, 5.172058
1201.344, 5.747192
1201.826, 7.364624
1202.309, 7.828247
1202.791, 7.314575
1203.273, 7.029785
1203.755, 7.783447
1204.237, 7.689941
1204.719, 4.631226
1205.201, 1.682373
1205.683, 0.6846310
1206.166, 1.223755
1206.648, 1.473022
1207.130, 1.454102
1207.612, 1.194397
1208.094, 0.4616090
1208.576, 9.2345998E-02
1209.058, 0.7320560
1209.540, 1.368835
1210.022, 1.181458
1210.505, 0.3790280
1210.987, 0.4205930
1211.469, 1.162781
1211.951, 1.889893
1212.433, 2.154663
1212.915, 2.557678
1213.397, 3.637573
1213.879, 4.655579
1214.361, 5.099976
1214.844, 4.990845
1215.326, 4.200317
1215.808, 2.947876
1216.290, 2.301270
1216.772, 3.443848
1217.254, 4.370117
1217.736, 4.121948
1218.218, 3.812317
1218.701, 4.634644
1219.183, 6.400269
1219.665, 6.871460
1220.147, 6.285400
1220.629, 5.907410
1221.111, 7.072937
1221.593, 7.605286
1222.075, 6.701172
1222.557, 5.190063
1223.040, 3.767517
1223.522, 2.502869
1224.004, 1.406006
1224.486, 0.5838010
1224.968, 0.6583250
1225.450, 3.290588
1225.932, 4.954346
1226.414, 4.564148
1226.896, 3.418518
1227.379, 2.853088
1227.861, 2.803101
1228.343, 3.363342
1228.825, 4.329712
1229.307, 4.481873
1229.789, 1.104187
1230.271, 0.2083130
1230.753, 4.504944
1231.236, 9.462524
1231.718, 8.280212
1232.200, 3.285461
1232.682, 1.013733
1233.164, 1.587524
1233.646, 2.089844
1234.128, 0.9176640
1234.610, 0.2009280
1235.093, 0.4979250
1235.575, 1.113892
1236.057, 0.9872440
1236.539, 0.5144040
1237.021, 0.6599120
1237.503, 1.423340
1237.985, 2.060974
1238.467, 2.163208
1238.949, 2.395508
1239.432, 2.939209
1239.914, 3.491211
1240.396, 3.438293
1240.878, 3.155090
1241.360, 3.537415
1241.842, 4.591187
1242.324, 5.051147
1242.806, 4.138245
1243.288, 3.785950
1243.771, 4.554138
1244.253, 5.562378
1244.735, 5.775024
1245.217, 5.450073
1245.699, 4.945923
1246.181, 4.297791
1246.663, 3.305420
1247.145, 1.356873
1247.628, 0.8980100
1248.110, 2.725403
1248.592, 5.201416
1249.074, 7.026428
1249.556, 7.796143
1250.038, 6.546387
1250.520, 3.373779
1251.002, 1.282104
1251.484, 0.5157470
1251.967, 0.1664430
1252.449, 3.6010999E-02
1252.931, 0.4451290
1253.413, 3.012512
1253.895, 5.951477
1254.377, 7.469421
1254.859, 7.391174
1255.341, 6.633423
1255.823, 4.991333
1256.306, 3.827271
1256.788, 3.542236
1257.270, 3.507507
1257.752, 2.761108
1258.234, 2.323242
1258.716, 3.594238
1259.198, 6.098328
1259.680, 7.167419
1260.163, 6.800110
1260.645, 6.410706
1261.127, 6.371399
1261.609, 6.060913
1262.091, 4.471802
1262.573, 2.936035
1263.055, 2.333984
1263.537, 2.613403
1264.020, 3.736694
1264.502, 5.425049
1264.984, 4.894714
1265.466, 0.8605960
1265.948, 0.8854370
1266.430, 6.455627
1266.912, 13.37360
1267.394, 15.33862
1267.876, 13.44757
1268.359, 9.798767
1268.841, 5.100220
1269.323, 2.145630
1269.805, 1.701965
1270.287, 1.756104
1270.769, 1.850769
1271.251, 1.828735
1271.733, 1.557617
1272.215, 1.264709
1272.698, 1.634338
1273.180, 2.341003
1273.662, 2.541931
1274.144, 1.986145
1274.626, 1.882385
1275.108, 3.162781
1275.590, 3.371643
1276.072, 1.159119
1276.555, 1.457886
1277.037, 0.2988280
1277.519, 2.543152
1278.001, 3.437927
1278.483, 1.638367
1278.965, 0.4011840
1279.447, 0.1736450
1279.929, 0.1212160
1280.411, 1.569458
1280.894, 3.260071
1281.376, 4.487244
1281.858, 5.073730
1282.340, 4.586365
1282.822, 3.057190
1283.304, 1.823792
1283.786, 0.6320190
1284.268, 0.8647460
1284.750, 2.877319
1285.233, 4.714661
1285.715, 4.218384
1286.197, 3.072571
1286.679, 2.614868
1287.161, 2.740906
1287.643, 2.591125
1288.125, 2.212646
1288.607, 2.315613
1289.090, 2.502625
1289.572, 3.230042
1290.054, 2.935547
1290.536, 2.467041
1291.018, 2.823914
1291.500, 3.506958
1291.982, 3.805237
1292.464, 3.686462
1292.947, 2.852112
1293.429, 1.059387
1293.911, 0.5217900
1294.393, 4.314392
1294.875, 6.526184
1295.357, 4.882690
1295.839, 1.517761
1296.321, 0.3349610
1296.803, 0.6004640
1297.286, 1.031799
1297.768, 1.432190
1298.250, 2.007263
1298.732, 3.154053
1299.214, 3.283569
1299.696, 1.660645
1300.178, 1.5930001E-02
1300.660, 0.0000000E+00
##END=



