##NAMES=Piemontite
##RRUFFID=R150096
##IDEAL CHEMISTRY=Ca_2_(Al_2_Mn^3+^)(Si_2_O_7_)(SiO_4_)O(OH)
##LOCALITY=Ash Canyon, Huachuca Mountains, Cochise County, Arizona, USA
##OWNER=RRUFF
##SOURCE=Marcus Origlieri
##DESCRIPTION=Red prismatic crystals, associated with yellow tabular or massive axinite-(Mn), on white quartz matrix
##STATUS=The identification of this mineral has been confirmed only by single crystal X-ray diffraction.
##URL=rruff.info/R150096
145.9907, 0.0000000E+00
146.4728, 2.336365
146.9550, 3.327515
147.4371, 1.901245
147.9192, 1.008667
148.4013, 1.430603
148.8834, 1.662292
149.3655, 1.642273
149.8477, 0.9914550
150.3298, 0.3671260
150.8119, 0.2392580
151.2940, 1.254700
151.7761, 2.114990
152.2583, 2.360229
152.7404, 3.089355
153.2225, 4.892578
153.7046, 7.639587
154.1867, 9.812134
154.6688, 10.89050
155.1510, 10.36725
155.6331, 9.367737
156.1152, 7.789795
156.5973, 5.798157
157.0794, 4.049988
157.5615, 2.855286
158.0437, 1.924988
158.5258, 1.070313
159.0079, 3.6619999E-03
159.4900, 0.6978760
159.9721, 0.9422610
160.4542, 0.7308960
160.9364, 6.0729999E-02
161.4185, 1.448792
161.9006, 3.236511
162.3827, 4.849915
162.8648, 6.619019
163.3469, 7.778259
163.8291, 7.721802
164.3112, 6.552368
164.7933, 5.332764
165.2754, 4.424561
165.7575, 3.786804
166.2396, 3.376709
166.7218, 2.911926
167.2039, 2.867615
167.6860, 3.712219
168.1681, 5.422485
168.6502, 7.296753
169.1323, 8.856323
169.6145, 10.30231
170.0966, 11.89929
170.5787, 14.78833
171.0608, 17.28168
171.5429, 17.47870
172.0250, 15.34814
172.5072, 13.21741
172.9893, 12.72150
173.4714, 13.33264
173.9535, 13.94684
174.4356, 14.08447
174.9177, 13.90302
175.3999, 13.57050
175.8820, 13.08337
176.3641, 12.46478
176.8462, 11.32465
177.3283, 9.994263
177.8104, 9.335388
178.2926, 10.55170
178.7747, 12.48431
179.2568, 13.05164
179.7389, 12.00189
180.2210, 10.53815
180.7031, 9.984619
181.1853, 10.16284
181.6674, 10.46722
182.1495, 10.46643
182.6316, 10.38043
183.1137, 10.81677
183.5958, 11.90137
184.0780, 13.16937
184.5601, 13.82672
185.0422, 14.00842
185.5243, 14.64935
186.0064, 17.08496
186.4885, 20.54456
186.9707, 21.91046
187.4528, 20.66779
187.9349, 18.31403
188.4170, 17.09821
188.8991, 16.96002
189.3812, 16.85828
189.8634, 16.38617
190.3455, 15.51666
190.8276, 13.99268
191.3097, 11.62280
191.7918, 8.909546
192.2739, 6.609619
192.7561, 4.688354
193.2382, 3.205322
193.7203, 2.315674
194.2024, 1.973877
194.6845, 1.549133
195.1666, 0.9783330
195.6488, 0.3415530
196.1309, 0.2039180
196.6130, 0.6582030
197.0951, 1.061707
197.5772, 1.522583
198.0593, 2.044922
198.5415, 2.210449
199.0236, 1.959900
199.5057, 1.366638
199.9878, 0.4974980
200.4699, 0.7259520
200.9520, 1.840027
201.4342, 2.486938
201.9163, 2.618286
202.3984, 2.934692
202.8805, 3.563477
203.3626, 4.328491
203.8447, 4.810913
204.3269, 4.849487
204.8090, 4.844177
205.2911, 4.995422
205.7732, 5.301758
206.2553, 5.778259
206.7374, 6.483337
207.2196, 7.331055
207.7017, 8.071167
208.1838, 8.664124
208.6659, 9.261963
209.1480, 10.04688
209.6301, 11.15393
210.1123, 11.76764
210.5944, 11.64935
211.0765, 11.11176
211.5586, 11.07184
212.0407, 11.65906
212.5228, 12.44263
213.0050, 13.11072
213.4871, 13.48944
213.9692, 14.44434
214.4513, 16.29523
214.9334, 18.63428
215.4155, 20.28833
215.8977, 21.05634
216.3798, 21.50916
216.8619, 21.86035
217.3440, 21.99854
217.8261, 22.33374
218.3082, 22.91333
218.7904, 23.74475
219.2725, 24.81366
219.7546, 26.22687
220.2367, 27.58435
220.7188, 28.50366
221.2009, 28.43042
221.6831, 29.58960
222.1652, 32.75403
222.6473, 37.01263
223.1294, 39.46167
223.6115, 39.22925
224.0936, 38.69196
224.5758, 39.07208
225.0579, 40.99127
225.5400, 42.28442
226.0221, 42.63916
226.5042, 42.42438
226.9863, 42.63849
227.4685, 43.40167
227.9506, 44.41162
228.4327, 45.56970
228.9148, 47.03320
229.3969, 48.27740
229.8790, 49.19434
230.3612, 49.90912
230.8433, 50.75531
231.3254, 51.84515
231.8075, 52.89282
232.2896, 53.77789
232.7717, 54.46869
233.2539, 55.07971
233.7360, 55.78070
234.2181, 56.32532
234.7002, 56.01318
235.1823, 54.05304
235.6644, 52.42413
236.1466, 52.02002
236.6287, 53.45990
237.1108, 54.38611
237.5929, 54.43134
238.0750, 54.10358
238.5571, 54.45551
239.0393, 55.70386
239.5214, 57.30164
240.0035, 59.14233
240.4856, 61.47565
240.9677, 63.29755
241.4498, 64.09082
241.9320, 64.65656
242.4141, 66.60901
242.8962, 71.14282
243.3783, 75.14453
243.8604, 77.42908
244.3425, 77.43256
244.8247, 77.84418
245.3068, 78.81427
245.7889, 80.10461
246.2710, 81.44598
246.7531, 83.24744
247.2352, 84.39661
247.7174, 84.57001
248.1995, 83.66663
248.6816, 82.15149
249.1637, 79.53601
249.6458, 76.52112
250.1279, 74.21198
250.6101, 72.98059
251.0922, 71.80463
251.5743, 70.45685
252.0564, 68.91571
252.5385, 67.10858
253.0206, 64.76910
253.5028, 62.17883
253.9849, 59.86151
254.4670, 58.04443
254.9491, 56.10577
255.4312, 53.72839
255.9133, 50.85278
256.3955, 48.61481
256.8776, 47.18256
257.3597, 46.17505
257.8418, 45.22589
258.3239, 44.44873
258.8061, 43.50427
259.2882, 42.23071
259.7703, 40.62994
260.2524, 39.38751
260.7345, 38.75873
261.2166, 38.11444
261.6988, 36.66638
262.1809, 33.85864
262.6630, 31.98877
263.1451, 31.81293
263.6272, 33.07806
264.1093, 33.42639
264.5915, 32.58417
265.0736, 31.32654
265.5557, 30.17743
266.0378, 29.13043
266.5199, 28.32684
267.0020, 27.86823
267.4842, 27.67468
267.9663, 27.32361
268.4484, 26.71082
268.9305, 26.17462
269.4126, 25.91760
269.8947, 25.91803
270.3769, 26.33563
270.8590, 27.39429
271.3411, 28.77893
271.8232, 29.42230
272.3053, 29.19250
272.7874, 28.61829
273.2696, 27.81348
273.7517, 26.64594
274.2338, 26.28833
274.7159, 27.17285
275.1980, 28.54651
275.6801, 28.50049
276.1623, 26.77344
276.6444, 24.81470
277.1265, 23.43890
277.6086, 22.69836
278.0907, 21.59473
278.5728, 20.06433
279.0550, 18.21777
279.5371, 16.10974
280.0192, 13.67712
280.5013, 11.48920
280.9834, 9.721863
281.4655, 8.376343
281.9477, 7.688171
282.4298, 7.776489
282.9119, 8.209106
283.3940, 8.435364
283.8761, 8.445190
284.3582, 8.356140
284.8404, 8.086426
285.3225, 7.710632
285.8046, 7.835144
286.2867, 8.560974
286.7688, 9.293945
287.2509, 9.202026
287.7331, 8.356995
288.2152, 7.784241
288.6973, 8.004944
289.1794, 8.688538
289.6615, 8.601685
290.1436, 7.683411
290.6258, 6.795837
291.1079, 6.835510
291.5900, 7.657349
292.0721, 8.463501
292.5542, 9.090881
293.0363, 9.561340
293.5185, 9.829285
294.0006, 9.902771
294.4827, 10.03217
294.9648, 10.60522
295.4469, 11.41284
295.9290, 11.78674
296.4112, 11.55188
296.8933, 10.91357
297.3754, 10.05670
297.8575, 9.019836
298.3396, 8.031921
298.8217, 7.203003
299.3039, 6.533508
299.7860, 6.147095
300.2681, 6.167236
300.7502, 6.096619
301.2323, 5.097534
301.7144, 3.433350
302.1966, 2.083862
302.6787, 1.899780
303.1608, 2.188232
303.6429, 1.949158
304.1250, 1.056274
304.6071, 2.3987001E-02
305.0893, 0.9329830
305.5714, 1.686096
306.0535, 1.929077
306.5356, 0.8754880
307.0177, 0.3572390
307.4998, 0.5966800
307.9820, 0.1885380
308.4641, 1.206360
308.9462, 2.320007
309.4283, 3.217773
309.9104, 3.451294
310.3925, 2.007080
310.8747, 0.5023190
311.3568, 0.1500240
311.8389, 0.8217770
312.3210, 1.586548
312.8031, 2.215393
313.2852, 2.570129
313.7674, 2.509888
314.2495, 1.836182
314.7316, 0.9497070
315.2137, 7.6660000E-02
315.6958, 1.181885
316.1779, 2.162964
316.6601, 3.011658
317.1422, 3.651794
317.6243, 3.936096
318.1064, 3.503784
318.5885, 3.410645
319.0706, 4.326294
319.5528, 5.796692
320.0349, 6.950256
320.5170, 7.239380
320.9991, 7.401123
321.4812, 7.729187
321.9633, 8.262451
322.4455, 8.919922
322.9276, 9.894714
323.4097, 10.92670
323.8918, 11.69635
324.3739, 11.81567
324.8560, 12.00943
325.3382, 12.55188
325.8203, 13.51672
326.3024, 14.23758
326.7845, 14.29620
327.2666, 14.30722
327.7487, 14.77039
328.2309, 16.96689
328.7130, 18.09976
329.1951, 17.24191
329.6772, 14.68387
330.1593, 13.37674
330.6414, 14.33420
331.1236, 15.58716
331.6057, 16.01282
332.0878, 14.70432
332.5699, 14.22159
333.0520, 15.09839
333.5341, 16.76062
334.0163, 17.58701
334.4984, 17.20505
334.9805, 16.58905
335.4626, 16.06778
335.9447, 15.57419
336.4268, 15.50699
336.9090, 16.11826
337.3911, 16.90427
337.8732, 16.96796
338.3553, 16.07474
338.8374, 15.29532
339.3195, 14.93756
339.8017, 15.00232
340.2838, 15.41446
340.7659, 16.33508
341.2480, 17.21036
341.7301, 17.24176
342.2122, 16.33728
342.6944, 16.02637
343.1765, 16.76718
343.6586, 18.34372
344.1407, 19.91949
344.6228, 21.41745
345.1049, 22.82892
345.5871, 24.24957
346.0692, 25.75766
346.5513, 27.41937
347.0334, 29.31100
347.5155, 30.99854
347.9977, 31.55637
348.4798, 31.18625
348.9619, 31.18372
349.4440, 32.58063
349.9261, 34.75049
350.4082, 36.37039
350.8904, 37.34354
351.3725, 37.86597
351.8546, 37.94431
352.3367, 37.64801
352.8188, 37.35272
353.3009, 37.56744
353.7831, 37.70160
354.2652, 36.75259
354.7473, 34.78024
355.2294, 33.06787
355.7115, 32.97192
356.1936, 33.56793
356.6758, 33.64288
357.1579, 32.67627
357.6400, 31.30118
358.1221, 29.76907
358.6042, 28.16360
359.0863, 26.72559
359.5685, 25.45132
360.0506, 24.47437
360.5327, 23.93369
361.0148, 23.96069
361.4969, 24.14014
361.9790, 24.66959
362.4612, 25.18268
362.9433, 25.03290
363.4254, 23.09146
363.9075, 21.31128
364.3896, 20.83090
364.8717, 21.94653
365.3539, 22.35800
365.8360, 20.87546
366.3181, 18.76840
366.8002, 17.19556
367.2823, 16.88019
367.7644, 16.51245
368.2466, 15.93542
368.7287, 15.18396
369.2108, 14.63739
369.6929, 14.72906
370.1750, 14.52338
370.6571, 13.51825
371.1393, 10.98337
371.6214, 9.001923
372.1035, 7.798065
372.5856, 7.142578
373.0677, 6.507935
373.5498, 5.791534
374.0320, 5.132050
374.5141, 4.577728
374.9962, 4.128845
375.4783, 3.804321
375.9604, 3.598755
376.4425, 3.533844
376.9247, 3.736847
377.4068, 4.292389
377.8889, 4.538696
378.3710, 4.125610
378.8531, 3.310272
379.3352, 3.275208
379.8174, 4.109680
380.2995, 5.113953
380.7816, 5.704742
381.2637, 5.942871
381.7458, 6.341553
382.2279, 7.066162
382.7101, 7.791107
383.1922, 7.736816
383.6743, 7.054504
384.1564, 6.794189
384.6385, 7.810883
385.1206, 9.588837
385.6028, 11.08893
386.0849, 12.24826
386.5670, 13.34576
387.0491, 14.85583
387.5312, 16.48624
388.0133, 17.66000
388.4955, 17.87112
388.9776, 17.78107
389.4597, 17.87189
389.9418, 18.15146
390.4239, 18.67480
390.9060, 19.88876
391.3882, 21.14862
391.8703, 21.84943
392.3524, 21.75613
392.8345, 21.33936
393.3166, 20.79932
393.7987, 20.09393
394.2809, 19.15323
394.7630, 17.75406
395.2451, 16.28189
395.7272, 14.86218
396.2093, 13.50882
396.6914, 12.23697
397.1736, 11.31204
397.6557, 10.33987
398.1378, 8.951233
398.6199, 6.327576
399.1020, 4.186127
399.5841, 3.003754
400.0663, 2.599976
400.5484, 1.738708
401.0305, 0.2268980
401.5126, 1.950195
401.9947, 2.674530
402.4768, 1.680847
402.9590, 1.413391
403.4411, 2.234222
403.9232, 3.498932
404.4053, 3.974030
404.8874, 3.324219
405.3695, 2.893127
405.8517, 3.256287
406.3338, 4.322632
406.8159, 4.805328
407.2980, 4.638092
407.7801, 4.107208
408.2622, 3.534271
408.7444, 2.904907
409.2265, 1.810516
409.7086, 1.9135000E-02
410.1907, 2.071899
410.6728, 3.636627
411.1549, 4.713348
411.6371, 5.714722
412.1192, 6.718384
412.6013, 7.836304
413.0834, 9.313690
413.5655, 11.16373
414.0476, 13.32901
414.5298, 16.13168
415.0119, 19.19260
415.4940, 21.81296
415.9761, 23.24048
416.4582, 24.44135
416.9403, 26.10651
417.4225, 28.23132
417.9046, 30.77386
418.3867, 33.73431
418.8688, 37.05347
419.3509, 40.68024
419.8330, 44.81439
420.3152, 48.88394
420.7973, 52.71042
421.2794, 56.35782
421.7615, 59.96912
422.2436, 63.44632
422.7257, 67.01624
423.2079, 70.97223
423.6900, 75.42728
424.1721, 79.24747
424.6542, 82.22787
425.1363, 84.63690
425.6184, 86.70633
426.1006, 88.41553
426.5827, 89.75372
427.0648, 90.77606
427.5469, 91.41589
428.0290, 91.44312
428.5111, 90.87543
428.9933, 89.62854
429.4754, 87.38583
429.9575, 83.86728
430.4396, 81.42773
430.9217, 80.33096
431.4038, 79.70514
431.8860, 78.27917
432.3681, 76.00055
432.8502, 74.44113
433.3323, 74.19687
433.8144, 74.83698
434.2965, 75.42798
434.7787, 75.97272
435.2608, 76.03259
435.7429, 74.70932
436.2250, 72.70532
436.7071, 71.88226
437.1892, 72.62820
437.6714, 73.88269
438.1535, 74.77606
438.6356, 75.30957
439.1177, 75.46829
439.5998, 75.01807
440.0819, 74.34277
440.5641, 73.55304
441.0462, 72.69971
441.5283, 72.29730
442.0104, 72.77625
442.4925, 73.73822
442.9746, 74.85605
443.4568, 76.08023
443.9389, 77.41129
444.4210, 78.89496
444.9031, 80.47690
445.3852, 82.06320
445.8673, 83.83698
446.3495, 85.40363
446.8316, 86.53879
447.3137, 87.14099
447.7958, 88.11932
448.2779, 90.09250
448.7600, 91.93103
449.2422, 92.76303
449.7243, 92.16959
450.2064, 91.52545
450.6885, 91.27911
451.1706, 90.88660
451.6527, 88.63208
452.1349, 84.00064
452.6170, 79.26694
453.0991, 75.42853
453.5812, 72.41217
454.0633, 69.66522
454.5454, 67.18304
455.0276, 64.80914
455.5097, 62.37790
455.9918, 59.89920
456.4739, 57.59509
456.9560, 55.52606
457.4381, 53.59195
457.9203, 51.54175
458.4024, 49.44708
458.8845, 47.53796
459.3666, 46.26761
459.8488, 45.16595
460.3309, 43.57346
460.8130, 41.33099
461.2951, 39.22607
461.7772, 38.07059
462.2593, 37.36127
462.7415, 36.53943
463.2236, 35.26846
463.7057, 33.90686
464.1878, 32.58478
464.6699, 31.30984
465.1520, 29.98633
465.6342, 28.48846
466.1163, 27.08810
466.5984, 25.94519
467.0805, 25.27032
467.5626, 24.44916
468.0447, 23.12726
468.5269, 21.71198
469.0090, 20.64813
469.4911, 20.17294
469.9732, 19.59677
470.4553, 18.72491
470.9374, 17.67471
471.4196, 16.96213
471.9017, 16.65158
472.3838, 16.47470
472.8659, 16.45206
473.3480, 16.57718
473.8301, 15.93671
474.3123, 14.36960
474.7944, 12.58344
475.2765, 11.42111
475.7586, 10.80075
476.2407, 10.35211
476.7228, 9.936035
477.2050, 9.617828
477.6871, 9.644745
478.1692, 9.901337
478.6513, 9.982513
479.1334, 9.410797
479.6155, 8.796936
480.0977, 8.787567
480.5798, 9.476013
481.0619, 10.26392
481.5440, 10.96066
482.0261, 11.62692
482.5082, 12.28677
482.9904, 12.57205
483.4725, 13.12723
483.9546, 14.47519
484.4367, 16.38644
484.9188, 17.74750
485.4009, 17.65103
485.8831, 17.52115
486.3652, 17.98706
486.8473, 19.35953
487.3294, 20.37396
487.8115, 20.76834
488.2936, 21.03595
488.7758, 21.74655
489.2579, 23.09991
489.7400, 24.21747
490.2221, 24.86713
490.7042, 25.23947
491.1863, 25.94803
491.6685, 27.03583
492.1506, 28.06561
492.6327, 28.85556
493.1148, 29.40555
493.5969, 29.45551
494.0790, 28.94037
494.5612, 28.68817
495.0433, 29.90091
495.5254, 31.96716
496.0075, 33.52045
496.4896, 33.89307
496.9717, 34.07202
497.4539, 35.11584
497.9360, 36.71652
498.4181, 38.03436
498.9002, 38.09366
499.3823, 38.19769
499.8644, 39.23615
500.3466, 41.33228
500.8287, 43.48090
501.3108, 45.47226
501.7929, 47.32419
502.2750, 49.04175
502.7571, 50.70975
503.2393, 52.12970
503.7214, 53.07095
504.2035, 53.79907
504.6856, 54.97101
505.1677, 57.06668
505.6498, 58.69943
506.1320, 59.34763
506.6141, 59.06287
507.0962, 59.04480
507.5783, 59.39905
508.0604, 59.70099
508.5425, 59.45667
509.0247, 58.74048
509.5068, 58.55301
509.9889, 59.18332
510.4710, 59.86203
510.9531, 59.40765
511.4352, 58.04984
511.9174, 56.62061
512.3995, 55.51196
512.8816, 54.49323
513.3637, 53.54407
513.8458, 52.54938
514.3279, 50.83493
514.8101, 47.10654
515.2922, 43.03497
515.7743, 40.02377
516.2564, 38.51862
516.7385, 37.21698
517.2206, 35.88922
517.7028, 34.45276
518.1849, 32.82120
518.6670, 30.56830
519.1491, 28.60007
519.6312, 26.97287
520.1133, 25.72803
520.5955, 24.99976
521.0776, 24.99878
521.5597, 25.20328
522.0418, 25.47443
522.5239, 25.84955
523.0060, 25.93842
523.4882, 25.66464
523.9703, 25.34674
524.4524, 25.60376
524.9345, 26.33798
525.4166, 26.01102
525.8987, 24.00095
526.3809, 21.45096
526.8630, 20.32578
527.3451, 20.27206
527.8272, 19.88480
528.3093, 18.46844
528.7914, 16.30939
529.2736, 13.32416
529.7557, 9.584747
530.2378, 6.393707
530.7199, 4.601715
531.2020, 3.557190
531.6841, 2.829224
532.1663, 2.585327
532.6484, 2.060272
533.1305, 0.7092290
533.6126, 0.9360660
534.0947, 2.139923
534.5768, 2.771210
535.0590, 2.997437
535.5411, 2.583862
536.0232, 1.696472
536.5053, 1.450653
536.9874, 2.132721
537.4695, 2.793213
537.9517, 2.814850
538.4338, 2.139282
538.9159, 2.110931
539.3980, 2.860992
539.8801, 3.736328
540.3622, 3.965454
540.8444, 3.663300
541.3265, 3.415558
541.8086, 3.453705
542.2907, 3.397949
542.7728, 2.652618
543.2549, 1.394440
543.7371, 0.1405330
544.2192, 0.7142330
544.7013, 1.560333
545.1834, 2.975922
545.6655, 4.901550
546.1476, 6.139984
546.6298, 4.990601
547.1119, 3.812775
547.5940, 4.299042
548.0761, 7.825989
548.5582, 10.66174
549.0403, 11.92038
549.5225, 12.66333
550.0046, 14.13135
550.4867, 16.57599
550.9688, 19.26138
551.4509, 22.18738
551.9330, 25.23825
552.4152, 27.81641
552.8973, 29.81299
553.3794, 32.02692
553.8615, 34.89713
554.3436, 38.33896
554.8257, 42.11111
555.3079, 46.21384
555.7900, 50.06009
556.2721, 52.71756
556.7542, 54.77997
557.2363, 57.34842
557.7184, 60.76706
558.2006, 64.40820
558.6827, 67.67816
559.1648, 70.84656
559.6469, 74.43832
560.1290, 78.67618
560.6111, 83.31619
561.0933, 88.32880
561.5754, 93.68472
562.0575, 99.08289
562.5396, 104.1776
563.0217, 109.6015
563.5038, 115.7806
563.9860, 123.0420
564.4681, 129.6304
564.9502, 135.4428
565.4323, 140.7288
565.9144, 145.9922
566.3965, 151.4332
566.8787, 154.8491
567.3608, 155.9095
567.8429, 154.8137
568.3250, 151.8635
568.8071, 147.0658
569.2892, 140.4005
569.7714, 131.0643
570.2535, 120.4168
570.7356, 110.1779
571.2177, 100.2338
571.6998, 90.82455
572.1819, 81.88425
572.6641, 73.40234
573.1462, 65.15930
573.6283, 56.84106
574.1104, 49.93430
574.5925, 45.22247
575.0746, 41.87732
575.5568, 39.08511
576.0389, 37.11411
576.5210, 35.29999
577.0031, 33.58820
577.4852, 32.02155
577.9673, 30.66135
578.4495, 29.48862
578.9316, 28.59903
579.4137, 27.98114
579.8958, 27.64920
580.3779, 27.72772
580.8600, 28.23666
581.3422, 29.05829
581.8243, 30.26801
582.3064, 31.71509
582.7885, 32.99341
583.2706, 34.06589
583.7527, 35.16641
584.2349, 36.43912
584.7170, 37.88403
585.1991, 39.58203
585.6812, 41.66315
586.1633, 43.61218
586.6454, 45.15723
587.1276, 46.54077
587.6097, 48.10617
588.0918, 49.67731
588.5739, 51.55090
589.0560, 54.07623
589.5381, 57.13504
590.0203, 59.54657
590.5024, 60.96732
590.9845, 62.42523
591.4666, 64.42770
591.9487, 66.99112
592.4308, 69.21997
592.9130, 71.11804
593.3951, 72.90402
593.8772, 74.55865
594.3593, 76.20551
594.8414, 78.40091
595.3235, 81.38000
595.8057, 84.46957
596.2878, 87.11792
596.7699, 89.34344
597.2520, 91.16910
597.7341, 92.34335
598.2162, 93.44156
598.6984, 94.86487
599.1805, 96.46143
599.6626, 97.77823
600.1447, 99.30237
600.6268, 99.99316
601.1089, 99.35770
601.5911, 97.30630
602.0732, 95.03833
602.5553, 92.39862
603.0374, 89.75095
603.5195, 87.48547
604.0016, 85.67722
604.4838, 83.47986
604.9659, 80.91278
605.4480, 77.84521
605.9301, 73.61044
606.4122, 68.61325
606.8943, 64.48447
607.3765, 61.89056
607.8586, 59.98306
608.3407, 58.21368
608.8228, 56.41919
609.3049, 54.26553
609.7870, 51.38611
610.2692, 48.26187
610.7513, 44.86896
611.2334, 41.29611
611.7155, 38.42056
612.1976, 37.12286
612.6797, 35.89923
613.1619, 34.00745
613.6440, 31.18698
614.1261, 28.81488
614.6082, 26.89667
615.0903, 25.39142
615.5724, 24.31223
616.0546, 23.67828
616.5367, 23.14191
617.0188, 22.76303
617.5009, 22.19992
617.9830, 20.66077
618.4651, 18.45871
618.9473, 16.69281
619.4294, 16.01242
619.9115, 15.63779
620.3936, 14.85892
620.8757, 13.76474
621.3578, 12.60980
621.8400, 11.36246
622.3221, 10.20013
622.8042, 9.137573
623.2863, 8.169922
623.7684, 7.674225
624.2505, 8.217987
624.7327, 8.723694
625.2148, 8.601379
625.6969, 7.614716
626.1790, 7.004944
626.6611, 6.882721
627.1432, 6.916473
627.6254, 6.902466
628.1075, 6.814362
628.5896, 6.093445
629.0717, 4.457916
629.5538, 2.719391
630.0359, 1.945679
630.5181, 1.941864
631.0002, 2.214996
631.4823, 2.973175
631.9644, 3.530975
632.4465, 3.185638
632.9286, 2.203369
633.4108, 1.433167
633.8929, 1.454163
634.3750, 1.454498
634.8571, 1.013977
635.3392, 9.5275998E-02
635.8214, 0.5140690
636.3035, 0.8228760
636.7856, 0.8205870
637.2677, 0.4126590
637.7498, 0.4839480
638.2319, 1.217987
638.7141, 1.792267
639.1962, 2.240326
639.6783, 2.711456
640.1604, 3.110687
640.6425, 3.045380
641.1246, 2.395905
641.6068, 1.426208
642.0889, 2.6916999E-02
642.5710, 1.540680
643.0531, 2.360077
643.5352, 1.438446
644.0173, 0.5800480
644.4995, 0.7990420
644.9816, 1.670166
645.4637, 1.970551
645.9458, 0.8277590
646.4279, 0.1189580
646.9100, 0.3504330
647.3922, 5.8136001E-02
647.8743, 3.3264000E-02
648.3564, 0.5800480
648.8385, 1.194885
649.3206, 1.378571
649.8027, 1.199860
650.2849, 1.338501
650.7670, 1.828430
651.2491, 2.357727
651.7312, 2.552063
652.2133, 2.603607
652.6954, 2.922058
653.1776, 3.704681
653.6597, 4.234406
654.1418, 3.809265
654.6239, 3.021088
655.1060, 2.530304
655.5881, 2.687561
656.0703, 2.907623
656.5524, 3.127136
657.0345, 3.376495
657.5166, 3.647034
657.9987, 3.750092
658.4808, 4.428284
658.9630, 6.220428
659.4451, 8.520660
659.9272, 9.151794
660.4093, 8.128937
660.8914, 6.654694
661.3735, 4.999420
661.8557, 3.450500
662.3378, 2.444946
662.8199, 1.963318
663.3020, 1.968201
663.7841, 3.207397
664.2662, 4.463898
664.7484, 4.573059
665.2305, 3.205811
665.7126, 2.399475
666.1947, 2.814178
666.6768, 3.723450
667.1589, 4.686584
667.6411, 6.185883
668.1232, 6.627258
668.6053, 5.567780
669.0874, 4.039917
669.5695, 3.293091
670.0516, 3.305450
670.5338, 3.753418
671.0159, 4.709595
671.4980, 5.715942
671.9801, 6.054565
672.4622, 5.885834
672.9443, 5.632111
673.4265, 5.376129
673.9086, 5.228882
674.3907, 5.289124
674.8728, 5.522278
675.3549, 5.812225
675.8370, 6.349304
676.3192, 6.720978
676.8013, 6.747925
677.2834, 6.461243
677.7655, 6.063416
678.2476, 5.363251
678.7297, 4.965454
679.2119, 5.379272
679.6940, 6.537048
680.1761, 6.955963
680.6582, 6.573517
681.1403, 6.067383
681.6224, 6.085815
682.1046, 6.361450
682.5867, 6.320984
683.0688, 5.842682
683.5509, 5.498352
684.0330, 5.855377
684.5151, 6.416931
684.9973, 6.674774
685.4794, 6.361725
685.9615, 6.287537
686.4436, 6.911377
686.9257, 7.682892
687.4078, 7.932434
687.8900, 7.442078
688.3721, 7.026001
688.8542, 6.834290
689.3363, 6.759735
689.8184, 6.540375
690.3005, 6.199585
690.7827, 6.029724
691.2648, 6.326355
691.7469, 6.663452
692.2290, 6.215057
692.7111, 5.237305
693.1932, 4.582550
693.6754, 4.786987
694.1575, 5.317139
694.6396, 6.169800
695.1217, 7.268646
695.6038, 7.706665
696.0859, 6.658508
696.5681, 5.607147
697.0502, 5.100922
697.5323, 5.161316
698.0144, 5.269409
698.4965, 5.463806
698.9786, 5.579498
699.4608, 5.390930
699.9429, 4.995667
700.4250, 4.931854
700.9071, 5.300507
701.3892, 5.454834
701.8713, 4.390808
702.3535, 2.821655
702.8356, 1.657471
703.3177, 1.159698
703.7998, 0.9695130
704.2819, 1.090637
704.7640, 1.290741
705.2462, 1.327545
705.7283, 0.9567570
706.2104, 0.8495790
706.6925, 1.183899
707.1746, 1.640350
707.6567, 1.587036
708.1389, 0.9673460
708.6210, 0.8361510
709.1031, 1.593597
709.5852, 2.664032
710.0673, 3.219513
710.5494, 3.303467
711.0316, 3.063263
711.5137, 2.102905
711.9958, 1.264496
712.4779, 1.315552
712.9600, 1.963684
713.4421, 2.312775
713.9243, 1.894501
714.4064, 1.382141
714.8885, 0.8928830
715.3706, 0.4518430
715.8527, 0.3497620
716.3348, 0.7356870
716.8170, 1.007507
717.2991, 0.8320620
717.7812, 0.2905880
718.2633, 0.3025510
718.7454, 0.9456480
719.2275, 1.302368
719.7097, 1.022797
720.1918, 0.3995970
720.6739, 0.4770510
721.1560, 1.592834
721.6381, 2.036469
722.1202, 0.4409790
722.6024, 1.317474
723.0845, 1.854767
723.5666, 0.4926450
724.0487, 0.3109130
724.5308, 0.3832700
725.0129, 0.1483460
725.4951, 8.3405003E-02
725.9772, 0.3138430
726.4593, 0.5627750
726.9414, 0.8623660
727.4235, 1.035950
727.9056, 0.7633970
728.3878, 0.2138980
728.8699, 0.2300110
729.3520, 0.4220890
729.8341, 0.7095640
730.3162, 1.454071
730.7983, 2.277527
731.2805, 2.809052
731.7626, 2.873199
732.2447, 2.807404
732.7268, 2.463287
733.2089, 2.112610
733.6910, 2.295868
734.1732, 3.206757
734.6553, 3.783722
735.1374, 3.700134
735.6195, 3.314972
736.1016, 3.394470
736.5837, 3.811127
737.0659, 4.008301
737.5480, 3.583679
738.0301, 3.008118
738.5122, 2.728821
738.9943, 2.635132
739.4764, 2.484863
739.9586, 2.198486
740.4407, 1.727661
740.9228, 0.6376650
741.4049, 0.7180180
741.8870, 0.5170900
742.3691, 2.037811
742.8513, 3.998444
743.3334, 4.046600
743.8155, 2.660400
744.2976, 1.720001
744.7797, 1.217957
745.2618, 1.036407
745.7440, 1.265747
746.2261, 1.668945
746.7082, 2.044220
747.1903, 2.366333
747.6724, 2.535309
748.1545, 2.322205
748.6367, 2.096832
749.1188, 2.058929
749.6009, 2.231537
750.0830, 2.489807
750.5651, 2.991882
751.0472, 3.259460
751.5294, 2.823090
752.0115, 1.717560
752.4936, 1.214020
752.9757, 1.322296
753.4578, 1.745422
753.9399, 2.476929
754.4221, 3.254761
754.9042, 3.686890
755.3863, 3.737244
755.8684, 3.507568
756.3505, 2.730103
756.8326, 1.915680
757.3148, 1.504791
757.7969, 1.810852
758.2790, 1.791260
758.7611, 1.294342
759.2432, 0.6822810
759.7253, 0.1735230
760.2075, 0.2497860
760.6896, 0.2310180
761.1717, 0.3050840
761.6538, 1.078217
762.1359, 2.177277
762.6180, 3.218201
763.1002, 3.284210
763.5823, 1.797516
764.0644, 0.6580200
764.5465, 1.398132
765.0286, 2.802551
765.5107, 3.543549
765.9929, 2.929657
766.4750, 2.393890
766.9571, 1.944061
767.4392, 1.631989
767.9213, 1.397369
768.4034, 1.214874
768.8856, 1.887573
769.3677, 3.780182
769.8498, 5.710602
770.3319, 6.129181
770.8140, 5.486816
771.2961, 4.675842
771.7783, 3.832733
772.2604, 3.078613
772.7425, 2.326965
773.2246, 1.742065
773.7067, 1.602295
774.1888, 2.476318
774.6710, 3.024048
775.1531, 3.032593
775.6352, 2.706635
776.1173, 2.401306
776.5994, 2.114990
777.0815, 1.832092
777.5637, 1.578888
778.0458, 1.401550
778.5279, 1.286774
779.0100, 1.274506
779.4921, 1.467957
779.9742, 2.282745
780.4564, 2.701630
780.9385, 2.012390
781.4206, 0.8616640
781.9027, 0.3989870
782.3848, 1.299469
782.8669, 1.678833
783.3491, 1.027100
783.8312, 0.1657710
784.3133, 0.7258910
784.7954, 0.6644900
785.2775, 0.3239440
785.7596, 0.4872740
786.2418, 1.150726
786.7239, 0.3132630
787.2060, 1.406799
787.6881, 2.472656
788.1702, 1.629822
788.6523, 0.5930790
789.1345, 8.2976997E-02
789.6166, 0.4106140
790.0987, 0.5103150
790.5808, 0.2718810
791.0629, 1.4679000E-02
791.5450, 0.2213750
792.0272, 0.4071960
792.5093, 0.4802860
792.9914, 0.4370730
793.4735, 0.2212520
793.9556, 0.2283330
794.4377, 0.8273930
794.9199, 1.912842
795.4020, 3.095764
795.8841, 3.299713
796.3662, 0.7648620
796.8483, 1.359863
797.3304, 1.688538
797.8126, 0.7455140
798.2947, 0.1124880
798.7768, 0.1510620
799.2589, 0.1056210
799.7410, 0.1866760
800.2231, 0.5378110
800.7053, 0.7909240
801.1874, 0.9449770
801.6695, 1.002899
802.1516, 0.9709170
802.6337, 0.8389890
803.1158, 0.4911190
803.5980, 2.3621000E-02
804.0801, 0.2896730
804.5622, 2.4170000E-02
805.0443, 4.3823000E-02
805.5264, 0.7841800
806.0085, 2.023651
806.4907, 2.048370
806.9728, 0.5177000
807.4549, 0.4242250
807.9370, 0.1796570
808.4191, 1.520752
808.9012, 1.890167
809.3834, 1.523590
809.8655, 1.266602
810.3476, 1.884155
810.8297, 2.412476
811.3118, 2.078369
811.7939, 1.172119
812.2761, 0.5545960
812.7582, 0.2890630
813.2403, 0.4526370
813.7224, 1.274994
814.2045, 2.444214
814.6866, 2.927277
815.1688, 2.703766
815.6509, 2.698334
816.1330, 3.365234
816.6151, 4.275665
817.0972, 4.707672
817.5793, 4.851044
818.0615, 5.244598
818.5436, 6.737213
819.0257, 7.917633
819.5078, 7.895142
819.9899, 7.111938
820.4720, 6.849335
820.9542, 7.258453
821.4363, 7.862213
821.9184, 8.702606
822.4005, 9.519958
822.8826, 9.461487
823.3647, 8.735565
823.8469, 8.573700
824.3290, 9.810760
824.8111, 11.25336
825.2932, 11.72250
825.7753, 11.63120
826.2574, 11.77652
826.7396, 12.55725
827.2217, 13.42013
827.7038, 14.52875
828.1859, 15.53882
828.6681, 15.69376
829.1502, 14.84421
829.6323, 14.16986
830.1144, 13.92770
830.5966, 13.99207
831.0787, 14.31122
831.5608, 14.77225
832.0429, 15.11877
832.5250, 15.23926
833.0071, 15.25397
833.4893, 15.22552
833.9714, 15.13098
834.4535, 14.90738
834.9356, 14.28815
835.4177, 14.09167
835.8998, 14.53568
836.3820, 15.21402
836.8641, 15.51129
837.3462, 15.46881
837.8283, 15.49701
838.3104, 15.71994
838.7925, 15.87994
839.2747, 15.73550
839.7568, 15.36057
840.2389, 14.80496
840.7210, 13.63785
841.2031, 13.11774
841.6852, 14.19333
842.1674, 15.50064
842.6495, 15.71335
843.1316, 14.61154
843.6137, 13.77448
844.0958, 13.31332
844.5779, 13.08475
845.0601, 12.86871
845.5422, 12.72110
846.0243, 12.85687
846.5064, 13.33475
846.9885, 13.88406
847.4706, 14.28958
847.9528, 14.72531
848.4349, 15.37817
848.9170, 16.41409
849.3991, 17.15002
849.8812, 17.48438
850.3633, 17.70828
850.8455, 18.01001
851.3276, 18.40378
851.8097, 19.08377
852.2918, 20.07294
852.7739, 20.82562
853.2560, 20.65823
853.7382, 20.22894
854.2203, 20.08633
854.7024, 20.25510
855.1845, 20.84808
855.6666, 22.88354
856.1487, 24.32190
856.6309, 23.77261
857.1130, 21.29163
857.5951, 20.86304
858.0772, 22.63638
858.5593, 24.59912
859.0414, 25.30466
859.5236, 25.40189
860.0057, 25.91028
860.4878, 26.78784
860.9699, 27.55661
861.4520, 27.94449
861.9341, 28.21661
862.4163, 28.27902
862.8984, 28.24927
863.3805, 29.15936
863.8626, 31.48349
864.3447, 33.14020
864.8268, 33.03824
865.3090, 31.95139
865.7911, 31.89523
866.2732, 32.61859
866.7553, 33.11746
867.2374, 32.44873
867.7195, 31.81055
868.2017, 31.94702
868.6838, 32.67477
869.1659, 33.52368
869.6480, 34.88458
870.1301, 35.52649
870.6122, 35.04196
871.0944, 33.90131
871.5765, 33.02966
872.0586, 32.41489
872.5407, 31.91235
873.0228, 31.44000
873.5049, 31.18539
873.9871, 31.51001
874.4692, 32.12689
874.9513, 32.59641
875.4334, 32.91217
875.9155, 32.90399
876.3976, 32.34729
876.8798, 31.69330
877.3619, 31.39850
877.8440, 31.45859
878.3261, 32.10062
878.8082, 33.47205
879.2903, 34.76138
879.7725, 35.01764
880.2546, 34.66470
880.7367, 34.21585
881.2188, 33.66135
881.7009, 33.48123
882.1830, 34.54706
882.6652, 35.46185
883.1473, 35.12823
883.6294, 33.22986
884.1115, 32.27054
884.5936, 32.47769
885.0757, 32.74033
885.5579, 31.82358
886.0400, 30.42410
886.5221, 30.14771
887.0042, 30.95386
887.4863, 31.37161
887.9684, 29.88809
888.4506, 28.50204
888.9327, 28.46179
889.4148, 29.71317
889.8969, 30.96475
890.3790, 32.32928
890.8611, 33.21228
891.3433, 33.32629
891.8254, 32.87170
892.3075, 32.15485
892.7896, 31.18756
893.2717, 30.27878
893.7538, 29.78235
894.2360, 29.24826
894.7181, 28.24603
895.2002, 26.99014
895.6823, 26.07755
896.1644, 25.53339
896.6465, 25.33588
897.1287, 25.51843
897.6108, 26.00623
898.0929, 26.72897
898.5750, 27.61127
899.0571, 28.24301
899.5392, 28.43600
900.0214, 28.63092
900.5035, 29.19266
900.9856, 29.95761
901.4677, 30.73364
901.9498, 31.25247
902.4319, 32.24084
902.9141, 33.93732
903.3962, 35.76804
903.8783, 37.13989
904.3604, 38.11902
904.8425, 39.40857
905.3246, 41.06860
905.8068, 43.02612
906.2889, 45.75351
906.7710, 48.39957
907.2531, 49.82074
907.7352, 49.76624
908.2173, 50.99988
908.6995, 54.92053
909.1816, 58.76056
909.6637, 61.28522
910.1458, 62.66711
910.6279, 63.79834
911.1100, 64.70142
911.5922, 65.80682
912.0743, 67.56671
912.5564, 69.50415
913.0385, 71.19513
913.5206, 72.66245
914.0027, 74.02496
914.4849, 75.14157
914.9670, 76.41296
915.4491, 78.16068
915.9312, 79.92932
916.4133, 80.67877
916.8954, 80.42413
917.3776, 80.03372
917.8597, 79.76141
918.3418, 79.27121
918.8239, 78.11517
919.3060, 76.53177
919.7881, 74.83481
920.2703, 72.99158
920.7524, 71.25674
921.2345, 69.85956
921.7166, 68.37775
922.1987, 66.47253
922.6808, 64.13580
923.1630, 61.55914
923.6451, 58.73224
924.1272, 55.72360
924.6093, 52.25003
925.0914, 48.83316
925.5735, 46.18909
926.0557, 44.37589
926.5378, 42.51422
927.0199, 40.42334
927.5020, 38.17273
927.9841, 35.79816
928.4662, 33.27399
928.9484, 30.14911
929.4305, 26.42447
929.9126, 23.30225
930.3947, 21.57541
930.8768, 20.53510
931.3589, 19.61987
931.8411, 18.75186
932.3232, 17.77951
932.8053, 17.04022
933.2874, 15.60834
933.7695, 12.75607
934.2516, 9.712311
934.7338, 8.693146
935.2159, 9.678802
935.6980, 9.815063
936.1801, 8.548431
936.6622, 6.924255
937.1443, 5.964355
937.6265, 5.278046
938.1086, 4.349945
938.5907, 2.926025
939.0728, 1.904846
939.5549, 1.660370
940.0370, 1.558807
940.5192, 1.284058
941.0013, 0.8357850
941.4834, 8.2275003E-02
941.9655, 0.9603270
942.4476, 1.488770
942.9297, 0.3818050
943.4119, 1.005096
943.8940, 1.370972
944.3761, 0.8552860
944.8582, 0.2282410
945.3403, 0.3291320
945.8224, 0.9932860
946.3046, 1.911377
946.7867, 2.838226
947.2688, 3.066406
947.7509, 2.753540
948.2330, 2.886841
948.7151, 3.958649
949.1973, 4.742096
949.6794, 3.917206
950.1615, 2.291412
950.6436, 0.7991940
951.1257, 0.5689390
951.6078, 1.284851
952.0900, 1.161896
952.5721, 0.7176210
953.0542, 0.1374210
953.5363, 0.4764100
954.0184, 0.1507260
954.5005, 1.116119
954.9827, 2.290436
955.4648, 2.562531
955.9469, 2.528656
956.4290, 2.491302
956.9111, 2.498505
957.3932, 2.833557
957.8754, 3.698761
958.3575, 4.351257
958.8396, 4.429199
959.3217, 4.269348
959.8038, 4.883911
960.2859, 5.993805
960.7681, 6.580109
961.2502, 5.924072
961.7323, 5.221924
962.2144, 5.497833
962.6965, 5.958740
963.1786, 5.474670
963.6608, 3.380310
964.1429, 2.227783
964.6250, 2.230042
965.1071, 2.812927
965.5892, 3.915710
966.0714, 5.046295
966.5535, 4.867950
967.0356, 3.324890
967.5177, 2.116974
967.9998, 2.248291
968.4819, 2.835327
968.9641, 3.574036
969.4462, 4.387756
969.9283, 4.687927
970.4104, 4.358032
970.8925, 4.383759
971.3746, 5.299835
971.8568, 6.559814
972.3389, 7.306122
972.8210, 7.761536
973.3031, 8.409729
973.7852, 9.391968
974.2673, 10.62192
974.7495, 12.36664
975.2316, 14.11844
975.7137, 15.23950
976.1958, 15.70258
976.6779, 16.63315
977.1600, 18.17288
977.6422, 19.59995
978.1243, 20.00772
978.6064, 20.18335
979.0885, 21.16699
979.5706, 23.05685
980.0527, 24.27539
980.5349, 24.18683
981.0170, 23.98492
981.4991, 24.11633
981.9812, 24.42142
982.4633, 24.29501
982.9454, 23.80038
983.4276, 23.33701
983.9097, 23.05545
984.3918, 22.86612
984.8739, 23.08539
985.3560, 23.21762
985.8381, 22.38672
986.3203, 19.78549
986.8024, 18.07166
987.2845, 17.61880
987.7666, 17.38089
988.2487, 16.12338
988.7308, 14.26508
989.2130, 12.79370
989.6951, 11.80627
990.1772, 11.15591
990.6593, 10.96442
991.1414, 10.90176
991.6235, 10.91220
992.1057, 10.91898
992.5878, 10.39551
993.0699, 9.246429
993.5520, 8.209930
994.0341, 7.558136
994.5162, 7.106537
994.9984, 6.569122
995.4805, 6.042450
995.9626, 5.721771
996.4447, 5.950653
996.9268, 5.921967
997.4089, 5.500671
997.8911, 4.833435
998.3732, 3.966003
998.8553, 2.924164
999.3374, 2.021912
999.8195, 1.240204
1000.302, 0.7303770
1000.784, 0.8850710
1001.266, 1.216248
1001.748, 1.379272
1002.230, 1.347656
1002.712, 1.127289
1003.194, 0.6005860
1003.676, 4.0405001E-02
1004.159, 0.6099550
1004.641, 1.141327
1005.123, 0.8157650
1005.605, 6.7534998E-02
1006.087, 0.4554750
1006.569, 0.1634220
1007.051, 0.9192500
1007.533, 1.404755
1008.016, 1.604828
1008.498, 1.558685
1008.980, 1.246307
1009.462, 0.9804990
1009.944, 0.7804870
1010.426, 0.4451900
1010.908, 0.2412720
1011.390, 1.057556
1011.872, 1.917175
1012.355, 2.756348
1012.837, 3.238922
1013.319, 2.994965
1013.801, 2.656464
1014.283, 2.045532
1014.765, 1.684143
1015.247, 2.974365
1015.729, 5.623749
1016.211, 7.268982
1016.694, 7.344849
1017.176, 6.890961
1017.658, 6.319183
1018.140, 5.907867
1018.622, 6.031311
1019.104, 6.865509
1019.586, 7.097961
1020.068, 6.428772
1020.551, 6.201538
1021.033, 7.595032
1021.515, 9.635223
1021.997, 9.906219
1022.479, 8.949402
1022.961, 8.356873
1023.443, 9.510468
1023.925, 10.22498
1024.407, 9.212128
1024.890, 7.897949
1025.372, 8.272705
1025.854, 10.39597
1026.336, 11.79251
1026.818, 12.18381
1027.300, 12.35736
1027.782, 13.18143
1028.264, 14.01437
1028.746, 14.10611
1029.229, 13.40115
1029.711, 13.04166
1030.193, 13.31323
1030.675, 13.44278
1031.157, 13.07855
1031.639, 12.52386
1032.121, 12.55240
1032.603, 12.97852
1033.086, 13.18134
1033.568, 12.74356
1034.050, 12.54874
1034.532, 13.43652
1035.014, 14.43030
1035.496, 14.56696
1035.978, 13.64017
1036.460, 13.46530
1036.943, 14.09793
1037.425, 14.68942
1037.907, 14.50098
1038.389, 14.03796
1038.871, 13.53912
1039.353, 13.18930
1039.835, 13.73450
1040.317, 16.38571
1040.799, 18.09537
1041.281, 18.28284
1041.764, 17.54153
1042.246, 16.34137
1042.728, 15.00537
1043.210, 14.91757
1043.692, 16.52338
1044.174, 17.58765
1044.656, 15.66571
1045.138, 13.87448
1045.621, 14.72217
1046.103, 17.90491
1046.585, 18.74942
1047.067, 17.08081
1047.549, 15.42651
1048.031, 14.92291
1048.513, 15.01245
1048.995, 15.24673
1049.478, 15.56870
1049.960, 15.88312
1050.442, 16.22885
1050.924, 16.45914
1051.406, 16.56284
1051.888, 16.58026
1052.370, 16.46945
1052.852, 16.31161
1053.334, 16.41180
1053.817, 16.76404
1054.299, 17.15906
1054.781, 17.55133
1055.263, 17.88580
1055.745, 18.19077
1056.227, 18.40802
1056.709, 18.33942
1057.191, 17.95825
1057.673, 17.52640
1058.156, 17.04871
1058.638, 16.78140
1059.120, 17.22156
1059.602, 17.85376
1060.084, 18.08777
1060.566, 17.63309
1061.048, 17.46347
1061.530, 17.85928
1062.013, 17.91934
1062.495, 16.98627
1062.977, 15.68448
1063.459, 15.61633
1063.941, 16.40918
1064.423, 16.88995
1064.905, 16.26736
1065.387, 15.60254
1065.870, 15.34219
1066.352, 15.23682
1066.834, 15.07370
1067.316, 14.85666
1067.798, 14.67715
1068.280, 14.45645
1068.762, 14.57660
1069.244, 16.00284
1069.726, 17.33560
1070.208, 17.09708
1070.691, 15.69272
1071.173, 15.08759
1071.655, 15.44189
1072.137, 16.30023
1072.619, 17.70984
1073.101, 19.23331
1073.583, 20.10559
1074.065, 20.75110
1074.548, 21.99701
1075.030, 24.06818
1075.512, 25.73349
1075.994, 26.09631
1076.476, 26.75696
1076.958, 28.53574
1077.440, 31.02661
1077.922, 32.78900
1078.405, 33.92279
1078.887, 34.88394
1079.369, 35.53500
1079.851, 36.64703
1080.333, 39.26138
1080.815, 42.19943
1081.297, 44.05554
1081.779, 44.56030
1082.261, 45.51392
1082.744, 46.94208
1083.226, 48.62796
1083.708, 50.52332
1084.190, 52.50226
1084.672, 54.61255
1085.154, 56.70853
1085.636, 58.27982
1086.118, 58.98495
1086.601, 59.81128
1087.083, 60.99609
1087.565, 62.05499
1088.047, 62.18915
1088.529, 61.80801
1089.011, 61.86646
1089.493, 62.43225
1089.975, 62.43192
1090.458, 61.28864
1090.940, 59.62817
1091.422, 57.61591
1091.904, 55.18921
1092.386, 52.40747
1092.868, 49.26929
1093.350, 45.73004
1093.832, 41.56921
1094.314, 37.50342
1094.797, 34.11987
1095.279, 31.00543
1095.761, 27.66873
1096.243, 24.10205
1096.725, 21.18790
1097.207, 18.94156
1097.689, 17.17957
1098.171, 16.07703
1098.653, 15.13052
1099.136, 13.63129
1099.618, 11.88107
1100.100, 10.43719
1100.582, 9.337036
1101.064, 8.679230
1101.546, 8.658081
1102.028, 8.701752
1102.510, 7.984406
1102.993, 6.934753
1103.475, 6.624512
1103.957, 6.925354
1104.439, 6.795502
1104.921, 5.297485
1105.403, 3.962341
1105.885, 3.186432
1106.367, 2.772430
1106.849, 2.349731
1107.332, 1.980591
1107.814, 2.061676
1108.296, 2.688263
1108.778, 3.327667
1109.260, 3.894104
1109.742, 4.118805
1110.224, 3.641205
1110.706, 2.656769
1111.188, 2.112030
1111.671, 2.003723
1112.153, 2.130798
1112.635, 2.479736
1113.117, 2.893494
1113.599, 3.548553
1114.081, 3.999329
1114.563, 3.532318
1115.045, 1.771210
1115.528, 0.8905940
1116.010, 1.075348
1116.492, 1.202240
1116.974, 0.2401120
1117.456, 0.8131710
1117.938, 5.9845001E-02
1118.420, 2.036133
1118.902, 3.348846
1119.385, 3.325684
1119.867, 2.721893
1120.349, 1.338776
1120.831, 7.3821999E-02
1121.313, 1.025787
1121.795, 1.464539
1122.277, 1.085388
1122.759, 3.2990001E-02
1123.241, 0.8242800
1123.724, 1.239807
1124.206, 1.130646
1124.688, 4.0741000E-02
1125.170, 1.143097
1125.652, 0.7444460
1126.134, 0.9508670
1126.616, 1.870789
1127.098, 1.752289
1127.580, 1.431824
1128.063, 1.529785
1128.545, 1.549988
1129.027, 1.043335
1129.509, 0.2239070
1129.991, 0.1411130
1130.473, 3.7597999E-02
1130.955, 6.2531002E-02
1131.437, 1.4008000E-02
1131.920, 4.6997000E-02
1132.402, 0.6862180
1132.884, 1.309479
1133.366, 1.153198
1133.848, 0.1029660
1134.330, 0.4758300
1134.812, 0.5501100
1135.294, 0.3278500
1135.776, 0.2084660
1136.259, 0.8138430
1136.741, 1.310791
1137.223, 1.595581
1137.705, 1.473267
1138.187, 0.5268860
1138.669, 5.7342999E-02
1139.151, 0.2248230
1139.633, 0.4669800
1140.115, 0.3342590
1140.598, 4.8340000E-02
1141.080, 8.1909001E-02
1141.562, 0.3597720
1142.044, 0.6728820
1142.526, 0.9399720
1143.008, 1.292847
1143.490, 1.939423
1143.972, 2.372986
1144.455, 1.895813
1144.937, 0.8143920
1145.419, 1.3458000E-02
1145.901, 0.4385070
1146.383, 0.4517210
1146.865, 0.8175050
1147.347, 1.495026
1147.829, 0.6546020
1148.312, 0.6693730
1148.794, 0.6726380
1149.276, 0.3949890
1149.758, 0.7453920
1150.240, 0.1574710
1150.722, 0.3455510
1151.204, 5.6334998E-02
1151.686, 0.4570010
1152.168, 1.056000
1152.651, 1.579712
1153.133, 1.416382
1153.615, 0.6049800
1154.097, 9.9426001E-02
1154.579, 0.1277160
1155.061, 0.4532170
1155.543, 1.406525
1156.025, 2.169525
1156.507, 1.749390
1156.990, 0.3280640
1157.472, 0.2227480
1157.954, 0.1661380
1158.436, 0.2888790
1158.918, 0.4954220
1159.400, 1.142548
1159.882, 0.2346500
1160.364, 1.194641
1160.847, 1.900391
1161.329, 1.664459
1161.811, 1.486389
1162.293, 1.375671
1162.775, 1.253754
1163.257, 0.9843140
1163.739, 0.7957150
1164.221, 0.9008790
1164.703, 1.305695
1165.186, 2.082214
1165.668, 3.731628
1166.150, 4.511078
1166.632, 4.246948
1167.114, 3.714935
1167.596, 3.367004
1168.078, 3.174225
1168.560, 3.139038
1169.042, 3.221741
1169.525, 3.324036
1170.007, 3.735870
1170.489, 3.595795
1170.971, 2.724884
1171.453, 1.654663
1171.935, 0.6959530
1172.417, 1.3428000E-02
1172.899, 0.1318970
1173.382, 0.2653200
1173.864, 0.7762150
1174.346, 1.490143
1174.828, 1.989502
1175.310, 2.181580
1175.792, 2.193207
1176.274, 2.025513
1176.756, 1.689056
1177.239, 1.029816
1177.721, 0.1016540
1178.203, 0.2833560
1178.685, 0.6629940
1179.167, 1.585999
1179.649, 2.343781
1180.131, 2.818176
1180.613, 2.457733
1181.095, 1.547333
1181.578, 0.9909670
1182.060, 0.9166870
1182.542, 1.270630
1183.024, 2.524048
1183.506, 3.595703
1183.988, 4.087708
1184.470, 4.109436
1184.952, 3.874634
1185.434, 3.533600
1185.917, 3.793549
1186.399, 5.041931
1186.881, 5.661682
1187.363, 4.074005
1187.845, 2.503296
1188.327, 2.022369
1188.809, 2.404846
1189.291, 2.881836
1189.774, 3.472626
1190.256, 4.462891
1190.738, 6.110931
1191.220, 6.948761
1191.702, 5.431213
1192.184, 3.576996
1192.666, 2.650818
1193.148, 2.560455
1193.630, 2.615417
1194.113, 2.814575
1194.595, 3.255920
1195.077, 4.212067
1195.559, 4.980316
1196.041, 5.132996
1196.523, 4.993256
1197.005, 4.702850
1197.487, 4.299408
1197.969, 4.590576
1198.452, 5.455383
1198.934, 5.994354
1199.416, 5.597778
1199.898, 4.945984
1200.380, 3.976746
1200.862, 3.195557
1201.344, 3.271606
1201.826, 4.200928
1202.309, 4.353699
1202.791, 3.774109
1203.273, 3.121429
1203.755, 2.403870
1204.237, 2.120880
1204.719, 3.024689
1205.201, 4.202850
1205.683, 4.513580
1206.166, 3.925446
1206.648, 3.728394
1207.130, 3.995422
1207.612, 4.321136
1208.094, 4.519714
1208.576, 4.623016
1209.058, 4.842682
1209.540, 4.920105
1210.022, 4.247742
1210.505, 2.875854
1210.987, 2.651093
1211.469, 3.674866
1211.951, 4.496582
1212.433, 3.849091
1212.915, 3.093109
1213.397, 3.136871
1213.879, 3.497681
1214.361, 3.316010
1214.844, 2.630646
1215.326, 2.057098
1215.808, 1.701935
1216.290, 1.492218
1216.772, 1.202087
1217.254, 1.175171
1217.736, 1.883392
1218.218, 2.949188
1218.701, 3.682648
1219.183, 4.087158
1219.665, 4.272369
1220.147, 4.242065
1220.629, 4.135712
1221.111, 3.970245
1221.593, 3.821777
1222.075, 3.696198
1222.557, 3.632843
1223.040, 3.854767
1223.522, 4.292114
1224.004, 4.294800
1224.486, 3.709290
1224.968, 3.183258
1225.450, 3.209015
1225.932, 3.323853
1226.414, 3.389954
1226.896, 3.308319
1227.379, 2.582001
1227.861, 1.403046
1228.343, 0.8453370
1228.825, 1.240570
1229.307, 1.615662
1229.789, 1.232910
1230.271, 0.9086910
1230.753, 1.127960
1231.236, 1.691742
1231.718, 1.826477
1232.200, 1.630310
1232.682, 1.509277
1233.164, 1.584473
1233.646, 1.637177
1234.128, 1.384583
1234.610, 1.324646
1235.093, 1.885223
1235.575, 2.677765
1236.057, 2.220642
1236.539, 0.9453740
1237.021, 2.4261000E-02
1237.503, 0.2669680
1237.985, 4.7637999E-02
1238.467, 1.813782
1238.949, 3.127411
1239.432, 3.027618
1239.914, 1.956909
1240.396, 0.9485470
1240.878, 0.1149900
1241.360, 0.1878360
1241.842, 0.2460020
1242.324, 0.9366460
1242.806, 2.252716
1243.288, 2.978943
1243.771, 2.197235
1244.253, 0.7020870
1244.735, 0.6181340
1245.217, 1.470520
1245.699, 2.202942
1246.181, 2.761230
1246.663, 2.298584
1247.145, 6.5613002E-02
1247.628, 1.546448
1248.110, 8.6577997E-02
1248.592, 2.679626
1249.074, 3.286377
1249.556, 2.554138
1250.038, 2.120789
1250.520, 2.654633
1251.002, 2.795380
1251.484, 2.382324
1251.967, 1.895508
1252.449, 1.492279
1252.931, 1.310455
1253.413, 1.756866
1253.895, 2.517487
1254.377, 2.995453
1254.859, 2.832611
1255.341, 3.191498
1255.823, 4.258514
1256.306, 4.924988
1256.788, 4.174805
1257.270, 3.105194
1257.752, 3.301361
1258.234, 3.991974
1258.716, 3.830719
1259.198, 2.370453
1259.680, 1.605865
1260.163, 1.583588
1260.645, 1.825958
1261.127, 2.338593
1261.609, 2.662445
1262.091, 2.112732
1262.573, 1.258789
1263.055, 0.9123230
1263.537, 1.173798
1264.020, 1.249817
1264.502, 1.140625
1264.984, 1.088470
1265.466, 1.303955
1265.948, 1.533905
1266.430, 1.743683
1266.912, 1.778778
1267.394, 1.408997
1267.876, 0.6266780
1268.359, 0.1207580
1268.841, 9.1095001E-02
1269.323, 0.1405330
1269.805, 1.550385
1270.287, 2.720245
1270.769, 2.935516
1271.251, 2.658936
1271.733, 2.170990
1272.215, 1.530548
1272.698, 1.379669
1273.180, 1.643707
1273.662, 1.960938
1274.144, 2.537750
1274.626, 2.299286
1275.108, 1.042847
1275.590, 0.1067500
1276.072, 0.1932680
1276.555, 1.400665
1277.037, 1.562561
1277.519, 1.026886
1278.001, 0.8308410
1278.483, 1.942108
1278.965, 2.440033
1279.447, 2.070374
1279.929, 1.424866
1280.411, 0.6611330
1280.894, 9.9670000E-02
1281.376, 0.7827760
1281.858, 2.067657
1282.340, 2.468445
1282.822, 0.9129330
1283.304, 4.3030001E-02
1283.786, 9.7961001E-02
1284.268, 0.2522580
1284.750, 1.132538
1285.233, 2.205902
1285.715, 3.577881
1286.197, 4.746246
1286.679, 4.723389
1287.161, 2.936737
1287.643, 2.570068
1288.125, 3.684296
1288.607, 4.726654
1289.090, 4.766388
1289.572, 4.496521
1290.054, 4.433441
1290.536, 4.329865
1291.018, 3.754578
1291.500, 2.691742
1291.982, 2.771912
1292.464, 3.747742
1292.947, 4.069183
1293.429, 2.022003
1293.911, 0.2172550
1294.393, 3.6102001E-02
1294.875, 0.3102420
1295.357, 0.7217100
1295.839, 1.150299
1296.321, 1.370972
1296.803, 1.447998
1297.286, 1.567200
1297.768, 1.992279
1298.250, 1.935028
1298.732, 0.8781740
1299.214, 1.3672000E-02
1299.696, 0.2586060
1300.178, 0.4958800
1300.660, 0.0000000E+00
##END=



