##NAMES=Protochabourneite
##RRUFFID=R140583
##IDEAL CHEMISTRY=Tl^1+^_4-x_Pb^2+^_2+2x_Sb^3+^_20-x-y_As^3+^_y_S^2-^_34_ (with 0.02 &#8804; x &#8804; 0.34, 5.71 &#8804; y &#8804; 6.69)
##LOCALITY=Monte Arsiccio mine, Sant'Anna Di Stazzema, Stazzema, Apuan Alps, Lucca Province, Tuscany, Italy
##OWNER=RRUFF
##SOURCE=Stefan Schorn
##DESCRIPTION=Black metallic crystals
##STATUS=The identification of this mineral has been confirmed by single-crystal X-ray diffraction.
##URL=rruff.info/R140583
101.1539, 0.0000000E+00
101.6360, 1.463684
102.1181, 2.464386
102.6002, 1.889374
103.0823, 2.4231000E-02
103.5645, 0.8120120
104.0466, 0.6966860
104.5287, 0.5219120
105.0108, 3.595856
105.4929, 9.757751
105.9750, 15.86353
106.4572, 20.86780
106.9393, 25.73123
107.4214, 27.80823
107.9035, 25.47107
108.3856, 20.16257
108.8677, 16.95010
109.3499, 16.89801
109.8320, 18.11948
110.3141, 19.80014
110.7962, 22.58826
111.2783, 25.14276
111.7604, 26.95392
112.2426, 28.25684
112.7247, 30.47321
113.2068, 34.07004
113.6889, 38.52383
114.1710, 43.42828
114.6531, 50.27908
115.1353, 56.04700
115.6174, 59.47485
116.0995, 60.52591
116.5816, 61.64240
117.0637, 64.44666
117.5458, 67.53189
118.0280, 69.41214
118.5101, 67.98608
118.9922, 66.21683
119.4743, 65.76111
119.9564, 66.76874
120.4385, 68.64774
120.9207, 70.84970
121.4028, 73.68243
121.8849, 77.66779
122.3670, 85.95764
122.8491, 94.28763
123.3312, 97.48810
123.8134, 94.05215
124.2955, 89.05450
124.7776, 86.83160
125.2597, 86.93533
125.7418, 87.82901
126.2239, 88.60950
126.7061, 89.57007
127.1882, 91.32797
127.6703, 94.24301
128.1524, 97.52518
128.6345, 99.92197
129.1166, 101.5143
129.5988, 103.1987
130.0809, 106.1248
130.5630, 109.8350
131.0451, 112.3686
131.5272, 112.9460
132.0093, 112.3591
132.4915, 112.3554
132.9736, 112.9496
133.4557, 113.9491
133.9378, 115.3201
134.4199, 117.0480
134.9020, 118.5605
135.3842, 119.5032
135.8663, 120.0734
136.3484, 121.4046
136.8305, 123.4670
137.3126, 126.3687
137.7947, 130.9125
138.2769, 137.8105
138.7590, 142.6710
139.2411, 143.8869
139.7232, 141.3974
140.2053, 138.7452
140.6874, 135.8156
141.1696, 132.8517
141.6517, 130.2118
142.1338, 127.9509
142.6159, 125.9189
143.0980, 124.0292
143.5801, 122.2456
144.0623, 120.9916
144.5444, 120.4579
145.0265, 120.3879
145.5086, 120.4290
145.9907, 121.2014
146.4728, 121.2966
146.9550, 120.0825
147.4371, 116.5897
147.9192, 114.0634
148.4013, 113.2806
148.8834, 113.3867
149.3655, 112.4700
149.8477, 108.9539
150.3298, 105.7659
150.8119, 104.0321
151.2940, 105.0720
151.7761, 105.5977
152.2583, 105.1895
152.7404, 104.1596
153.2225, 103.3876
153.7046, 103.4991
154.1867, 103.4873
154.6688, 102.8954
155.1510, 101.4552
155.6331, 99.69254
156.1152, 97.55569
156.5973, 95.12521
157.0794, 92.75421
157.5615, 90.03253
158.0437, 87.66443
158.5258, 86.08441
159.0079, 85.85199
159.4900, 85.53516
159.9721, 84.41116
160.4542, 82.66449
160.9364, 81.32672
161.4185, 81.23355
161.9006, 81.52289
162.3827, 81.47742
162.8648, 80.80948
163.3469, 79.80878
163.8291, 78.47409
164.3112, 76.84930
164.7933, 75.23318
165.2754, 73.60202
165.7575, 72.11191
166.2396, 70.92215
166.7218, 70.39017
167.2039, 69.94867
167.6860, 69.01712
168.1681, 67.62991
168.6502, 66.71988
169.1323, 67.51569
169.6145, 69.04810
170.0966, 69.98511
170.5787, 69.47388
171.0608, 68.30179
171.5429, 66.92123
172.0250, 65.32413
172.5072, 64.04123
172.9893, 63.66483
173.4714, 63.85004
173.9535, 63.95807
174.4356, 63.76413
174.9177, 63.33578
175.3999, 62.62094
175.8820, 61.55179
176.3641, 60.61224
176.8462, 60.49130
177.3283, 60.89502
177.8104, 61.03702
178.2926, 60.17444
178.7747, 58.89938
179.2568, 58.21017
179.7389, 58.19327
180.2210, 58.49316
180.7031, 58.80124
181.1853, 59.11353
181.6674, 59.41721
182.1495, 59.94925
182.6316, 60.45724
183.1137, 60.17590
183.5958, 58.92578
184.0780, 57.47998
184.5601, 56.78067
185.0422, 56.78809
185.5243, 57.10315
186.0064, 57.87491
186.4885, 58.86343
186.9707, 59.05432
187.4528, 58.24814
187.9349, 57.05966
188.4170, 56.64774
188.8991, 56.94305
189.3812, 56.72937
189.8634, 55.01239
190.3455, 52.05588
190.8276, 49.57275
191.3097, 47.76929
191.7918, 46.17599
192.2739, 43.74057
192.7561, 40.37582
193.2382, 37.39917
193.7203, 35.66141
194.2024, 35.07904
194.6845, 34.51672
195.1666, 33.96005
195.6488, 33.29633
196.1309, 32.25943
196.6130, 30.79880
197.0951, 29.25467
197.5772, 27.60135
198.0593, 25.83109
198.5415, 24.89496
199.0236, 25.11545
199.5057, 25.89420
199.9878, 25.83725
200.4699, 24.81818
200.9520, 23.58975
201.4342, 22.50455
201.9163, 21.54178
202.3984, 20.93842
202.8805, 20.84464
203.3626, 20.99802
203.8447, 20.64481
204.3269, 19.61319
204.8090, 18.68420
205.2911, 18.37186
205.7732, 18.76993
206.2553, 19.15161
206.7374, 19.54340
207.2196, 19.84860
207.7017, 19.76724
208.1838, 19.18750
208.6659, 18.54117
209.1480, 18.10403
209.6301, 17.92770
210.1123, 17.84650
210.5944, 17.86487
211.0765, 17.93121
211.5586, 17.92792
212.0407, 17.84656
212.5228, 17.68555
213.0050, 17.39410
213.4871, 16.87830
213.9692, 16.47742
214.4513, 16.42953
214.9334, 16.51785
215.4155, 15.82764
215.8977, 13.91431
216.3798, 11.97354
216.8619, 10.73441
217.3440, 10.48621
217.8261, 9.989563
218.3082, 9.107330
218.7904, 8.011658
219.2725, 7.289673
219.7546, 7.345978
220.2367, 7.019165
220.7188, 5.488342
221.2009, 1.778625
221.6831, 0.4280090
222.1652, 0.4845580
222.6473, 0.8815000
223.1294, 1.544678
223.6115, 1.240387
224.0936, 0.7008970
224.5758, 0.2995910
225.0579, 0.2574460
225.5400, 0.1947630
226.0221, 1.247467
226.5042, 2.667603
226.9863, 3.809479
227.4685, 4.754456
227.9506, 5.320313
228.4327, 5.373291
228.9148, 4.648926
229.3969, 4.049255
229.8790, 3.648102
230.3612, 3.362213
230.8433, 2.956024
231.3254, 2.299988
231.8075, 1.733307
232.2896, 1.471924
232.7717, 1.844330
233.2539, 1.694550
233.7360, 0.7364810
234.2181, 0.6391600
234.7002, 1.547272
235.1823, 1.856323
235.6644, 1.870483
236.1466, 1.594116
236.6287, 0.6658020
237.1108, 0.4669800
237.5929, 1.367462
238.0750, 2.850433
238.5571, 3.838135
239.0393, 4.083618
239.5214, 4.231079
240.0035, 4.532806
240.4856, 5.102814
240.9677, 5.471375
241.4498, 5.441589
241.9320, 5.325897
242.4141, 5.707581
242.8962, 6.890991
243.3783, 8.094452
243.8604, 9.051636
244.3425, 9.688019
244.8247, 10.36127
245.3068, 10.99466
245.7889, 11.71661
246.2710, 12.72574
246.7531, 14.02457
247.2352, 15.60352
247.7174, 17.51474
248.1995, 19.81622
248.6816, 22.08728
249.1637, 24.41882
249.6458, 26.64865
250.1279, 28.55994
250.6101, 30.25626
251.0922, 31.45291
251.5743, 32.04300
252.0564, 31.99670
252.5385, 31.55453
253.0206, 30.57404
253.5028, 29.31470
253.9849, 28.17819
254.4670, 27.36707
254.9491, 26.18875
255.4312, 24.25385
255.9133, 21.49866
256.3955, 19.63345
256.8776, 19.10510
257.3597, 18.96066
257.8418, 18.13739
258.3239, 16.25150
258.8061, 14.57669
259.2882, 13.45670
259.7703, 12.87057
260.2524, 11.88617
260.7345, 10.28882
261.2166, 8.578400
261.6988, 7.143585
262.1809, 6.037659
262.6630, 5.185547
263.1451, 4.725433
263.6272, 4.571320
264.1093, 3.940765
264.5915, 2.583191
265.0736, 1.181915
265.5557, 0.3150020
266.0378, 0.2166140
266.5199, 9.9212997E-02
267.0020, 0.8391110
267.4842, 1.900330
267.9663, 2.715973
268.4484, 3.267242
268.9305, 3.619476
269.4126, 3.834015
269.8947, 3.966187
270.3769, 3.701019
270.8590, 2.825745
271.3411, 1.624969
271.8232, 1.113068
272.3053, 1.506134
272.7874, 1.933197
273.2696, 1.873260
273.7517, 1.257782
274.2338, 0.5545040
274.7159, 0.2866210
275.1980, 1.125732
275.6801, 1.553009
276.1623, 1.472107
276.6444, 1.424805
277.1265, 1.760620
277.6086, 2.523560
278.0907, 3.053070
278.5728, 3.285858
279.0550, 3.360443
279.5371, 3.449585
280.0192, 3.535645
280.5013, 3.834930
280.9834, 4.447510
281.4655, 5.373718
281.9477, 6.496277
282.4298, 7.876434
282.9119, 9.313141
283.3940, 10.46307
283.8761, 11.29901
284.3582, 12.16354
284.8404, 13.28522
285.3225, 14.58115
285.8046, 15.61389
286.2867, 16.32611
286.7688, 16.94955
287.2509, 17.73770
287.7331, 18.67667
288.2152, 19.53714
288.6973, 20.25244
289.1794, 20.85858
289.6615, 21.52676
290.1436, 22.28000
290.6258, 22.80783
291.1079, 22.74014
291.5900, 22.21954
292.0721, 21.82352
292.5542, 21.81030
293.0363, 21.85022
293.5185, 21.11102
294.0006, 19.60480
294.4827, 18.17334
294.9648, 17.48859
295.4469, 17.35980
295.9290, 17.18527
296.4112, 16.77872
296.8933, 16.41794
297.3754, 16.70081
297.8575, 17.53061
298.3396, 18.23029
298.8217, 18.19009
299.3039, 17.69077
299.7860, 17.29428
300.2681, 17.05930
300.7502, 16.95459
301.2323, 16.94446
301.7144, 17.02164
302.1966, 17.19925
302.6787, 17.52249
303.1608, 17.97034
303.6429, 18.52585
304.1250, 19.19376
304.6071, 19.90469
305.0893, 20.74945
305.5714, 21.60342
306.0535, 22.20425
306.5356, 22.39700
307.0177, 22.28769
307.4998, 21.84006
307.9820, 21.06543
308.4641, 20.43704
308.9462, 20.43188
309.4283, 20.73959
309.9104, 20.94070
310.3925, 20.78107
310.8747, 20.57065
311.3568, 20.47617
311.8389, 20.49982
312.3210, 20.67953
312.8031, 21.14764
313.2852, 21.74677
313.7674, 22.32724
314.2495, 22.81522
314.7316, 23.30676
315.2137, 24.07935
315.6958, 24.94656
316.1779, 25.28616
316.6601, 24.35995
317.1422, 23.12024
317.6243, 22.21503
318.1064, 21.95865
318.5885, 21.64426
319.0706, 20.73337
319.5528, 19.62247
320.0349, 19.08157
320.5170, 20.05759
320.9991, 21.03714
321.4812, 21.30444
321.9633, 20.59180
322.4455, 19.90488
322.9276, 19.35547
323.4097, 18.90652
323.8918, 18.57141
324.3739, 18.68875
324.8560, 18.55966
325.3382, 17.84918
325.8203, 16.47150
326.3024, 15.42838
326.7845, 15.18448
327.2666, 15.10797
327.7487, 14.70169
328.2309, 13.61365
328.7130, 12.66006
329.1951, 11.98669
329.6772, 11.53491
330.1593, 10.95947
330.6414, 10.28455
331.1236, 9.489075
331.6057, 8.514160
332.0878, 6.884460
332.5699, 5.959808
333.0520, 6.072205
333.5341, 6.839966
334.0163, 7.269928
334.4984, 7.337250
334.9805, 7.096832
335.4626, 6.514832
335.9447, 5.445587
336.4268, 4.537659
336.9090, 3.714294
337.3911, 3.108215
337.8732, 3.100861
338.3553, 3.980225
338.8374, 4.467834
339.3195, 4.006165
339.8017, 2.651733
340.2838, 1.756195
340.7659, 1.440277
341.2480, 1.265686
341.7301, 0.6295780
342.2122, 0.5229190
342.6944, 1.173035
343.1765, 0.9766240
343.6586, 0.1842040
344.1407, 0.4801940
344.6228, 1.027252
345.1049, 1.324554
345.5871, 1.061768
346.0692, 0.3492130
346.5513, 0.1059880
347.0334, 0.6194460
347.5155, 1.286896
347.9977, 0.8743290
348.4798, 0.4755250
348.9619, 1.543457
349.4440, 1.438507
349.9261, 0.5805970
350.4082, 0.1550600
350.8904, 0.7309270
351.3725, 1.114777
351.8546, 1.089783
352.3367, 0.8256530
352.8188, 0.7647090
353.3009, 1.550598
353.7831, 2.410461
354.2652, 2.251038
354.7473, 1.110168
355.2294, 5.7128999E-02
355.7115, 0.5951230
356.1936, 0.7313540
356.6758, 0.7501220
357.1579, 0.6770020
357.6400, 0.5882870
358.1221, 0.5972290
358.6042, 0.6507570
359.0863, 0.5700070
359.5685, 5.2154999E-02
360.0506, 0.5061340
360.5327, 0.7766420
361.0148, 0.5883790
361.4969, 0.4273380
361.9790, 0.6494450
362.4612, 1.009674
362.9433, 1.091461
363.4254, 0.2442320
363.9075, 0.4494930
364.3896, 0.4601140
364.8717, 0.3419490
365.3539, 1.061920
365.8360, 1.431091
366.3181, 1.677734
366.8002, 2.014404
367.2823, 2.844757
367.7644, 3.343170
368.2466, 3.120392
368.7287, 2.272247
369.2108, 1.959778
369.6929, 2.779510
370.1750, 3.609924
370.6571, 3.860504
371.1393, 3.054993
371.6214, 2.506927
372.1035, 2.290344
372.5856, 2.312927
373.0677, 2.379517
373.5498, 2.510254
374.0320, 2.649506
374.5141, 2.789581
374.9962, 2.938995
375.4783, 3.050659
375.9604, 3.178894
376.4425, 3.184784
376.9247, 2.796600
377.4068, 1.918945
377.8889, 1.260803
378.3710, 0.9888920
378.8531, 1.077820
379.3352, 1.352386
379.8174, 1.768646
380.2995, 2.660583
380.7816, 4.889587
381.2637, 8.176331
381.7458, 9.852661
382.2279, 9.230377
382.7101, 7.566589
383.1922, 7.023804
383.6743, 7.405090
384.1564, 7.390503
384.6385, 5.610138
385.1206, 3.062347
385.6028, 1.917755
386.0849, 2.357697
386.5670, 3.157562
387.0491, 3.231476
387.5312, 2.832733
388.0133, 2.463074
388.4955, 2.296906
388.9776, 2.244263
389.4597, 2.271240
389.9418, 2.362030
390.4239, 2.425385
390.9060, 2.157959
391.3882, 1.966003
391.8703, 2.320496
392.3524, 3.700104
392.8345, 4.820221
393.3166, 4.807129
393.7987, 4.107391
394.2809, 3.622986
394.7630, 3.745758
395.2451, 4.050201
395.7272, 4.428619
396.2093, 4.913818
396.6914, 5.223083
397.1736, 4.990906
397.6557, 4.684509
398.1378, 4.743805
398.6199, 6.056854
399.1020, 6.797333
399.5841, 6.404816
400.0663, 5.043121
400.5484, 4.146942
401.0305, 4.125397
401.5126, 4.277313
401.9947, 4.223053
402.4768, 3.803253
402.9590, 3.496643
403.4411, 3.286926
403.9232, 3.166809
404.4053, 3.257935
404.8874, 3.792542
405.3695, 3.945801
405.8517, 3.198975
406.3338, 1.610565
406.8159, 0.8005070
407.2980, 0.9801030
407.7801, 1.584259
408.2622, 2.061188
408.7444, 2.393585
409.2265, 2.760773
409.7086, 3.240356
410.1907, 3.679443
410.6728, 3.590973
411.1549, 3.059113
411.6371, 2.851654
412.1192, 3.827637
412.6013, 5.367737
413.0834, 6.086243
413.5655, 5.818054
414.0476, 5.215820
414.5298, 4.621582
415.0119, 4.166565
415.4940, 4.095184
415.9761, 4.788605
416.4582, 5.683136
416.9403, 6.360046
417.4225, 6.860504
417.9046, 7.228943
418.3867, 7.467590
418.8688, 7.576935
419.3509, 7.529449
419.8330, 7.205383
420.3152, 7.011810
420.7973, 7.109375
421.2794, 7.415436
421.7615, 7.803345
422.2436, 8.318665
422.7257, 8.932617
423.2079, 9.605011
423.6900, 10.31714
424.1721, 11.13458
424.6542, 12.34753
425.1363, 13.50397
425.6184, 14.25293
426.1006, 14.07260
426.5827, 14.24487
427.0648, 15.01901
427.5469, 16.22522
428.0290, 17.24591
428.5111, 18.12979
428.9933, 18.67838
429.4754, 18.61508
429.9575, 17.75720
430.4396, 17.72189
430.9217, 18.67273
431.4038, 20.07993
431.8860, 21.35922
432.3681, 22.51419
432.8502, 23.45572
433.3323, 24.12094
433.8144, 24.58908
434.2965, 25.11862
434.7787, 25.70630
435.2608, 26.10504
435.7429, 26.05746
436.2250, 25.70972
436.7071, 25.37598
437.1892, 25.07413
437.6714, 24.90140
438.1535, 25.21280
438.6356, 25.74857
439.1177, 25.90680
439.5998, 25.02673
440.0819, 23.92398
440.5641, 23.32791
441.0462, 23.19470
441.5283, 23.01660
442.0104, 22.40015
442.4925, 21.67316
442.9746, 21.10950
443.4568, 20.81329
443.9389, 20.61282
444.4210, 20.48026
444.9031, 20.39597
445.3852, 20.33060
445.8673, 20.35175
446.3495, 20.32892
446.8316, 20.25351
447.3137, 20.14343
447.7958, 19.84857
448.2779, 19.24893
448.7600, 18.57391
449.2422, 18.01770
449.7243, 17.74243
450.2064, 17.24396
450.6885, 16.34616
451.1706, 15.23669
451.6527, 14.52521
452.1349, 14.34998
452.6170, 14.05438
453.0991, 13.19815
453.5812, 11.80914
454.0633, 11.05954
454.5454, 11.00656
455.0276, 11.23477
455.5097, 11.45120
455.9918, 11.61609
456.4739, 11.44168
456.9560, 10.70471
457.4381, 9.813843
457.9203, 9.512634
458.4024, 9.676697
458.8845, 9.715424
459.3666, 9.004425
459.8488, 8.097504
460.3309, 7.682129
460.8130, 7.834717
461.2951, 8.250519
461.7772, 9.131897
462.2593, 10.02124
462.7415, 10.36145
463.2236, 9.543762
463.7057, 8.575043
464.1878, 7.731049
464.6699, 7.033203
465.1520, 6.537354
465.6342, 6.476624
466.1163, 6.467926
466.5984, 6.325928
467.0805, 5.948334
467.5626, 5.705475
468.0447, 5.579468
468.5269, 5.618118
469.0090, 5.890884
469.4911, 6.567581
469.9732, 7.047043
470.4553, 7.169449
470.9374, 7.049728
471.4196, 7.219086
471.9017, 7.759506
472.3838, 8.346924
472.8659, 8.842758
473.3480, 9.198853
473.8301, 9.273636
474.3123, 9.032776
474.7944, 8.646286
475.2765, 8.218521
475.7586, 7.792007
476.2407, 7.580490
476.7228, 7.675018
477.2050, 7.993912
477.6871, 8.528931
478.1692, 9.221100
478.6513, 9.794540
479.1334, 10.05330
479.6155, 10.13686
480.0977, 10.16853
480.5798, 10.14044
481.0619, 10.09225
481.5440, 9.924103
482.0261, 9.830154
482.5082, 10.04433
482.9904, 11.21198
483.4725, 12.06248
483.9546, 12.16110
484.4367, 11.57584
484.9188, 10.73512
485.4009, 9.272644
485.8831, 7.955994
486.3652, 7.072433
486.8473, 6.656662
487.3294, 6.438675
487.8115, 6.566132
488.2936, 6.725204
488.7758, 6.558228
489.2579, 5.942230
489.7400, 5.615601
490.2221, 5.666504
490.7042, 5.881729
491.1863, 6.116592
491.6685, 6.403900
492.1506, 6.488113
492.6327, 6.006409
493.1148, 5.121231
493.5969, 4.981720
494.0790, 5.679794
494.5612, 6.376434
495.0433, 6.030319
495.5254, 5.062332
496.0075, 4.408844
496.4896, 4.415863
496.9717, 4.722168
497.4539, 5.238708
497.9360, 5.796555
498.4181, 5.973633
498.9002, 5.126648
499.3823, 4.185867
499.8644, 3.706528
500.3466, 3.739487
500.8287, 3.988373
501.3108, 4.770920
501.7929, 5.484222
502.2750, 5.669647
502.7571, 4.542786
503.2393, 3.809158
503.7214, 3.727402
504.2035, 4.032806
504.6856, 4.171356
505.1677, 4.067551
505.6498, 3.933655
506.1320, 3.817566
506.6141, 3.718430
507.0962, 3.711792
507.5783, 3.850616
508.0604, 3.924698
508.5425, 3.683548
509.0247, 3.186371
509.5068, 2.886536
509.9889, 2.840714
510.4710, 2.926651
510.9531, 3.014954
511.4352, 3.089584
511.9174, 3.076187
512.3995, 2.903198
512.8816, 2.648392
513.3637, 2.405121
513.8458, 2.160873
514.3279, 1.850540
514.8101, 1.170258
515.2922, 0.5640720
515.7743, 0.4692380
516.2564, 1.121872
516.7385, 1.671844
517.2206, 1.726471
517.7028, 1.553040
518.1849, 1.457581
518.6670, 1.719086
519.1491, 1.793152
519.6312, 1.497284
520.1133, 0.9373930
520.5955, 0.5251310
521.0776, 0.2215580
521.5597, 0.1653290
522.0418, 0.5680080
522.5239, 1.534317
523.0060, 1.784271
523.4882, 1.154968
523.9703, 0.2736050
524.4524, 0.1979520
524.9345, 0.2810360
525.4166, 0.4263460
525.8987, 0.8191380
526.3809, 1.148209
526.8630, 0.7292180
527.3451, 0.2466430
527.8272, 0.9961550
528.3093, 1.030106
528.7914, 0.6861570
529.2736, 0.1222380
529.7557, 0.6165620
530.2378, 0.9393010
530.7199, 0.1308290
531.2020, 1.005173
531.6841, 1.837921
532.1663, 2.310303
532.6484, 2.356659
533.1305, 1.600143
533.6126, 0.5197750
534.0947, 0.2090450
534.5768, 0.3260800
535.0590, 0.3152160
535.5411, 0.1581570
536.0232, 0.1021120
536.5053, 0.1285860
536.9874, 0.2085570
537.4695, 0.4769440
537.9517, 0.3615420
538.4338, 0.1748050
538.9159, 0.2924800
539.3980, 8.3572000E-02
539.8801, 0.5789640
540.3622, 0.8425450
540.8444, 0.8771210
541.3265, 0.6357420
541.8086, 4.7302000E-02
542.2907, 0.6912990
542.7728, 0.5143280
543.2549, 0.2372440
543.7371, 0.8490300
544.2192, 0.9147640
544.7013, 0.7346650
545.1834, 0.3753970
545.6655, 0.1245270
546.1476, 0.2884670
546.6298, 0.8000790
547.1119, 1.799454
547.5940, 1.684448
548.0761, 0.6956790
548.5582, 2.098953
549.0403, 1.597321
549.5225, 0.3466490
550.0046, 0.2635190
550.4867, 0.1320800
550.9688, 0.4151610
551.4509, 0.3338010
551.9330, 1.9623000E-02
552.4152, 1.0071000E-02
552.8973, 0.3652190
553.3794, 0.6433720
553.8615, 0.5200500
554.3436, 9.4085999E-02
554.8257, 6.7290999E-02
555.3079, 4.7318000E-02
555.7900, 0.2345890
556.2721, 0.3273770
556.7542, 0.3609310
557.2363, 0.3725430
557.7184, 0.3245540
558.2006, 0.3944400
558.6827, 0.8700560
559.1648, 1.535110
559.6469, 2.031525
560.1290, 2.165146
560.6111, 2.163589
561.0933, 2.096191
561.5754, 1.966156
562.0575, 1.770172
562.5396, 1.356476
563.0217, 1.019165
563.5038, 0.8930510
563.9860, 1.041031
564.4681, 1.104935
564.9502, 1.085434
565.4323, 0.9799800
565.9144, 0.6533200
566.3965, 4.0298000E-02
566.8787, 5.9586000E-02
567.3608, 1.032196
567.8429, 2.311981
568.3250, 2.684174
568.8071, 2.292648
569.2892, 1.878754
569.7714, 1.764633
570.2535, 1.815277
570.7356, 1.858353
571.2177, 1.905609
571.6998, 2.012604
572.1819, 2.374008
572.6641, 2.694550
573.1462, 2.666321
573.6283, 2.155121
574.1104, 1.843765
574.5925, 2.104462
575.0746, 2.558945
575.5568, 2.866013
576.0389, 2.739548
576.5210, 2.832764
577.0031, 3.354721
577.4852, 4.035675
577.9673, 4.293274
578.4495, 4.028641
578.9316, 3.656448
579.4137, 3.183487
579.8958, 2.728058
580.3779, 3.023453
580.8600, 4.112320
581.3422, 4.843903
581.8243, 3.965927
582.3064, 2.223572
582.7885, 1.342636
583.2706, 1.465012
583.7527, 2.072723
584.2349, 3.175781
584.7170, 4.383881
585.1991, 5.154114
585.6812, 5.165359
586.1633, 4.989136
586.6454, 4.734848
587.1276, 4.472855
587.6097, 4.318878
588.0918, 4.513153
588.5739, 4.622101
589.0560, 4.397446
589.5381, 3.918396
590.0203, 3.833679
590.5024, 4.297821
590.9845, 4.860306
591.4666, 5.394547
591.9487, 5.901627
592.4308, 5.831070
592.9130, 5.078430
593.3951, 4.374969
593.8772, 4.587921
594.3593, 5.450577
594.8414, 6.081528
595.3235, 6.276382
595.8057, 6.352310
596.2878, 6.666077
596.7699, 7.071823
597.2520, 7.310837
597.7341, 7.174484
598.2162, 6.925385
598.6984, 6.645035
599.1805, 6.370789
599.6626, 6.188431
600.1447, 5.806717
600.6268, 5.762695
601.1089, 6.446075
601.5911, 7.954880
602.0732, 8.621201
602.5553, 8.035751
603.0374, 7.307205
603.5195, 7.364334
604.0016, 8.301727
604.4838, 8.448990
604.9659, 7.526672
605.4480, 6.389587
605.9301, 6.258926
606.4122, 6.846985
606.8943, 7.321854
607.3765, 7.411179
607.8586, 7.251862
608.3407, 6.992813
608.8228, 6.680344
609.3049, 6.452866
609.7870, 6.428024
610.2692, 6.453110
610.7513, 6.472672
611.2334, 6.483276
611.7155, 6.476532
612.1976, 6.367325
612.6797, 6.283432
613.1619, 6.309952
613.6440, 6.480667
614.1261, 6.572571
614.6082, 6.578140
615.0903, 6.535049
615.5724, 6.471451
616.0546, 6.391251
616.5367, 6.319748
617.0188, 6.281891
617.5009, 6.223572
617.9830, 5.915543
618.4651, 5.441666
618.9473, 5.247314
619.4294, 5.748962
619.9115, 6.375809
620.3936, 6.453766
620.8757, 6.090591
621.3578, 5.766418
621.8400, 5.699005
622.3221, 5.766815
622.8042, 5.992050
623.2863, 6.379852
623.7684, 6.564850
624.2505, 6.309113
624.7327, 6.024353
625.2148, 5.954681
625.6969, 6.182068
626.1790, 6.115967
626.6611, 5.594254
627.1432, 5.089127
627.6254, 5.211578
628.1075, 5.927856
628.5896, 6.489105
629.0717, 6.741867
629.5538, 6.819977
630.0359, 6.889023
630.5181, 6.928970
631.0002, 6.876587
631.4823, 6.214737
631.9644, 5.936127
632.4465, 7.549042
632.9286, 10.25377
633.4108, 11.52069
633.8929, 8.925873
634.3750, 6.255875
634.8571, 5.135376
635.3392, 5.677780
635.8214, 5.854919
636.3035, 5.380814
636.7856, 4.899200
637.2677, 4.844696
637.7498, 5.317886
638.2319, 5.541885
638.7141, 5.505264
639.1962, 5.302582
639.6783, 4.927155
640.1604, 4.476105
640.6425, 4.177414
641.1246, 4.013245
641.6068, 4.068848
642.0889, 4.684891
642.5710, 5.561859
643.0531, 6.140182
643.5352, 6.092651
644.0173, 5.794388
644.4995, 5.258194
644.9816, 4.589569
645.4637, 4.039444
645.9458, 3.617172
646.4279, 3.446152
646.9100, 3.564575
647.3922, 3.915741
647.8743, 4.012329
648.3564, 3.766235
648.8385, 3.709366
649.3206, 4.405014
649.8027, 5.678772
650.2849, 5.847046
650.7670, 4.863937
651.2491, 3.731644
651.7312, 3.299088
652.2133, 3.350632
652.6954, 3.566666
653.1776, 3.922653
653.6597, 4.281143
654.1418, 4.588730
654.6239, 4.861343
655.1060, 5.125214
655.5881, 5.645508
656.0703, 5.821777
656.5524, 5.267334
657.0345, 4.386230
657.5166, 3.759491
657.9987, 3.410522
658.4808, 3.285797
658.9630, 3.409851
659.4451, 3.690384
659.9272, 3.860245
660.4093, 3.938248
660.8914, 3.852417
661.3735, 3.318497
661.8557, 2.670212
662.3378, 2.734467
662.8199, 3.420456
663.3020, 3.807922
663.7841, 2.795456
664.2662, 1.588501
664.7484, 1.218079
665.2305, 1.930191
665.7126, 2.648499
666.1947, 3.224487
666.6768, 3.629089
667.1589, 3.859985
667.6411, 3.945908
668.1232, 3.718735
668.6053, 3.022430
669.0874, 2.231522
669.5695, 1.782562
670.0516, 1.669540
670.5338, 1.763855
671.0159, 2.103256
671.4980, 2.513336
671.9801, 2.762909
672.4622, 2.860474
672.9443, 2.821716
673.4265, 2.660553
673.9086, 2.404312
674.3907, 1.918213
674.8728, 1.329697
675.3549, 1.016312
675.8370, 1.565903
676.3192, 1.946014
676.8013, 1.578674
677.2834, 0.5658420
677.7655, 0.2283330
678.2476, 0.8560640
678.7297, 1.566971
679.2119, 1.927048
679.6940, 1.952209
680.1761, 1.872879
680.6582, 1.679047
681.1403, 1.470276
681.6224, 1.300262
682.1046, 1.180450
682.5867, 1.129623
683.0688, 1.149094
683.5509, 1.244217
684.0330, 1.572769
684.5151, 1.902664
684.9973, 1.987534
685.4794, 1.559616
685.9615, 1.260391
686.4436, 1.255493
686.9257, 1.397446
687.4078, 1.522934
687.8900, 1.624664
688.3721, 1.763443
688.8542, 1.996552
689.3363, 2.211075
689.8184, 2.149826
690.3005, 1.826401
690.7827, 1.381012
691.2648, 0.7640690
691.7469, 0.1597140
692.2290, 0.2061770
692.7111, 0.3446960
693.1932, 0.2620700
693.6754, 0.2286990
694.1575, 0.7583620
694.6396, 1.145645
695.1217, 1.383575
695.6038, 1.527817
696.0859, 1.674118
696.5681, 1.604858
697.0502, 1.099503
697.5323, 0.1174620
698.0144, 0.1831820
698.4965, 0.3766940
698.9786, 0.9841920
699.4608, 0.9397580
699.9429, 0.4130860
700.4250, 0.1404270
700.9071, 0.1650850
701.3892, 0.3646090
701.8713, 0.9697880
702.3535, 1.541077
702.8356, 1.399811
703.3177, 9.7961001E-02
703.7998, 0.9007260
704.2819, 0.6982730
704.7640, 6.8787001E-02
705.2462, 0.1373600
705.7283, 0.6126400
706.2104, 0.9556270
706.6925, 0.6636050
707.1746, 9.8601997E-02
707.6567, 0.1634830
708.1389, 9.9395998E-02
708.6210, 5.3679999E-02
709.1031, 0.2838440
709.5852, 0.5046080
710.0673, 0.5165710
710.5494, 0.3863220
711.0316, 0.3140560
711.5137, 0.4163820
711.9958, 0.5914000
712.4779, 0.9775700
712.9600, 1.404877
713.4421, 1.355927
713.9243, 0.1542050
714.4064, 1.243530
714.8885, 1.139160
715.3706, 3.0060001E-02
715.8527, 0.5321660
716.3348, 0.3519590
716.8170, 0.2102970
717.2991, 0.6283570
717.7812, 1.419861
718.2633, 1.478119
718.7454, 0.8220830
719.2275, 0.2110290
719.7097, 0.2497560
720.1918, 0.5761720
720.6739, 0.7697750
721.1560, 0.8039860
721.6381, 0.8332820
722.1202, 0.9116820
722.6024, 1.022095
723.0845, 1.141113
723.5666, 1.311707
724.0487, 1.389069
724.5308, 1.423309
725.0129, 1.306488
725.4951, 0.8370360
725.9772, 2.6825000E-02
726.4593, 0.4807740
726.9414, 0.4311830
727.4235, 0.1003420
727.9056, 0.3905940
728.3878, 0.9423830
728.8699, 1.380707
729.3520, 1.730133
729.8341, 1.786469
730.3162, 1.070953
730.7983, 0.1153560
731.2805, 0.4248660
731.7626, 0.2450260
732.2447, 0.5048220
732.7268, 1.7670000E-02
733.2089, 0.8457340
733.6910, 1.551575
734.1732, 2.113007
734.6553, 2.365051
735.1374, 2.173187
735.6195, 1.759644
736.1016, 1.459961
736.5837, 1.294250
737.0659, 1.359680
737.5480, 1.900848
738.0301, 2.458984
738.5122, 2.535248
738.9943, 2.288574
739.4764, 2.128418
739.9586, 2.485046
740.4407, 2.646088
740.9228, 2.027863
741.4049, 0.9414670
741.8870, 0.9393310
742.3691, 2.556915
742.8513, 3.779846
743.3334, 3.648865
743.8155, 2.551636
744.2976, 2.093353
744.7797, 2.260559
745.2618, 2.668823
745.7440, 3.378448
746.2261, 4.020447
746.7082, 3.996704
747.1903, 3.380676
747.6724, 3.002991
748.1545, 3.369202
748.6367, 3.945740
749.1188, 4.571411
749.6009, 5.278687
750.0830, 5.394409
750.5651, 4.633057
751.0472, 3.859711
751.5294, 3.622192
752.0115, 3.898865
752.4936, 4.178223
752.9757, 4.453308
753.4578, 4.738403
753.9399, 5.155762
754.4221, 5.543427
754.9042, 5.519501
755.3863, 4.970917
755.8684, 4.664124
756.3505, 5.179657
756.8326, 6.031403
757.3148, 6.889557
757.7969, 7.874298
758.2790, 8.346008
758.7611, 8.003967
759.2432, 7.602295
759.7253, 7.845947
760.2075, 8.738983
760.6896, 9.587799
761.1717, 10.35831
761.6538, 10.87015
762.1359, 10.79810
762.6180, 10.51211
763.1002, 10.65701
763.5823, 11.43619
764.0644, 12.23480
764.5465, 12.80997
765.0286, 13.25562
765.5107, 13.63516
765.9929, 13.81271
766.4750, 14.11771
766.9571, 14.53513
767.4392, 15.10452
767.9213, 15.92935
768.4034, 17.02661
768.8856, 18.16278
769.3677, 19.31927
769.8498, 20.36029
770.3319, 21.03177
770.8140, 21.45618
771.2961, 21.89645
771.7783, 22.30917
772.2604, 23.06641
772.7425, 24.84354
773.2246, 26.96808
773.7067, 28.41461
774.1888, 28.42096
774.6710, 28.80826
775.1531, 29.92163
775.6352, 31.27744
776.1173, 31.93137
776.5994, 31.88361
777.0815, 32.26254
777.5637, 33.38574
778.0458, 34.89899
778.5279, 36.42770
779.0100, 37.96417
779.4921, 39.48477
779.9742, 40.90118
780.4564, 42.35797
780.9385, 43.99835
781.4206, 45.71921
781.9027, 47.29724
782.3848, 48.48245
782.8669, 49.93558
783.3491, 51.92010
783.8312, 54.14832
784.3133, 55.76059
784.7954, 56.77100
785.2775, 58.01141
785.7596, 59.81580
786.2418, 61.86703
786.7239, 63.81192
787.2060, 65.64966
787.6881, 67.44693
788.1702, 69.04129
788.6523, 70.78339
789.1345, 72.86499
789.6166, 75.17072
790.0987, 77.44122
790.5808, 79.70441
791.0629, 81.83670
791.5450, 83.76089
792.0272, 85.55609
792.5093, 87.35190
792.9914, 89.16431
793.4735, 90.89941
793.9556, 92.42218
794.4377, 93.98257
794.9199, 96.10291
795.4020, 98.53708
795.8841, 100.5396
796.3662, 101.1122
796.8483, 101.9971
797.3304, 104.4056
797.8126, 107.6117
798.2947, 109.1461
798.7768, 108.3623
799.2589, 107.7267
799.7410, 107.9823
800.2231, 108.8106
800.7053, 109.4229
801.1874, 109.8559
801.6695, 110.3336
802.1516, 111.3008
802.6337, 112.0549
803.1158, 111.7854
803.5980, 110.7902
804.0801, 109.8770
804.5622, 109.3284
805.0443, 108.8649
805.5264, 108.5670
806.0085, 108.2751
806.4907, 107.3976
806.9728, 105.8093
807.4549, 104.2544
807.9370, 102.9886
808.4191, 101.8754
808.9012, 100.6393
809.3834, 99.31070
809.8655, 97.99890
810.3476, 96.59851
810.8297, 95.38135
811.3118, 94.95633
811.7939, 94.88788
812.2761, 93.85651
812.7582, 90.67819
813.2403, 87.95074
813.7224, 86.41174
814.2045, 85.55560
814.6866, 83.76312
815.1688, 81.05032
815.6509, 78.49286
816.1330, 76.46109
816.6151, 74.82828
817.0972, 73.57224
817.5793, 72.57303
818.0615, 71.48792
818.5436, 70.24219
819.0257, 68.81216
819.5078, 66.95557
819.9899, 64.92569
820.4720, 63.50323
820.9542, 63.20108
821.4363, 62.23129
821.9184, 59.95618
822.4005, 57.06445
822.8826, 55.13400
823.3647, 54.01627
823.8469, 52.95667
824.3290, 51.64575
824.8111, 50.30829
825.2932, 49.20081
825.7753, 48.18951
826.2574, 47.04514
826.7396, 45.46097
827.2217, 44.01550
827.7038, 42.77100
828.1859, 41.72552
828.6681, 40.87292
829.1502, 40.24088
829.6323, 39.68243
830.1144, 39.22223
830.5966, 38.70554
831.0787, 37.77908
831.5608, 36.60193
832.0429, 35.52362
832.5250, 34.65088
833.0071, 33.94623
833.4893, 33.69922
833.9714, 33.50821
834.4535, 32.65610
834.9356, 30.40857
835.4177, 28.93365
835.8998, 28.62097
836.3820, 28.86728
836.8641, 28.95004
837.3462, 28.83691
837.8283, 28.14520
838.3104, 26.63647
838.7925, 25.14554
839.2747, 24.62885
839.7568, 24.58511
840.2389, 24.31458
840.7210, 23.48715
841.2031, 22.69647
841.6852, 22.12595
842.1674, 21.60449
842.6495, 20.92023
843.1316, 19.98804
843.6137, 19.47049
844.0958, 19.48666
844.5779, 19.63745
845.0601, 19.61209
845.5422, 19.33490
846.0243, 18.68225
846.5064, 17.58246
846.9885, 16.55121
847.4706, 15.57303
847.9528, 14.92221
848.4349, 14.91974
848.9170, 15.84940
849.3991, 16.59415
849.8812, 17.29968
850.3633, 17.57306
850.8455, 16.60123
851.3276, 14.68253
851.8097, 14.34799
852.2918, 15.77750
852.7739, 17.15872
853.2560, 16.81369
853.7382, 15.81808
854.2203, 15.26956
854.7024, 15.38828
855.1845, 15.19287
855.6666, 13.93692
856.1487, 12.82651
856.6309, 12.54379
857.1130, 13.12296
857.5951, 13.37781
858.0772, 13.27356
858.5593, 13.12582
859.0414, 13.17496
859.5236, 13.32642
860.0057, 13.37225
860.4878, 13.30240
860.9699, 13.26422
861.4520, 13.42804
861.9341, 13.53265
862.4163, 13.37039
862.8984, 12.99576
863.3805, 12.91949
863.8626, 13.29715
864.3447, 13.53925
864.8268, 13.35040
865.3090, 12.91684
865.7911, 12.63220
866.2732, 12.46143
866.7553, 12.39719
867.2374, 12.65222
867.7195, 12.87753
868.2017, 12.70999
868.6838, 12.24493
869.1659, 11.92270
869.6480, 11.89609
870.1301, 11.84875
870.6122, 11.76737
871.0944, 11.60638
871.5765, 11.19476
872.0586, 10.56049
872.5407, 9.945923
873.0228, 9.390503
873.5049, 8.983765
873.9871, 8.938934
874.4692, 9.058136
874.9513, 9.036774
875.4334, 8.745453
875.9155, 8.364441
876.3976, 7.783539
876.8798, 7.246246
877.3619, 7.126160
877.8440, 7.463135
878.3261, 7.420959
878.8082, 6.844025
879.2903, 6.174561
879.7725, 5.784393
880.2546, 5.635437
880.7367, 5.743011
881.2188, 6.188202
881.7009, 6.470886
882.1830, 6.461670
882.6652, 6.167786
883.1473, 5.541260
883.6294, 4.477783
884.1115, 3.725891
884.5936, 3.290985
885.0757, 3.149963
885.5579, 3.453430
886.0400, 3.981659
886.5221, 4.368073
887.0042, 4.582947
887.4863, 4.503418
887.9684, 3.669220
888.4506, 2.881195
888.9327, 2.701294
889.4148, 3.083221
889.8969, 3.129761
890.3790, 2.716278
890.8611, 2.342743
891.3433, 2.235809
891.8254, 2.290588
892.3075, 2.255432
892.7896, 2.131775
893.2717, 1.944946
893.7538, 1.444427
894.2360, 1.132446
894.7181, 1.590912
895.2002, 2.451569
895.6823, 2.704407
896.1644, 1.887909
896.6465, 1.353394
897.1287, 1.420593
897.6108, 1.731903
898.0929, 1.564209
898.5750, 1.041687
899.0571, 0.7528690
899.5392, 0.8911740
900.0214, 1.172363
900.5035, 1.710663
900.9856, 2.104828
901.4677, 1.843018
901.9498, 1.4650000E-03
902.4319, 0.9352720
902.9141, 0.5236510
903.3962, 0.1553960
903.8783, 2.7283000E-02
904.3604, 0.8092040
904.8425, 1.363495
905.3246, 1.577271
905.8068, 1.591156
906.2889, 1.379059
906.7710, 1.130127
907.2531, 1.059631
907.7352, 1.206238
908.2173, 1.213623
908.6995, 0.8520510
909.1816, 0.6020200
909.6637, 0.7411190
910.1458, 1.182098
910.6279, 1.264862
911.1100, 1.009857
911.5922, 0.8479000
912.0743, 1.235260
912.5564, 1.666840
913.0385, 1.489349
913.5206, 0.9136050
914.0027, 0.5911560
914.4849, 0.9255680
914.9670, 1.250732
915.4491, 1.424255
915.9312, 1.531860
916.4133, 1.828613
916.8954, 2.307343
917.3776, 2.493103
917.8597, 2.238770
918.3418, 1.770538
918.8239, 1.247955
919.3060, 0.7047120
919.7881, 0.1657100
920.2703, 0.5115970
920.7524, 0.8548890
921.2345, 0.6497500
921.7166, 0.2585750
922.1987, 9.3597002E-02
922.6808, 0.4155580
923.1630, 0.3742980
923.6451, 7.4828997E-02
924.1272, 0.4638980
924.6093, 7.4097000E-02
925.0914, 0.4014890
925.5735, 6.5000001E-03
926.0557, 1.341095
926.5378, 2.359711
927.0199, 2.603485
927.5020, 2.562927
927.9841, 2.285400
928.4662, 1.856445
928.9484, 1.790924
929.4305, 2.085480
929.9126, 2.566681
930.3947, 3.261261
930.8768, 3.986420
931.3589, 4.627655
931.8411, 5.122650
932.3232, 5.319244
932.8053, 4.532471
933.2874, 4.336823
933.7695, 5.317078
934.2516, 6.678589
934.7338, 7.083038
935.2159, 6.539093
935.6980, 6.436737
936.1801, 7.045654
936.6622, 7.850708
937.1443, 8.293884
937.6265, 8.645142
938.1086, 9.241760
938.5907, 10.20410
939.0728, 11.17023
939.5549, 12.07513
940.0370, 12.96234
940.5192, 13.87079
941.0013, 14.77872
941.4834, 15.46701
941.9655, 15.95435
942.4476, 16.45593
942.9297, 16.95236
943.4119, 17.62363
943.8940, 18.87567
944.3761, 20.61407
944.8582, 22.19427
945.3403, 23.42816
945.8224, 24.52960
946.3046, 25.52032
946.7867, 26.42770
947.2688, 27.20071
947.7509, 27.88043
948.2330, 28.85129
948.7151, 30.28696
949.1973, 31.88809
949.6794, 33.64325
950.1615, 35.29227
950.6436, 36.47751
951.1257, 36.59418
951.6078, 37.36505
952.0900, 39.12402
952.5721, 41.00732
953.0542, 42.22388
953.5363, 42.89880
954.0184, 43.81943
954.5005, 45.00244
954.9827, 46.21454
955.4648, 47.50568
955.9469, 48.56216
956.4290, 49.04669
956.9111, 48.99020
957.3932, 49.09518
957.8754, 49.44788
958.3575, 49.83612
958.8396, 50.27020
959.3217, 50.60632
959.8038, 50.43515
960.2859, 49.81815
960.7681, 49.13620
961.2502, 48.39951
961.7323, 47.80167
962.2144, 47.59811
962.6965, 47.49310
963.1786, 47.10477
963.6608, 46.31833
964.1429, 45.61951
964.6250, 45.04889
965.1071, 44.52417
965.5892, 44.06500
966.0714, 43.57645
966.5535, 42.77567
967.0356, 41.64963
967.5177, 40.51587
967.9998, 39.69635
968.4819, 38.73853
968.9641, 37.19009
969.4462, 35.21259
969.9283, 34.10632
970.4104, 34.02005
970.8925, 33.64560
971.3746, 32.31915
971.8568, 30.63748
972.3389, 29.44916
972.8210, 28.57214
973.3031, 27.62112
973.7852, 26.31906
974.2673, 25.11423
974.7495, 24.13782
975.2316, 23.23868
975.7137, 22.27649
976.1958, 21.25739
976.6779, 20.29141
977.1600, 19.40305
977.6422, 18.38977
978.1243, 16.81168
978.6064, 15.14590
979.0885, 13.89447
979.5706, 13.10291
980.0527, 12.46780
980.5349, 12.08954
981.0170, 11.66476
981.4991, 11.11508
981.9812, 10.44376
982.4633, 9.558624
982.9454, 8.498047
983.4276, 7.619659
983.9097, 7.156311
984.3918, 6.791321
984.8739, 6.281342
985.3560, 5.717377
985.8381, 5.234375
986.3203, 4.750488
986.8024, 4.581390
987.2845, 4.861725
987.7666, 5.187378
988.2487, 5.148712
988.7308, 4.817719
989.2130, 4.274109
989.6951, 3.545807
990.1772, 3.056458
990.6593, 3.310791
991.1414, 3.604279
991.6235, 3.499115
992.1057, 3.076965
992.5878, 2.844147
993.0699, 2.828796
993.5520, 2.745026
994.0341, 2.432281
994.5162, 2.089386
994.9984, 2.096497
995.4805, 2.266388
995.9626, 2.243134
996.4447, 1.799408
996.9268, 1.347198
997.4089, 0.8097230
997.8911, 0.4523930
998.3732, 0.7555850
998.8553, 1.673431
999.3374, 1.450256
999.8195, 5.6759999E-03
1000.302, 1.186829
1000.784, 0.7160030
1001.266, 0.2324830
1001.748, 0.6577760
1002.230, 0.5757750
1002.712, 0.7597050
1003.194, 1.506500
1003.676, 1.913879
1004.159, 1.590302
1004.641, 1.002228
1005.123, 1.264526
1005.605, 2.068573
1006.087, 2.445770
1006.569, 1.964447
1007.051, 1.430328
1007.533, 1.218109
1008.016, 1.156647
1008.498, 1.042511
1008.980, 0.8040770
1009.462, 1.080933
1009.944, 1.979126
1010.426, 2.649536
1010.908, 2.226563
1011.390, 1.349792
1011.872, 0.6898500
1012.355, 0.3070370
1012.837, 0.3421630
1013.319, 1.453491
1013.801, 2.177185
1014.283, 2.114868
1014.765, 1.604126
1015.247, 1.206787
1015.729, 0.9185180
1016.211, 0.7252500
1016.694, 0.6126710
1017.176, 0.6628110
1017.658, 1.117157
1018.140, 1.654236
1018.622, 2.017181
1019.104, 2.196930
1019.586, 2.030823
1020.068, 1.348114
1020.551, 0.9057010
1021.033, 1.257690
1021.515, 2.037598
1021.997, 2.520355
1022.479, 2.733429
1022.961, 2.752289
1023.443, 2.649017
1023.925, 2.288361
1024.407, 1.193268
1024.890, 0.1238710
1025.372, 0.1995850
1025.854, 1.463470
1026.336, 2.187897
1026.818, 2.170135
1027.300, 2.069763
1027.782, 2.593353
1028.264, 3.226532
1028.746, 3.503479
1029.229, 3.388489
1029.711, 3.080109
1030.193, 2.311310
1030.675, 2.019836
1031.157, 2.703613
1031.639, 3.844177
1032.121, 4.299896
1032.603, 4.220856
1033.086, 4.049500
1033.568, 3.894165
1034.050, 3.755463
1034.532, 3.700012
1035.014, 3.615875
1035.496, 3.342468
1035.978, 2.797119
1036.460, 2.812164
1036.943, 3.431427
1037.425, 3.938690
1037.907, 3.689575
1038.389, 3.149384
1038.871, 2.673798
1039.353, 2.323517
1039.835, 2.315247
1040.317, 2.888031
1040.799, 3.474915
1041.281, 4.029999
1041.764, 4.504944
1042.246, 4.805817
1042.728, 4.967957
1043.210, 5.103516
1043.692, 5.244629
1044.174, 5.299133
1044.656, 5.170959
1045.138, 4.977783
1045.621, 4.791260
1046.103, 4.612854
1046.585, 4.423248
1047.067, 4.223541
1047.549, 4.006195
1048.031, 3.672119
1048.513, 3.449097
1048.995, 3.836121
1049.478, 4.470215
1049.960, 4.731873
1050.442, 4.119751
1050.924, 3.633026
1051.406, 3.278107
1051.888, 3.064697
1052.370, 3.057495
1052.852, 3.193359
1053.334, 3.278931
1053.817, 3.300232
1054.299, 3.212524
1054.781, 2.603790
1055.263, 2.297943
1055.745, 2.990601
1056.227, 4.172546
1056.709, 4.604736
1057.191, 4.236664
1057.673, 3.789856
1058.156, 3.337463
1058.638, 3.021057
1059.120, 3.026276
1059.602, 3.086334
1060.084, 2.941071
1060.566, 2.511292
1061.048, 2.050293
1061.530, 1.404053
1062.013, 1.131622
1062.495, 1.757538
1062.977, 2.750793
1063.459, 2.573456
1063.941, 1.634613
1064.423, 1.114014
1064.905, 1.816284
1065.387, 2.542480
1065.870, 3.112213
1066.352, 3.391205
1066.834, 3.102814
1067.316, 2.246399
1067.798, 1.837891
1068.280, 1.906647
1068.762, 2.033875
1069.244, 1.891846
1069.726, 1.702728
1070.208, 1.677551
1070.691, 1.758728
1071.173, 1.819000
1071.655, 1.887756
1072.137, 1.840820
1072.619, 1.616882
1073.101, 1.362885
1073.583, 1.184113
1074.065, 1.149536
1074.548, 1.413269
1075.030, 2.033356
1075.512, 2.704315
1075.994, 3.746124
1076.476, 4.227112
1076.958, 3.603821
1077.440, 2.220398
1077.922, 1.193054
1078.405, 0.5135500
1078.887, 0.1854550
1079.369, 0.2588810
1079.851, 0.5839230
1080.333, 1.573547
1080.815, 2.444733
1081.297, 2.239227
1081.779, 0.6287540
1082.261, 6.9793999E-02
1082.744, 0.1903080
1083.226, 0.5756840
1083.708, 0.5001830
1084.190, 0.2238460
1084.672, 0.1888120
1085.154, 0.5829770
1085.636, 0.3978580
1086.118, 1.043854
1086.601, 1.714081
1087.083, 1.155975
1087.565, 0.2838440
1088.047, 0.3426510
1088.529, 0.9218750
1089.011, 1.137329
1089.493, 0.8908690
1089.975, 0.6424260
1090.458, 0.5902710
1090.940, 0.5955810
1091.422, 0.5445250
1091.904, 0.4337770
1092.386, 0.5602110
1092.868, 0.8809810
1093.350, 0.9877620
1093.832, 0.6252750
1094.314, 0.3244930
1094.797, 0.6588440
1095.279, 1.073059
1095.761, 0.9595950
1096.243, 0.2571720
1096.725, 7.4463002E-02
1097.207, 0.4497380
1097.689, 0.9418330
1098.171, 1.511993
1098.653, 1.868347
1099.136, 1.376068
1099.618, 0.4898680
1100.100, 0.1157840
1100.582, 0.8815310
1101.064, 1.334076
1101.546, 1.338257
1102.028, 1.179169
1102.510, 1.070618
1102.993, 1.001434
1103.475, 0.9892270
1103.957, 1.013000
1104.439, 0.9375310
1104.921, 0.4808650
1105.403, 0.2231750
1105.885, 0.3911130
1106.367, 0.7429810
1106.849, 0.8023680
1107.332, 0.6477050
1107.814, 0.7076420
1108.296, 1.061127
1108.778, 1.458344
1109.260, 1.920990
1109.742, 2.204681
1110.224, 2.050568
1110.706, 1.579437
1111.188, 1.397430
1111.671, 1.507019
1112.153, 1.552307
1112.635, 1.368134
1113.117, 1.206970
1113.599, 1.407745
1114.081, 1.719879
1114.563, 1.862793
1115.045, 1.823303
1115.528, 1.551147
1116.010, 0.9976500
1116.492, 0.4661560
1116.974, 7.3486000E-02
1117.456, 0.1461490
1117.938, 0.1127010
1118.420, 0.1351930
1118.902, 0.5122990
1119.385, 1.488495
1119.867, 1.767029
1120.349, 1.021729
1120.831, 0.1385800
1121.313, 8.9690998E-02
1121.795, 0.1571660
1122.277, 0.3737790
1122.759, 0.5357970
1123.241, 0.6253970
1123.724, 0.5473020
1124.206, 0.4978640
1124.688, 0.5255740
1125.170, 0.6102290
1125.652, 0.8227840
1126.134, 1.101105
1126.616, 0.8842160
1127.098, 8.9478001E-02
1127.580, 0.5569150
1128.063, 0.4387510
1128.545, 0.1330260
1129.027, 2.8960999E-02
1129.509, 1.9745000E-02
1129.991, 0.3558040
1130.473, 1.073425
1130.955, 1.568481
1131.437, 1.782532
1131.920, 1.650299
1132.402, 0.7280880
1132.884, 0.3148800
1133.366, 0.7766420
1133.848, 0.5686040
1134.330, 0.4204100
1134.812, 0.3641660
1135.294, 0.1806030
1135.776, 0.3030700
1136.259, 0.8210140
1136.741, 0.9449770
1137.223, 0.8974910
1137.705, 1.058228
1138.187, 1.785950
1138.669, 1.976318
1139.151, 1.389923
1139.633, 0.8646550
1140.115, 1.166046
1140.598, 1.816742
1141.080, 1.741333
1141.562, 1.152679
1142.044, 0.6521300
1142.526, 0.4398500
1143.008, 0.3107910
1143.490, 4.9164001E-02
1143.972, 0.2251280
1144.455, 2.036652
1144.937, 4.677460
1145.419, 5.129425
1145.901, 3.560455
1146.383, 2.115295
1146.865, 2.260468
1147.347, 2.164673
1147.829, 0.9791560
1148.312, 0.4678960
1148.794, 0.7272640
1149.276, 4.2420002E-03
1149.758, 0.2767640
1150.240, 5.7831001E-02
1150.722, 0.3076780
1151.204, 2.8503001E-02
1151.686, 0.5237730
1152.168, 1.039825
1152.651, 1.503204
1153.133, 1.658264
1153.615, 1.515533
1154.097, 1.369080
1154.579, 1.288513
1155.061, 1.219269
1155.543, 1.078644
1156.025, 0.9611210
1156.507, 1.037628
1156.990, 1.263336
1157.472, 1.003937
1157.954, 0.2012330
1158.436, 8.2549997E-02
1158.918, 0.6965030
1159.400, 1.680969
1159.882, 2.206512
1160.364, 2.337738
1160.847, 2.017395
1161.329, 1.117645
1161.811, 0.7561950
1162.293, 0.9974060
1162.775, 1.395630
1163.257, 1.839600
1163.739, 2.178833
1164.221, 2.069305
1164.703, 1.772339
1165.186, 1.759949
1165.668, 2.404510
1166.150, 2.654449
1166.632, 2.470490
1167.114, 2.018433
1167.596, 1.051544
1168.078, 0.1157230
1168.560, 0.3901980
1169.042, 1.429260
1169.525, 2.039856
1170.007, 1.564392
1170.489, 1.215118
1170.971, 1.098022
1171.453, 0.9949040
1171.935, 0.4645390
1172.417, 9.8419003E-02
1172.899, 0.2965090
1173.382, 1.458588
1173.864, 2.273285
1174.346, 2.115021
1174.828, 1.940887
1175.310, 1.894653
1175.792, 1.847870
1176.274, 1.622314
1176.756, 1.263245
1177.239, 0.7779540
1177.721, 0.1965640
1178.203, 9.8968998E-02
1178.685, 0.2021180
1179.167, 0.6289980
1179.649, 1.150085
1180.131, 1.647919
1180.613, 1.873779
1181.095, 1.906738
1181.578, 1.983856
1182.060, 2.144379
1182.542, 2.299469
1183.024, 2.511292
1183.506, 2.569702
1183.988, 2.299652
1184.470, 1.921204
1184.952, 2.249969
1185.434, 2.943146
1185.917, 2.795624
1186.399, 1.340302
1186.881, 5.1635999E-02
1187.363, 0.5590520
1187.845, 0.5555110
1188.327, 0.2238460
1188.809, 1.474060
1189.291, 2.044403
1189.774, 2.037323
1190.256, 1.949524
1190.738, 1.908356
1191.220, 1.806854
1191.702, 1.643341
1192.184, 1.414917
1192.666, 0.9644780
1193.148, 0.4382320
1193.630, 1.061005
1194.113, 2.583282
1194.595, 3.595551
1195.077, 3.237732
1195.559, 2.771820
1196.041, 2.933319
1196.523, 3.096008
1197.005, 2.686890
1197.487, 1.757965
1197.969, 1.197601
1198.452, 0.9905090
1198.934, 0.9734190
1199.416, 0.6471560
1199.898, 1.018860
1200.380, 3.647095
1200.862, 6.422363
1201.344, 7.143860
1201.826, 5.827271
1202.309, 4.567749
1202.791, 3.392761
1203.273, 2.541840
1203.755, 2.186768
1204.237, 2.138245
1204.719, 2.522278
1205.201, 3.054749
1205.683, 3.368591
1206.166, 3.422272
1206.648, 3.103882
1207.130, 2.496735
1207.612, 2.009735
1208.094, 1.801147
1208.576, 1.773560
1209.058, 2.036316
1209.540, 2.395416
1210.022, 2.676331
1210.505, 2.872192
1210.987, 2.515991
1211.469, 1.595459
1211.951, 0.9583740
1212.433, 1.587250
1212.915, 2.205597
1213.397, 1.906769
1213.879, 1.233093
1214.361, 1.142181
1214.844, 1.587463
1215.326, 1.800476
1215.808, 1.690247
1216.290, 1.499084
1216.772, 1.155762
1217.254, 1.092255
1217.736, 1.769348
1218.218, 2.761871
1218.701, 3.243347
1219.183, 3.229218
1219.665, 2.889343
1220.147, 2.236176
1220.629, 1.631958
1221.111, 1.169312
1221.593, 0.9989620
1222.075, 1.335754
1222.557, 1.924591
1223.040, 2.074615
1223.522, 1.855377
1224.004, 1.827271
1224.486, 2.112640
1224.968, 2.374237
1225.450, 2.502625
1225.932, 2.418304
1226.414, 1.996704
1226.896, 1.431763
1227.379, 1.386047
1227.861, 1.744080
1228.343, 1.838531
1228.825, 1.482666
1229.307, 1.136749
1229.789, 0.9503480
1230.271, 0.9521480
1230.753, 1.251617
1231.236, 1.725464
1231.718, 1.982697
1232.200, 2.065857
1232.682, 2.180359
1233.164, 2.429138
1233.646, 2.453217
1234.128, 1.498291
1234.610, 0.9897460
1235.093, 1.892212
1235.575, 3.527039
1236.057, 3.563202
1236.539, 2.451416
1237.021, 1.413666
1237.503, 0.5771480
1237.985, 0.7146910
1238.467, 3.581024
1238.949, 5.635529
1239.432, 4.962372
1239.914, 2.600952
1240.396, 1.523224
1240.878, 1.418213
1241.360, 1.514313
1241.842, 1.733917
1242.324, 1.683319
1242.806, 1.090271
1243.288, 0.5279850
1243.771, 0.2381290
1244.253, 0.1597600
1244.735, 0.6347050
1245.217, 1.423920
1245.699, 1.734558
1246.181, 1.099396
1246.663, 0.7339480
1247.145, 0.7817380
1247.628, 1.082703
1248.110, 1.713898
1248.592, 2.361847
1249.074, 2.138641
1249.556, 1.477722
1250.038, 1.251709
1250.520, 1.955933
1251.002, 2.470428
1251.484, 2.832214
1251.967, 2.683167
1252.449, 1.311920
1252.931, 0.1476750
1253.413, 0.5877380
1253.895, 2.390198
1254.377, 3.207916
1254.859, 2.146210
1255.341, 1.417328
1255.823, 1.033875
1256.306, 0.9187010
1256.788, 1.084320
1257.270, 1.426270
1257.752, 2.061707
1258.234, 2.686768
1258.716, 2.738861
1259.198, 2.016571
1259.680, 1.462524
1260.163, 1.072113
1260.645, 0.9231870
1261.127, 1.361633
1261.609, 1.685760
1262.091, 0.7619020
1262.573, 0.3889160
1263.055, 0.1548160
1263.537, 1.848602
1264.020, 2.100128
1264.502, 0.6280820
1264.984, 0.4299620
1265.466, 0.6204530
1265.948, 1.908478
1266.430, 2.305359
1266.912, 2.193573
1267.394, 2.030853
1267.876, 1.817932
1268.359, 1.313293
1268.841, 0.5800480
1269.323, 0.1930240
1269.805, 0.8269040
1270.287, 1.410553
1270.769, 1.298523
1271.251, 1.081268
1271.733, 1.316620
1272.215, 1.904968
1272.698, 1.940369
1273.180, 1.559357
1273.662, 1.264465
1274.144, 1.382080
1274.626, 1.488556
1275.108, 1.569305
1275.590, 1.496368
1276.072, 1.053040
1276.555, 0.3939820
1277.037, 6.7870997E-02
1277.519, 0.2562260
1278.001, 0.1358640
1278.483, 0.4754030
1278.965, 1.204926
1279.447, 2.178558
1279.929, 2.862030
1280.411, 2.563354
1280.894, 1.856659
1281.376, 1.822815
1281.858, 2.139618
1282.340, 2.409424
1282.822, 2.705811
1283.304, 2.258759
1283.786, 1.079315
1284.268, 0.2279970
1284.750, 0.8914180
1285.233, 1.949280
1285.715, 1.983307
1286.197, 1.568176
1286.679, 1.831818
1287.161, 3.173065
1287.643, 3.595795
1288.125, 3.068054
1288.607, 2.378723
1289.090, 1.768341
1289.572, 1.260101
1290.054, 1.472137
1290.536, 1.806091
1291.018, 1.617157
1291.500, 0.8648380
1291.982, 0.9832460
1292.464, 1.870148
1292.947, 2.575470
1293.429, 2.705383
1293.911, 2.492035
1294.393, 1.711243
1294.875, 0.9402160
1295.357, 0.6199650
1295.839, 0.6956480
1296.321, 1.010132
1296.803, 1.479401
1297.286, 1.771332
1297.768, 1.801483
1298.250, 1.505432
1298.732, 0.6253970
1299.214, 2.6397999E-02
1299.696, 0.2457280
1300.178, 0.4628600
1300.660, 0.0000000E+00
##END=



