##NAMES=Protochabourneite
##RRUFFID=R140583
##IDEAL CHEMISTRY=Tl^1+^_5-x_Pb^2+^_2x_(Sb^3+^,As^3+^)_21-x_S^2-^_34_ (x~1.2-1.5)
##LOCALITY=Monte Arsiccio mine, Sant'Anna Di Stazzema, Stazzema, Apuan Alps, Lucca Province, Tuscany, Italy
##OWNER=RRUFF
##SOURCE=Stefan Schorn
##DESCRIPTION=Black metallic crystals
##STATUS=The identification of this mineral has been confirmed by single-crystal X-ray diffraction.
##URL=rruff.info/R140583
8.813672e+001, 2.909326e+002
8.861884e+001, 2.947267e+002
8.910095e+001, 2.984308e+002
8.958307e+001, 3.031451e+002
9.006519e+001, 3.086923e+002
9.054730e+001, 3.142792e+002
9.102942e+001, 3.206604e+002
9.151154e+001, 3.259466e+002
9.199365e+001, 3.272548e+002
9.247577e+001, 3.252928e+002
9.295789e+001, 3.233085e+002
9.344000e+001, 3.240752e+002
9.392212e+001, 3.263932e+002
9.440424e+001, 3.274822e+002
9.488635e+001, 3.269525e+002
9.536847e+001, 3.256428e+002
9.585059e+001, 3.250941e+002
9.633270e+001, 3.252694e+002
9.681482e+001, 3.259877e+002
9.729694e+001, 3.269965e+002
9.777905e+001, 3.282932e+002
9.826117e+001, 3.303675e+002
9.874329e+001, 3.337632e+002
9.922540e+001, 3.381432e+002
9.970752e+001, 3.409959e+002
1.001896e+002, 3.419208e+002
1.006718e+002, 3.420986e+002
1.011539e+002, 3.429447e+002
1.016360e+002, 3.445367e+002
1.021181e+002, 3.465099e+002
1.026002e+002, 3.486627e+002
1.030823e+002, 3.508932e+002
1.035645e+002, 3.538451e+002
1.040466e+002, 3.573610e+002
1.045287e+002, 3.616944e+002
1.050108e+002, 3.676394e+002
1.054929e+002, 3.764622e+002
1.059750e+002, 3.850460e+002
1.064572e+002, 3.923678e+002
1.069393e+002, 3.994066e+002
1.074214e+002, 4.035320e+002
1.079035e+002, 4.031290e+002
1.083856e+002, 3.996511e+002
1.088677e+002, 3.981749e+002
1.093499e+002, 3.997733e+002
1.098320e+002, 4.025670e+002
1.103141e+002, 4.057482e+002
1.107962e+002, 4.099707e+002
1.112783e+002, 4.138983e+002
1.117604e+002, 4.170255e+002
1.122426e+002, 4.195913e+002
1.127247e+002, 4.230205e+002
1.132068e+002, 4.277833e+002
1.136889e+002, 4.333586e+002
1.141710e+002, 4.393427e+002
1.146531e+002, 4.472333e+002
1.151353e+002, 4.540031e+002
1.156174e+002, 4.583967e+002
1.160995e+002, 4.603800e+002
1.165816e+002, 4.623982e+002
1.170637e+002, 4.660759e+002
1.175458e+002, 4.700081e+002
1.180280e+002, 4.727103e+002
1.185101e+002, 4.720822e+002
1.189922e+002, 4.710877e+002
1.194743e+002, 4.713841e+002
1.199564e+002, 4.731220e+002
1.204385e+002, 4.757101e+002
1.209207e+002, 4.786008e+002
1.214028e+002, 4.821026e+002
1.218849e+002, 4.867379e+002
1.223670e+002, 4.956593e+002
1.228491e+002, 5.046028e+002
1.233312e+002, 5.083993e+002
1.238134e+002, 5.055423e+002
1.242955e+002, 5.011070e+002
1.247776e+002, 4.994303e+002
1.252597e+002, 5.000643e+002
1.257418e+002, 5.014728e+002
1.262239e+002, 5.027530e+002
1.267061e+002, 5.041984e+002
1.271882e+002, 5.064266e+002
1.276703e+002, 5.097977e+002
1.281524e+002, 5.135220e+002
1.286345e+002, 5.163470e+002
1.291166e+002, 5.183537e+002
1.295988e+002, 5.204384e+002
1.300809e+002, 5.237546e+002
1.305630e+002, 5.278549e+002
1.310451e+002, 5.307783e+002
1.315272e+002, 5.317443e+002
1.320093e+002, 5.315428e+002
1.324915e+002, 5.319203e+002
1.329736e+002, 5.328906e+002
1.334557e+002, 5.342609e+002
1.339378e+002, 5.359968e+002
1.344199e+002, 5.380833e+002
1.349020e+002, 5.399476e+002
1.353842e+002, 5.412335e+002
1.358663e+002, 5.421365e+002
1.363484e+002, 5.437891e+002
1.368305e+002, 5.461630e+002
1.373126e+002, 5.493666e+002
1.377947e+002, 5.542036e+002
1.382769e+002, 5.613866e+002
1.387590e+002, 5.665240e+002
1.392411e+002, 5.680095e+002
1.397232e+002, 5.657824e+002
1.402053e+002, 5.633855e+002
1.406874e+002, 5.607039e+002
1.411696e+002, 5.579807e+002
1.416517e+002, 5.555745e+002
1.421338e+002, 5.535400e+002
1.426159e+002, 5.517272e+002
1.430980e+002, 5.500496e+002
1.435801e+002, 5.484711e+002
1.440623e+002, 5.474151e+002
1.445444e+002, 5.470723e+002
1.450265e+002, 5.471863e+002
1.455086e+002, 5.474045e+002
1.459907e+002, 5.483470e+002
1.464728e+002, 5.486055e+002
1.469550e+002, 5.475479e+002
1.474371e+002, 5.442048e+002
1.479192e+002, 5.418215e+002
1.484013e+002, 5.411749e+002
1.488834e+002, 5.414106e+002
1.493655e+002, 5.406169e+002
1.498477e+002, 5.372172e+002
1.503298e+002, 5.341392e+002
1.508119e+002, 5.325089e+002
1.512940e+002, 5.336459e+002
1.517761e+002, 5.342624e+002
1.522583e+002, 5.339386e+002
1.527404e+002, 5.329868e+002
1.532225e+002, 5.322868e+002
1.537046e+002, 5.324642e+002
1.541867e+002, 5.325121e+002
1.546688e+002, 5.319732e+002
1.551510e+002, 5.305788e+002
1.556331e+002, 5.288536e+002
1.561152e+002, 5.267445e+002
1.565973e+002, 5.243313e+002
1.570794e+002, 5.219669e+002
1.575615e+002, 5.192423e+002
1.580437e+002, 5.168630e+002
1.585258e+002, 5.152631e+002
1.590079e+002, 5.153785e+002
1.594900e+002, 5.154081e+002
1.599721e+002, 5.146257e+002
1.604542e+002, 5.132109e+002
1.609364e+002, 5.122025e+002
1.614185e+002, 5.124208e+002
1.619006e+002, 5.129855e+002
1.623827e+002, 5.131882e+002
1.628648e+002, 5.127531e+002
1.633469e+002, 5.119710e+002
1.638291e+002, 5.108416e+002
1.643112e+002, 5.094051e+002
1.647933e+002, 5.079648e+002
1.652754e+002, 5.065030e+002
1.657575e+002, 5.051714e+002
1.662396e+002, 5.041299e+002
1.667218e+002, 5.037363e+002
1.672039e+002, 5.034237e+002
1.676860e+002, 5.026120e+002
1.681681e+002, 5.013332e+002
1.686502e+002, 5.005083e+002
1.691323e+002, 5.013468e+002
1.696145e+002, 5.028783e+002
1.700966e+002, 5.037737e+002
1.705787e+002, 5.031905e+002
1.710608e+002, 5.019354e+002
1.715429e+002, 5.004904e+002
1.720250e+002, 4.988415e+002
1.725072e+002, 4.975123e+002
1.729893e+002, 4.970915e+002
1.734714e+002, 4.972383e+002
1.739535e+002, 4.973207e+002
1.744356e+002, 4.971106e+002
1.749177e+002, 4.966661e+002
1.753999e+002, 4.959187e+002
1.758820e+002, 4.948148e+002
1.763641e+002, 4.938578e+002
1.768462e+002, 4.937271e+002
1.773283e+002, 4.941157e+002
1.778104e+002, 4.942373e+002
1.782926e+002, 4.933491e+002
1.787747e+002, 4.920433e+002
1.792568e+002, 4.913184e+002
1.797389e+002, 4.912607e+002
1.802210e+002, 4.915150e+002
1.807031e+002, 4.917727e+002
1.811853e+002, 4.920299e+002
1.816674e+002, 4.922738e+002
1.821495e+002, 4.927415e+002
1.826316e+002, 4.931806e+002
1.831137e+002, 4.928260e+002
1.835958e+002, 4.914981e+002
1.840780e+002, 4.899703e+002
1.845601e+002, 4.891847e+002
1.850422e+002, 4.891016e+002
1.855243e+002, 4.893220e+002
1.860064e+002, 4.899950e+002
1.864885e+002, 4.908807e+002
1.869707e+002, 4.909648e+002
1.874528e+002, 4.900479e+002
1.879349e+002, 4.887448e+002
1.884170e+002, 4.882144e+002
1.888991e+002, 4.883873e+002
1.893812e+002, 4.880473e+002
1.898634e+002, 4.862001e+002
1.903455e+002, 4.831095e+002
1.908276e+002, 4.804884e+002
1.913097e+002, 4.785431e+002
1.917918e+002, 4.768041e+002
1.922739e+002, 4.742192e+002
1.927561e+002, 4.707012e+002
1.932382e+002, 4.675675e+002
1.937203e+002, 4.656690e+002
1.942024e+002, 4.649222e+002
1.946845e+002, 4.641918e+002
1.951666e+002, 4.634635e+002
1.956488e+002, 4.626246e+002
1.961309e+002, 4.614090e+002
1.966130e+002, 4.597662e+002
1.970951e+002, 4.580364e+002
1.975772e+002, 4.561940e+002
1.980593e+002, 4.542313e+002
1.985415e+002, 4.530993e+002
1.990236e+002, 4.531206e+002
1.995057e+002, 4.536969e+002
1.999878e+002, 4.534341e+002
2.004699e+002, 4.522060e+002
2.009520e+002, 4.507653e+002
2.014342e+002, 4.494646e+002
2.019163e+002, 4.482832e+002
2.023984e+002, 4.474580e+002
2.028805e+002, 4.471393e+002
2.033626e+002, 4.470647e+002
2.038447e+002, 4.464804e+002
2.043269e+002, 4.452147e+002
2.048090e+002, 4.440486e+002
2.052911e+002, 4.434962e+002
2.057732e+002, 4.436512e+002
2.062553e+002, 4.437870e+002
2.067374e+002, 4.439299e+002
2.072196e+002, 4.439834e+002
2.077017e+002, 4.436236e+002
2.081838e+002, 4.427287e+002
2.086659e+002, 4.417582e+002
2.091480e+002, 4.409779e+002
2.096301e+002, 4.404187e+002
2.101123e+002, 4.398961e+002
2.105944e+002, 4.394269e+002
2.110765e+002, 4.389729e+002
2.115586e+002, 4.384265e+002
2.120407e+002, 4.377864e+002
2.125228e+002, 4.370552e+002
2.130050e+002, 4.362022e+002
2.134871e+002, 4.351642e+002
2.139692e+002, 4.342970e+002
2.144513e+002, 4.338041e+002
2.149334e+002, 4.334234e+002
2.154155e+002, 4.322386e+002
2.158977e+002, 4.298296e+002
2.163798e+002, 4.274201e+002
2.168619e+002, 4.257419e+002
2.173440e+002, 4.250906e+002
2.178261e+002, 4.242214e+002
2.183082e+002, 4.229772e+002
2.187904e+002, 4.215112e+002
2.192725e+002, 4.204118e+002
2.197546e+002, 4.200974e+002
2.202367e+002, 4.194167e+002
2.207188e+002, 4.175392e+002
2.212009e+002, 4.134831e+002
2.216831e+002, 4.109274e+002
2.221652e+002, 4.105194e+002
2.226473e+002, 4.115317e+002
2.231294e+002, 4.118421e+002
2.236115e+002, 4.111867e+002
2.240936e+002, 4.102932e+002
2.245758e+002, 4.095350e+002
2.250579e+002, 4.091331e+002
2.255400e+002, 4.083182e+002
2.260221e+002, 4.069000e+002
2.265042e+002, 4.051116e+002
2.269863e+002, 4.035991e+002
2.274685e+002, 4.022811e+002
2.279506e+002, 4.013401e+002
2.284327e+002, 4.009100e+002
2.289148e+002, 4.012556e+002
2.293969e+002, 4.014749e+002
2.298790e+002, 4.014940e+002
2.303612e+002, 4.013960e+002
2.308433e+002, 4.014165e+002
2.313254e+002, 4.016848e+002
2.318075e+002, 4.018616e+002
2.322896e+002, 4.017308e+002
2.327717e+002, 4.009641e+002
2.332539e+002, 4.007175e+002
2.337360e+002, 4.012768e+002
2.342181e+002, 4.022509e+002
2.347002e+002, 4.027545e+002
2.351823e+002, 4.026563e+002
2.356644e+002, 4.022608e+002
2.361466e+002, 4.015724e+002
2.366287e+002, 4.002298e+002
2.371108e+002, 3.996144e+002
2.375929e+002, 4.000961e+002
2.380750e+002, 4.011580e+002
2.385571e+002, 4.017225e+002
2.390393e+002, 4.015428e+002
2.395214e+002, 4.012630e+002
2.400035e+002, 4.011354e+002
2.404856e+002, 4.012738e+002
2.409677e+002, 4.012084e+002
2.414498e+002, 4.007423e+002
2.419320e+002, 4.001879e+002
2.424141e+002, 4.001286e+002
2.428962e+002, 4.008687e+002
2.433783e+002, 4.016267e+002
2.438604e+002, 4.021362e+002
2.443425e+002, 4.023227e+002
2.448247e+002, 4.025440e+002
2.453068e+002, 4.027236e+002
2.457889e+002, 4.029899e+002
2.462710e+002, 4.035415e+002
2.467531e+002, 4.043810e+002
2.472352e+002, 4.054988e+002
2.477174e+002, 4.069471e+002
2.481995e+002, 4.087840e+002
2.486816e+002, 4.105887e+002
2.491637e+002, 4.124520e+002
2.496458e+002, 4.142117e+002
2.501279e+002, 4.156512e+002
2.506101e+002, 4.168741e+002
2.510922e+002, 4.175959e+002
2.515743e+002, 4.177095e+002
2.520564e+002, 4.171853e+002
2.525385e+002, 4.162639e+002
2.530206e+002, 4.148028e+002
2.535028e+002, 4.130615e+002
2.539849e+002, 4.114417e+002
2.544670e+002, 4.101459e+002
2.549491e+002, 4.084817e+002
2.554312e+002, 4.060596e+002
2.559133e+002, 4.028161e+002
2.563955e+002, 4.004614e+002
2.568776e+002, 3.994423e+002
2.573597e+002, 3.988059e+002
2.578418e+002, 3.974895e+002
2.583239e+002, 3.951093e+002
2.588061e+002, 3.929391e+002
2.592882e+002, 3.913226e+002
2.597703e+002, 3.902389e+002
2.602524e+002, 3.887559e+002
2.607345e+002, 3.866589e+002
2.612166e+002, 3.844479e+002
2.616988e+002, 3.825115e+002
2.621809e+002, 3.809030e+002
2.626630e+002, 3.795474e+002
2.631451e+002, 3.785828e+002
2.636272e+002, 3.779232e+002
2.641093e+002, 3.767861e+002
2.645915e+002, 3.749211e+002
2.650736e+002, 3.730115e+002
2.655557e+002, 3.716357e+002
2.660378e+002, 3.710283e+002
2.665199e+002, 3.702033e+002
2.670020e+002, 3.689544e+002
2.674842e+002, 3.673846e+002
2.679663e+002, 3.660613e+002
2.684484e+002, 3.650037e+002
2.689305e+002, 3.641467e+002
2.694126e+002, 3.634291e+002
2.698947e+002, 3.627958e+002
2.703769e+002, 3.625617e+002
2.708590e+002, 3.629395e+002
2.713411e+002, 3.636443e+002
2.718232e+002, 3.636612e+002
2.723053e+002, 3.627740e+002
2.727874e+002, 3.618538e+002
2.732696e+002, 3.614218e+002
2.737517e+002, 3.615466e+002
2.742338e+002, 3.617602e+002
2.747159e+002, 3.621124e+002
2.751980e+002, 3.624630e+002
2.756801e+002, 3.624019e+002
2.761623e+002, 3.618327e+002
2.766444e+002, 3.612972e+002
2.771265e+002, 3.611450e+002
2.776086e+002, 3.614201e+002
2.780907e+002, 3.614617e+002
2.785728e+002, 3.612065e+002
2.790550e+002, 3.607931e+002
2.795371e+002, 3.603953e+002
2.800192e+002, 3.599891e+002
2.805013e+002, 3.597909e+002
2.809834e+002, 3.599136e+002
2.814655e+002, 3.603514e+002
2.819477e+002, 3.609839e+002
2.824298e+002, 3.618588e+002
2.829119e+002, 3.627738e+002
2.833940e+002, 3.633979e+002
2.838761e+002, 3.637186e+002
2.843582e+002, 3.640836e+002
2.848404e+002, 3.646786e+002
2.853225e+002, 3.654401e+002
2.858046e+002, 3.659738e+002
2.862867e+002, 3.662406e+002
2.867688e+002, 3.664282e+002
2.872509e+002, 3.667789e+002
2.877331e+002, 3.672764e+002
2.882152e+002, 3.676796e+002
2.886973e+002, 3.679018e+002
2.891794e+002, 3.679850e+002
2.896615e+002, 3.681354e+002
2.901436e+002, 3.683841e+002
2.906258e+002, 3.684068e+002
2.911079e+002, 3.677668e+002
2.915900e+002, 3.665845e+002
2.920721e+002, 3.655206e+002
2.925542e+002, 3.648939e+002
2.930363e+002, 3.643659e+002
2.935185e+002, 3.630787e+002
2.940006e+002, 3.610351e+002
2.944827e+002, 3.590659e+002
2.949648e+002, 3.578371e+002
2.954469e+002, 3.571631e+002
2.959290e+002, 3.564624e+002
2.964112e+002, 3.555465e+002
2.968933e+002, 3.546740e+002
2.973754e+002, 3.544223e+002
2.978575e+002, 3.546812e+002
2.983396e+002, 3.547774e+002
2.988217e+002, 3.541264e+002
2.993039e+002, 3.530164e+002
2.997860e+002, 3.520151e+002
3.002681e+002, 3.511823e+002
3.007502e+002, 3.504807e+002
3.012323e+002, 3.498718e+002
3.017144e+002, 3.493568e+002
3.021966e+002, 3.489756e+002
3.026787e+002, 3.487583e+002
3.031608e+002, 3.486734e+002
3.036429e+002, 3.486927e+002
3.041250e+002, 3.488215e+002
3.046071e+002, 3.490001e+002
3.050893e+002, 3.493211e+002
3.055714e+002, 3.496542e+002
3.060535e+002, 3.497164e+002
3.065356e+002, 3.493424e+002
3.070177e+002, 3.486676e+002
3.074998e+002, 3.476880e+002
3.079820e+002, 3.463980e+002
3.084641e+002, 3.452618e+002
3.089462e+002, 3.447542e+002
3.094283e+002, 3.445663e+002
3.099104e+002, 3.442841e+002
3.103925e+002, 3.436485e+002
3.108747e+002, 3.429604e+002
3.113568e+002, 3.423787e+002
3.118389e+002, 3.419122e+002
3.123210e+002, 3.416134e+002
3.128031e+002, 3.416142e+002
3.132852e+002, 3.417491e+002
3.137674e+002, 3.418582e+002
3.142495e+002, 3.418691e+002
3.147316e+002, 3.418822e+002
3.152137e+002, 3.421779e+002
3.156958e+002, 3.425704e+002
3.161779e+002, 3.424383e+002
3.166601e+002, 3.410435e+002
3.171422e+002, 3.393383e+002
3.176243e+002, 3.379709e+002
3.181064e+002, 3.372552e+002
3.185885e+002, 3.364839e+002
3.190706e+002, 3.351174e+002
3.195528e+002, 3.335484e+002
3.200349e+002, 3.325399e+002
3.205170e+002, 3.330416e+002
3.209991e+002, 3.335445e+002
3.214812e+002, 3.333383e+002
3.219633e+002, 3.321572e+002
3.224455e+002, 3.310087e+002
3.229276e+002, 3.300342e+002
3.234097e+002, 3.292125e+002
3.238918e+002, 3.285180e+002
3.243739e+002, 3.282937e+002
3.248560e+002, 3.278613e+002
3.253382e+002, 3.269048e+002
3.258203e+002, 3.253260e+002
3.263024e+002, 3.241133e+002
3.267845e+002, 3.237214e+002
3.272666e+002, 3.235082e+002
3.277487e+002, 3.229600e+002
3.282309e+002, 3.217099e+002
3.287130e+002, 3.205584e+002
3.291951e+002, 3.196371e+002
3.296772e+002, 3.189157e+002
3.301593e+002, 3.180905e+002
3.306414e+002, 3.171875e+002
3.311236e+002, 3.161628e+002
3.316057e+002, 3.149306e+002
3.320878e+002, 3.130117e+002
3.325699e+002, 3.117602e+002
3.330520e+002, 3.115133e+002
3.335341e+002, 3.119066e+002
3.340163e+002, 3.119665e+002
3.344984e+002, 3.116716e+002
3.349805e+002, 3.110716e+002
3.354626e+002, 3.101167e+002
3.359447e+002, 3.086653e+002
3.364268e+002, 3.073701e+002
3.369090e+002, 3.061577e+002
3.373911e+002, 3.051644e+002
3.378732e+002, 3.047719e+002
3.383553e+002, 3.052652e+002
3.388374e+002, 3.053656e+002
3.393195e+002, 3.045194e+002
3.398017e+002, 3.027809e+002
3.402838e+002, 3.015017e+002
3.407659e+002, 3.008043e+002
3.412480e+002, 3.002556e+002
3.417301e+002, 2.992491e+002
3.422122e+002, 2.977280e+002
3.426944e+002, 2.967062e+002
3.431765e+002, 2.965302e+002
3.436586e+002, 2.969530e+002
3.441407e+002, 2.972505e+002
3.446228e+002, 2.974323e+002
3.451049e+002, 2.973643e+002
3.455871e+002, 2.967366e+002
3.460692e+002, 2.956600e+002
3.465513e+002, 2.950544e+002
3.470334e+002, 2.952083e+002
3.475155e+002, 2.955206e+002
3.479977e+002, 2.947555e+002
3.484798e+002, 2.930521e+002
3.489619e+002, 2.916251e+002
3.494440e+002, 2.913688e+002
3.499261e+002, 2.918715e+002
3.504082e+002, 2.922606e+002
3.508904e+002, 2.924945e+002
3.513725e+002, 2.925402e+002
3.518546e+002, 2.921808e+002
3.523367e+002, 2.915865e+002
3.528188e+002, 2.911996e+002
3.533009e+002, 2.916615e+002
3.537831e+002, 2.921973e+002
3.542652e+002, 2.917149e+002
3.547473e+002, 2.902571e+002
3.552294e+002, 2.887768e+002
3.557115e+002, 2.879281e+002
3.561936e+002, 2.874839e+002
3.566758e+002, 2.871598e+002
3.571579e+002, 2.869303e+002
3.576400e+002, 2.867191e+002
3.581221e+002, 2.864128e+002
3.586042e+002, 2.860646e+002
3.590863e+002, 2.858533e+002
3.595685e+002, 2.860817e+002
3.600506e+002, 2.863528e+002
3.605327e+002, 2.863383e+002
3.610148e+002, 2.858671e+002
3.614969e+002, 2.854252e+002
3.619790e+002, 2.853686e+002
3.624612e+002, 2.854522e+002
3.629433e+002, 2.852594e+002
3.634254e+002, 2.841396e+002
3.639075e+002, 2.831754e+002
3.643896e+002, 2.828968e+002
3.648717e+002, 2.834333e+002
3.653539e+002, 2.838898e+002
3.658360e+002, 2.839975e+002
3.663181e+002, 2.839846e+002
3.668002e+002, 2.840636e+002
3.672823e+002, 2.846381e+002
3.677644e+002, 2.848824e+002
3.682466e+002, 2.844072e+002
3.687287e+002, 2.833083e+002
3.692108e+002, 2.827469e+002
3.696929e+002, 2.833195e+002
3.701750e+002, 2.839045e+002
3.706571e+002, 2.839113e+002
3.711393e+002, 2.828636e+002
3.716214e+002, 2.820750e+002
3.721035e+002, 2.816197e+002
3.725856e+002, 2.814052e+002
3.730677e+002, 2.812365e+002
3.735498e+002, 2.811337e+002
3.740320e+002, 2.810411e+002
3.745141e+002, 2.809510e+002
3.749962e+002, 2.808719e+002
3.754783e+002, 2.807567e+002
3.759604e+002, 2.806597e+002
3.764425e+002, 2.804420e+002
3.769247e+002, 2.798318e+002
3.774068e+002, 2.787337e+002
3.778889e+002, 2.778569e+002
3.783710e+002, 2.773681e+002
3.788531e+002, 2.772419e+002
3.793352e+002, 2.773032e+002
3.798174e+002, 2.775079e+002
3.802995e+002, 2.781900e+002
3.807816e+002, 2.802106e+002
3.812637e+002, 2.832901e+002
3.817458e+002, 2.847603e+002
3.822279e+002, 2.839329e+002
3.827101e+002, 2.820648e+002
3.831922e+002, 2.813183e+002
3.836743e+002, 2.814963e+002
3.841564e+002, 2.812787e+002
3.846385e+002, 2.792955e+002
3.851206e+002, 2.765450e+002
3.856028e+002, 2.751980e+002
3.860849e+002, 2.754359e+002
3.865670e+002, 2.760342e+002
3.870491e+002, 2.759073e+002
3.875312e+002, 2.753085e+002
3.880133e+002, 2.747395e+002
3.884955e+002, 2.743746e+002
3.889776e+002, 2.741239e+002
3.894597e+002, 2.739536e+002
3.899418e+002, 2.738480e+002
3.904239e+002, 2.737160e+002
3.909060e+002, 2.732545e+002
3.913882e+002, 2.728697e+002
3.918703e+002, 2.730326e+002
3.923524e+002, 2.742218e+002
3.928345e+002, 2.751527e+002
3.933166e+002, 2.749516e+002
3.937987e+002, 2.740651e+002
3.942809e+002, 2.733952e+002
3.947630e+002, 2.733369e+002
3.952451e+002, 2.734674e+002
3.957272e+002, 2.736734e+002
3.962093e+002, 2.739798e+002
3.966914e+002, 2.741100e+002
3.971736e+002, 2.737016e+002
3.976557e+002, 2.732354e+002
3.981378e+002, 2.731526e+002
3.986199e+002, 2.743315e+002
3.991020e+002, 2.749434e+002
3.995841e+002, 2.744420e+002
4.000663e+002, 2.730355e+002
4.005484e+002, 2.721365e+002
4.010305e+002, 2.721010e+002
4.015126e+002, 2.721904e+002
4.019947e+002, 2.720398e+002
4.024768e+002, 2.715070e+002
4.029590e+002, 2.710806e+002
4.034411e+002, 2.707599e+002
4.039232e+002, 2.705536e+002
4.044053e+002, 2.705708e+002
4.048874e+002, 2.710122e+002
4.053695e+002, 2.710544e+002
4.058517e+002, 2.702091e+002
4.063338e+002, 2.685872e+002
4.068159e+002, 2.678116e+002
4.072980e+002, 2.680201e+002
4.077801e+002, 2.686002e+002
4.082622e+002, 2.690089e+002
4.087444e+002, 2.692546e+002
4.092265e+002, 2.695259e+002
4.097086e+002, 2.699113e+002
4.101907e+002, 2.702639e+002
4.106728e+002, 2.700915e+002
4.111549e+002, 2.694579e+002
4.116371e+002, 2.691331e+002
4.121192e+002, 2.699956e+002
4.126013e+002, 2.714464e+002
4.130834e+002, 2.721134e+002
4.135655e+002, 2.718278e+002
4.140476e+002, 2.712169e+002
4.145298e+002, 2.706154e+002
4.150119e+002, 2.701485e+002
4.154940e+002, 2.700597e+002
4.159761e+002, 2.707362e+002
4.164582e+002, 2.716172e+002
4.169403e+002, 2.722755e+002
4.174225e+002, 2.727256e+002
4.179046e+002, 2.730269e+002
4.183867e+002, 2.731922e+002
4.188688e+002, 2.732332e+002
4.193509e+002, 2.731217e+002
4.198330e+002, 2.727284e+002
4.203152e+002, 2.724585e+002
4.207973e+002, 2.724784e+002
4.212794e+002, 2.727261e+002
4.217615e+002, 2.730854e+002
4.222436e+002, 2.735723e+002
4.227257e+002, 2.741259e+002
4.232079e+002, 2.747228e+002
4.236900e+002, 2.753535e+002
4.241721e+002, 2.760858e+002
4.246542e+002, 2.772083e+002
4.251363e+002, 2.782635e+002
4.256184e+002, 2.789053e+002
4.261006e+002, 2.786210e+002
4.265827e+002, 2.787003e+002
4.270648e+002, 2.793860e+002
4.275469e+002, 2.804938e+002
4.280290e+002, 2.814066e+002
4.285111e+002, 2.821810e+002
4.289933e+002, 2.826288e+002
4.294754e+002, 2.824718e+002
4.299575e+002, 2.815231e+002
4.304396e+002, 2.813970e+002
4.309217e+002, 2.822565e+002
4.314038e+002, 2.835711e+002
4.318860e+002, 2.847561e+002
4.323681e+002, 2.858149e+002
4.328502e+002, 2.866582e+002
4.333323e+002, 2.872241e+002
4.338144e+002, 2.875922e+002
4.342965e+002, 2.880221e+002
4.347787e+002, 2.885144e+002
4.352608e+002, 2.888289e+002
4.357429e+002, 2.887055e+002
4.362250e+002, 2.882860e+002
4.367071e+002, 2.878791e+002
4.371892e+002, 2.875007e+002
4.376714e+002, 2.872463e+002
4.381535e+002, 2.874651e+002
4.386356e+002, 2.878917e+002
4.391177e+002, 2.879352e+002
4.395998e+002, 2.869408e+002
4.400819e+002, 2.857239e+002
4.405641e+002, 2.850140e+002
4.410462e+002, 2.847673e+002
4.415283e+002, 2.844760e+002
4.420104e+002, 2.837467e+002
4.424925e+002, 2.829104e+002
4.429746e+002, 2.822533e+002
4.434568e+002, 2.818744e+002
4.439389e+002, 2.815869e+002
4.444210e+002, 2.813610e+002
4.449031e+002, 2.811830e+002
4.453852e+002, 2.810276e+002
4.458673e+002, 2.809621e+002
4.463495e+002, 2.808543e+002
4.468316e+002, 2.806947e+002
4.473137e+002, 2.805005e+002
4.477958e+002, 2.801210e+002
4.482779e+002, 2.794365e+002
4.487600e+002, 2.786791e+002
4.492422e+002, 2.780424e+002
4.497243e+002, 2.776839e+002
4.502064e+002, 2.770909e+002
4.506885e+002, 2.760935e+002
4.511706e+002, 2.748848e+002
4.516527e+002, 2.740772e+002
4.521349e+002, 2.738087e+002
4.526170e+002, 2.734189e+002
4.530991e+002, 2.724675e+002
4.535812e+002, 2.709819e+002
4.540633e+002, 2.701340e+002
4.545454e+002, 2.699817e+002
4.550276e+002, 2.701118e+002
4.555097e+002, 2.702315e+002
4.559918e+002, 2.702994e+002
4.564739e+002, 2.700224e+002
4.569560e+002, 2.691803e+002
4.574381e+002, 2.681814e+002
4.579203e+002, 2.677744e+002
4.584024e+002, 2.678348e+002
4.588845e+002, 2.677715e+002
4.593666e+002, 2.669594e+002
4.598488e+002, 2.659514e+002
4.603309e+002, 2.654356e+002
4.608130e+002, 2.654884e+002
4.612951e+002, 2.658061e+002
4.617772e+002, 2.665896e+002
4.622593e+002, 2.673789e+002
4.627415e+002, 2.676140e+002
4.632236e+002, 2.666886e+002
4.637057e+002, 2.656136e+002
4.641878e+002, 2.646706e+002
4.646699e+002, 2.638800e+002
4.651520e+002, 2.632918e+002
4.656342e+002, 2.631333e+002
4.661163e+002, 2.630216e+002
4.665984e+002, 2.627711e+002
4.670805e+002, 2.622784e+002
4.675626e+002, 2.619160e+002
4.680447e+002, 2.616639e+002
4.685269e+002, 2.615619e+002
4.690090e+002, 2.616802e+002
4.694911e+002, 2.622218e+002
4.699732e+002, 2.625841e+002
4.704553e+002, 2.625905e+002
4.709374e+002, 2.623546e+002
4.714196e+002, 2.624059e+002
4.719017e+002, 2.628254e+002
4.723838e+002, 2.632722e+002
4.728659e+002, 2.636118e+002
4.733480e+002, 2.638422e+002
4.738301e+002, 2.637979e+002
4.743123e+002, 2.634410e+002
4.747944e+002, 2.629400e+002
4.752765e+002, 2.623976e+002
4.757586e+002, 2.618531e+002
4.762407e+002, 2.615189e+002
4.767228e+002, 2.614825e+002
4.772050e+002, 2.616659e+002
4.776871e+002, 2.620653e+002
4.781692e+002, 2.626272e+002
4.786513e+002, 2.630753e+002
4.791334e+002, 2.632086e+002
4.796155e+002, 2.631586e+002
4.800977e+002, 2.630444e+002
4.805798e+002, 2.628751e+002
4.810619e+002, 2.627006e+002
4.815440e+002, 2.624065e+002
4.820261e+002, 2.621814e+002
4.825082e+002, 2.622418e+002
4.829904e+002, 2.632408e+002
4.834725e+002, 2.639198e+002
4.839546e+002, 2.638603e+002
4.844367e+002, 2.631472e+002
4.849188e+002, 2.621820e+002
4.854009e+002, 2.605943e+002
4.858831e+002, 2.591372e+002
4.863652e+002, 2.580791e+002
4.868473e+002, 2.574839e+002
4.873294e+002, 2.570970e+002
4.878115e+002, 2.570756e+002
4.882936e+002, 2.571071e+002
4.887758e+002, 2.568138e+002
4.892579e+002, 2.560218e+002
4.897400e+002, 2.554557e+002
4.902221e+002, 2.552737e+002
4.907042e+002, 2.553647e+002
4.911863e+002, 2.554813e+002
4.916685e+002, 2.556483e+002
4.921506e+002, 2.556064e+002
4.926327e+002, 2.549774e+002
4.931148e+002, 2.539631e+002
4.935969e+002, 2.536978e+002
4.940790e+002, 2.542693e+002
4.945612e+002, 2.548314e+002
4.950433e+002, 2.543499e+002
4.955254e+002, 2.532553e+002
4.960075e+002, 2.524775e+002
4.964896e+002, 2.523592e+002
4.969717e+002, 2.525329e+002
4.974539e+002, 2.529084e+002
4.979360e+002, 2.533311e+002
4.984181e+002, 2.533799e+002
4.989002e+002, 2.524064e+002
4.993823e+002, 2.513395e+002
4.998644e+002, 2.507342e+002
5.003466e+002, 2.506407e+002
5.008287e+002, 2.507639e+002
5.013108e+002, 2.514247e+002
5.017929e+002, 2.520194e+002
5.022750e+002, 2.520884e+002
5.027571e+002, 2.508458e+002
5.032393e+002, 2.499965e+002
5.037214e+002, 2.497989e+002
5.042035e+002, 2.499880e+002
5.046856e+002, 2.500095e+002
5.051677e+002, 2.497870e+002
5.056498e+002, 2.495326e+002
5.061320e+002, 2.492949e+002
5.066141e+002, 2.490754e+002
5.070962e+002, 2.489489e+002
5.075783e+002, 2.489677e+002
5.080604e+002, 2.489209e+002
5.085425e+002, 2.485562e+002
5.090247e+002, 2.479125e+002
5.095068e+002, 2.474668e+002
5.099889e+002, 2.473008e+002
5.104710e+002, 2.472734e+002
5.109531e+002, 2.472501e+002
5.114352e+002, 2.472117e+002
5.119174e+002, 2.470837e+002
5.123995e+002, 2.467958e+002
5.128816e+002, 2.464265e+002
5.133637e+002, 2.460691e+002
5.138458e+002, 2.457111e+002
5.143279e+002, 2.452877e+002
5.148101e+002, 2.444961e+002
5.152922e+002, 2.437802e+002
5.157743e+002, 2.435758e+002
5.162564e+002, 2.441170e+002
5.167385e+002, 2.445545e+002
5.172206e+002, 2.444980e+002
5.177028e+002, 2.442156e+002
5.181849e+002, 2.440127e+002
5.186670e+002, 2.441665e+002
5.191491e+002, 2.441335e+002
5.196312e+002, 2.437330e+002
5.201133e+002, 2.430716e+002
5.205955e+002, 2.425592e+002
5.210776e+002, 2.421547e+002
5.215597e+002, 2.419963e+002
5.220418e+002, 2.422951e+002
5.225239e+002, 2.431559e+002
5.230060e+002, 2.433018e+002
5.234882e+002, 2.425733e+002
5.239703e+002, 2.415961e+002
5.244524e+002, 2.410254e+002
5.249345e+002, 2.408363e+002
5.254166e+002, 2.405786e+002
5.258987e+002, 2.400749e+002
5.263809e+002, 2.396407e+002
5.268630e+002, 2.399602e+002
5.273451e+002, 2.408423e+002
5.278272e+002, 2.415007e+002
5.283093e+002, 2.414440e+002
5.287914e+002, 2.410099e+002
5.292736e+002, 2.403554e+002
5.297557e+002, 2.395254e+002
5.302378e+002, 2.391115e+002
5.307199e+002, 2.398305e+002
5.312020e+002, 2.408780e+002
5.316841e+002, 2.416217e+002
5.321663e+002, 2.420034e+002
5.326484e+002, 2.419591e+002
5.331305e+002, 2.411143e+002
5.336126e+002, 2.399484e+002
5.340947e+002, 2.391353e+002
5.345768e+002, 2.389346e+002
5.350590e+002, 2.388625e+002
5.355411e+002, 2.389373e+002
5.360232e+002, 2.391130e+002
5.365053e+002, 2.390563e+002
5.369874e+002, 2.386386e+002
5.374695e+002, 2.382903e+002
5.379517e+002, 2.383265e+002
5.384338e+002, 2.387844e+002
5.389159e+002, 2.388242e+002
5.393980e+002, 2.383709e+002
5.398801e+002, 2.377989e+002
5.403622e+002, 2.374596e+002
5.408444e+002, 2.373503e+002
5.413265e+002, 2.375180e+002
5.418086e+002, 2.381283e+002
5.422907e+002, 2.387002e+002
5.427728e+002, 2.384517e+002
5.432549e+002, 2.376292e+002
5.437371e+002, 2.369472e+002
5.442192e+002, 2.368123e+002
5.447013e+002, 2.369243e+002
5.451834e+002, 2.372165e+002
5.456655e+002, 2.376502e+002
5.461476e+002, 2.377486e+002
5.466298e+002, 2.365951e+002
5.471119e+002, 2.355318e+002
5.475940e+002, 2.355844e+002
5.480761e+002, 2.379037e+002
5.485582e+002, 2.392468e+002
5.490403e+002, 2.386855e+002
5.495225e+002, 2.373756e+002
5.500046e+002, 2.367066e+002
5.504867e+002, 2.370441e+002
5.509688e+002, 2.372697e+002
5.514509e+002, 2.371315e+002
5.519330e+002, 2.367612e+002
5.524152e+002, 2.366963e+002
5.528973e+002, 2.369969e+002
5.533794e+002, 2.372212e+002
5.538615e+002, 2.370447e+002
5.543436e+002, 2.365661e+002
5.548257e+002, 2.363527e+002
5.553079e+002, 2.364160e+002
5.557900e+002, 2.365526e+002
5.562721e+002, 2.365953e+002
5.567542e+002, 2.365795e+002
5.572363e+002, 2.365424e+002
5.577184e+002, 2.364464e+002
5.582006e+002, 2.364690e+002
5.586827e+002, 2.368980e+002
5.591648e+002, 2.375171e+002
5.596469e+002, 2.379681e+002
5.601290e+002, 2.380568e+002
5.606111e+002, 2.380107e+002
5.610933e+002, 2.378993e+002
5.615754e+002, 2.377253e+002
5.620575e+002, 2.374864e+002
5.625396e+002, 2.370302e+002
5.630217e+002, 2.366507e+002
5.635038e+002, 2.364829e+002
5.639860e+002, 2.365898e+002
5.644681e+002, 2.366133e+002
5.649502e+002, 2.365541e+002
5.654323e+002, 2.364096e+002
5.659144e+002, 2.360446e+002
5.663965e+002, 2.353939e+002
5.668787e+002, 2.353764e+002
5.673608e+002, 2.363131e+002
5.678429e+002, 2.375576e+002
5.683250e+002, 2.378951e+002
5.688071e+002, 2.374695e+002
5.692892e+002, 2.370214e+002
5.697714e+002, 2.368717e+002
5.702535e+002, 2.368881e+002
5.707356e+002, 2.369000e+002
5.712177e+002, 2.369168e+002
5.716998e+002, 2.369940e+002
5.721819e+002, 2.373270e+002
5.726641e+002, 2.376228e+002
5.731462e+002, 2.375732e+002
5.736283e+002, 2.370419e+002
5.741104e+002, 2.367086e+002
5.745925e+002, 2.369460e+002
5.750746e+002, 2.373779e+002
5.755568e+002, 2.376640e+002
5.760389e+002, 2.375178e+002
5.765210e+002, 2.375910e+002
5.770031e+002, 2.380933e+002
5.774852e+002, 2.387537e+002
5.779673e+002, 2.389956e+002
5.784495e+002, 2.387181e+002
5.789316e+002, 2.383329e+002
5.794137e+002, 2.378460e+002
5.798958e+002, 2.373757e+002
5.803779e+002, 2.376552e+002
5.808600e+002, 2.387291e+002
5.813422e+002, 2.394492e+002
5.818243e+002, 2.385636e+002
5.823064e+002, 2.368177e+002
5.827885e+002, 2.359342e+002
5.832706e+002, 2.360577e+002
5.837527e+002, 2.366806e+002
5.842349e+002, 2.378161e+002
5.847170e+002, 2.390420e+002
5.851991e+002, 2.398124e+002
5.856812e+002, 2.398220e+002
5.861633e+002, 2.396448e+002
5.866454e+002, 2.393918e+002
5.871276e+002, 2.391328e+002
5.876097e+002, 2.389993e+002
5.880918e+002, 2.392276e+002
5.885739e+002, 2.393369e+002
5.890560e+002, 2.391040e+002
5.895381e+002, 2.386149e+002
5.900203e+002, 2.385220e+002
5.905024e+002, 2.389796e+002
5.909845e+002, 2.395372e+002
5.914666e+002, 2.400709e+002
5.919487e+002, 2.405915e+002
5.924308e+002, 2.405448e+002
5.929130e+002, 2.398168e+002
5.933951e+002, 2.391306e+002
5.938772e+002, 2.393496e+002
5.943593e+002, 2.402137e+002
5.948414e+002, 2.408552e+002
5.953235e+002, 2.410760e+002
5.958057e+002, 2.411777e+002
5.962878e+002, 2.415062e+002
5.967699e+002, 2.419285e+002
5.972520e+002, 2.421912e+002
5.977341e+002, 2.421029e+002
5.982162e+002, 2.419184e+002
5.986984e+002, 2.417062e+002
5.991805e+002, 2.414873e+002
5.996626e+002, 2.413274e+002
6.001447e+002, 2.409605e+002
6.006268e+002, 2.409290e+002
6.011089e+002, 2.416393e+002
6.015911e+002, 2.432122e+002
6.020732e+002, 2.439523e+002
6.025553e+002, 2.434331e+002
6.030374e+002, 2.427520e+002
6.035195e+002, 2.428350e+002
6.040016e+002, 2.437907e+002
6.044838e+002, 2.439953e+002
6.049659e+002, 2.431965e+002
6.054480e+002, 2.421900e+002
6.059301e+002, 2.420872e+002
6.064122e+002, 2.426822e+002
6.068943e+002, 2.431347e+002
6.073765e+002, 2.431950e+002
6.078586e+002, 2.430528e+002
6.083407e+002, 2.428124e+002
6.088228e+002, 2.425272e+002
6.093049e+002, 2.423347e+002
6.097870e+002, 2.423565e+002
6.102692e+002, 2.424308e+002
6.107513e+002, 2.424895e+002
6.112334e+002, 2.425276e+002
6.117155e+002, 2.425326e+002
6.121976e+002, 2.424308e+002
6.126797e+002, 2.423611e+002
6.131619e+002, 2.424010e+002
6.136440e+002, 2.425902e+002
6.141261e+002, 2.427109e+002
6.146082e+002, 2.427517e+002
6.150903e+002, 2.427466e+002
6.155724e+002, 2.427222e+002
6.160546e+002, 2.426789e+002
6.165367e+002, 2.426360e+002
6.170188e+002, 2.426116e+002
6.175009e+002, 2.425456e+002
6.179830e+002, 2.422184e+002
6.184651e+002, 2.417496e+002
6.189473e+002, 2.415757e+002
6.194294e+002, 2.420883e+002
6.199115e+002, 2.426856e+002
6.203936e+002, 2.427201e+002
6.208757e+002, 2.423499e+002
6.213578e+002, 2.420513e+002
6.218400e+002, 2.420224e+002
6.223221e+002, 2.421314e+002
6.228042e+002, 2.423981e+002
6.232863e+002, 2.428246e+002
6.237684e+002, 2.430465e+002
6.242505e+002, 2.428470e+002
6.247327e+002, 2.426159e+002
6.252148e+002, 2.425749e+002
6.256969e+002, 2.428277e+002
6.261790e+002, 2.427918e+002
6.266611e+002, 2.423163e+002
6.271432e+002, 2.418714e+002
6.276254e+002, 2.420584e+002
6.281075e+002, 2.428304e+002
6.285896e+002, 2.434394e+002
6.290717e+002, 2.437423e+002
6.295538e+002, 2.438775e+002
6.300359e+002, 2.440081e+002
6.305181e+002, 2.441131e+002
6.310002e+002, 2.441309e+002
6.314823e+002, 2.435466e+002
6.319644e+002, 2.433484e+002
6.324465e+002, 2.450417e+002
6.329286e+002, 2.478251e+002
6.334108e+002, 2.491630e+002
6.338929e+002, 2.466217e+002
6.343750e+002, 2.439790e+002
6.348571e+002, 2.428642e+002
6.353392e+002, 2.434039e+002
6.358214e+002, 2.435856e+002
6.363035e+002, 2.431483e+002
6.367856e+002, 2.427312e+002
6.372677e+002, 2.427571e+002
6.377498e+002, 2.433188e+002
6.382319e+002, 2.436318e+002
6.387141e+002, 2.436807e+002
6.391962e+002, 2.435615e+002
6.396783e+002, 2.432719e+002
6.401604e+002, 2.428811e+002
6.406425e+002, 2.426354e+002
6.411246e+002, 2.425542e+002
6.416068e+002, 2.427084e+002
6.420889e+002, 2.434189e+002
6.425710e+002, 2.443722e+002
6.430531e+002, 2.450149e+002
6.435352e+002, 2.450354e+002
6.440173e+002, 2.448158e+002
6.444995e+002, 2.443741e+002
6.449816e+002, 2.438021e+002
6.454637e+002, 2.433501e+002
6.459458e+002, 2.430056e+002
6.464279e+002, 2.428614e+002
6.469100e+002, 2.430213e+002
6.473922e+002, 2.434516e+002
6.478743e+002, 2.436399e+002
6.483564e+002, 2.434486e+002
6.488385e+002, 2.434283e+002
6.493206e+002, 2.441781e+002
6.498027e+002, 2.455363e+002
6.502849e+002, 2.458023e+002
6.507670e+002, 2.449163e+002
6.512491e+002, 2.438794e+002
6.517312e+002, 2.435329e+002
6.522133e+002, 2.436604e+002
6.526954e+002, 2.439540e+002
6.531776e+002, 2.443956e+002
6.536597e+002, 2.448451e+002
6.541418e+002, 2.452411e+002
6.546239e+002, 2.455962e+002
6.551060e+002, 2.459269e+002
6.555881e+002, 2.464950e+002
6.560703e+002, 2.467238e+002
6.565524e+002, 2.462864e+002
6.570345e+002, 2.455235e+002
6.575166e+002, 2.450159e+002
6.579987e+002, 2.447849e+002
6.584808e+002, 2.447602e+002
6.589630e+002, 2.449928e+002
6.594451e+002, 2.453881e+002
6.599272e+002, 2.456592e+002
6.604093e+002, 2.458067e+002
6.608914e+002, 2.457899e+002
6.613735e+002, 2.453548e+002
6.618557e+002, 2.448279e+002
6.623378e+002, 2.450137e+002
6.628199e+002, 2.458122e+002
6.633020e+002, 2.463068e+002
6.637841e+002, 2.454019e+002
6.642662e+002, 2.443033e+002
6.647484e+002, 2.440406e+002
6.652305e+002, 2.448586e+002
6.657126e+002, 2.456803e+002
6.661947e+002, 2.463552e+002
6.666768e+002, 2.468577e+002
6.671589e+002, 2.471870e+002
6.676411e+002, 2.473775e+002
6.681232e+002, 2.472722e+002
6.686053e+002, 2.467171e+002
6.690874e+002, 2.460687e+002
6.695695e+002, 2.457634e+002
6.700516e+002, 2.457953e+002
6.705338e+002, 2.460301e+002
6.710159e+002, 2.464980e+002
6.714980e+002, 2.470247e+002
6.719801e+002, 2.473809e+002
6.724622e+002, 2.475849e+002
6.729443e+002, 2.476771e+002
6.734265e+002, 2.476672e+002
6.739086e+002, 2.475645e+002
6.743907e+002, 2.472304e+002
6.748728e+002, 2.467913e+002
6.753549e+002, 2.466346e+002
6.758370e+002, 2.473428e+002
6.763192e+002, 2.478828e+002
6.768013e+002, 2.476770e+002
6.772834e+002, 2.468264e+002
6.777655e+002, 2.466527e+002
6.782476e+002, 2.474459e+002
6.787297e+002, 2.483237e+002
6.792119e+002, 2.488518e+002
6.796940e+002, 2.490460e+002
6.801761e+002, 2.491367e+002
6.806582e+002, 2.491139e+002
6.811403e+002, 2.490772e+002
6.816224e+002, 2.490803e+002
6.821046e+002, 2.491346e+002
6.825867e+002, 2.492589e+002
6.830688e+002, 2.494546e+002
6.835509e+002, 2.497271e+002
6.840330e+002, 2.502341e+002
6.845151e+002, 2.507442e+002
6.849973e+002, 2.510122e+002
6.854794e+002, 2.507677e+002
6.859615e+002, 2.506504e+002
6.864436e+002, 2.508284e+002
6.869257e+002, 2.511542e+002
6.874078e+002, 2.514644e+002
6.878900e+002, 2.517517e+002
6.883721e+002, 2.520768e+002
6.888542e+002, 2.524970e+002
6.893363e+002, 2.528993e+002
6.898184e+002, 2.530265e+002
6.903005e+002, 2.528922e+002
6.907827e+002, 2.526366e+002
6.912648e+002, 2.522102e+002
6.917469e+002, 2.517973e+002
6.922290e+002, 2.516240e+002
6.927111e+002, 2.516821e+002
6.931932e+002, 2.519607e+002
6.936754e+002, 2.526482e+002
6.941575e+002, 2.533777e+002
6.946396e+002, 2.539676e+002
6.951217e+002, 2.544090e+002
6.956038e+002, 2.547552e+002
6.960859e+002, 2.551030e+002
6.965681e+002, 2.552359e+002
6.970502e+002, 2.549340e+002
6.975323e+002, 2.541575e+002
6.980144e+002, 2.540652e+002
6.984965e+002, 2.548357e+002
6.989786e+002, 2.556558e+002
6.994608e+002, 2.558239e+002
6.999429e+002, 2.555072e+002
7.004250e+002, 2.554415e+002
7.009071e+002, 2.556733e+002
7.013892e+002, 2.560807e+002
7.018713e+002, 2.568944e+002
7.023535e+002, 2.576763e+002
7.028356e+002, 2.577488e+002
7.033177e+002, 2.566637e+002
7.037998e+002, 2.558859e+002
7.042819e+002, 2.563125e+002
7.047640e+002, 2.571661e+002
7.052462e+002, 2.575940e+002
7.057283e+002, 2.570654e+002
7.062104e+002, 2.569469e+002
7.066925e+002, 2.574652e+002
7.071746e+002, 2.582520e+002
7.076567e+002, 2.587314e+002
7.081389e+002, 2.588851e+002
7.086210e+002, 2.589531e+002
7.091031e+002, 2.589515e+002
7.095852e+002, 2.589652e+002
7.100673e+002, 2.591878e+002
7.105494e+002, 2.595506e+002
7.110316e+002, 2.598521e+002
7.115137e+002, 2.599764e+002
7.119958e+002, 2.600271e+002
7.124779e+002, 2.598660e+002
7.129600e+002, 2.596634e+002
7.134421e+002, 2.599369e+002
7.139243e+002, 2.616724e+002
7.144064e+002, 2.629878e+002
7.148885e+002, 2.631132e+002
7.153706e+002, 2.622393e+002
7.158527e+002, 2.619165e+002
7.163348e+002, 2.623383e+002
7.168170e+002, 2.627197e+002
7.172991e+002, 2.625378e+002
7.177812e+002, 2.619807e+002
7.182633e+002, 2.621570e+002
7.187454e+002, 2.630492e+002
7.192275e+002, 2.639039e+002
7.197097e+002, 2.641207e+002
7.201918e+002, 2.640482e+002
7.206739e+002, 2.640960e+002
7.211560e+002, 2.642985e+002
7.216381e+002, 2.645221e+002
7.221202e+002, 2.647291e+002
7.226024e+002, 2.649178e+002
7.230845e+002, 2.650741e+002
7.235666e+002, 2.651603e+002
7.240487e+002, 2.653289e+002
7.245308e+002, 2.655348e+002
7.250129e+002, 2.658892e+002
7.254951e+002, 2.665956e+002
7.259772e+002, 2.676988e+002
7.264593e+002, 2.684024e+002
7.269414e+002, 2.686203e+002
7.274235e+002, 2.685696e+002
7.279056e+002, 2.683616e+002
7.283878e+002, 2.680887e+002
7.288699e+002, 2.679185e+002
7.293520e+002, 2.678262e+002
7.298341e+002, 2.680215e+002
7.303162e+002, 2.689869e+002
7.307983e+002, 2.701928e+002
7.312805e+002, 2.709858e+002
7.317626e+002, 2.705739e+002
7.322447e+002, 2.705850e+002
7.327268e+002, 2.713629e+002
7.332089e+002, 2.725288e+002
7.336910e+002, 2.735136e+002
7.341732e+002, 2.743397e+002
7.346553e+002, 2.748672e+002
7.351374e+002, 2.749928e+002
7.356195e+002, 2.749131e+002
7.361016e+002, 2.749134e+002
7.365837e+002, 2.750169e+002
7.370659e+002, 2.753382e+002
7.375480e+002, 2.761328e+002
7.380301e+002, 2.769450e+002
7.385122e+002, 2.772797e+002
7.389943e+002, 2.772967e+002
7.394764e+002, 2.774047e+002
7.399586e+002, 2.780321e+002
7.404407e+002, 2.784640e+002
7.409228e+002, 2.781137e+002
7.414049e+002, 2.772895e+002
7.418870e+002, 2.775357e+002
7.423691e+002, 2.793899e+002
7.428513e+002, 2.808461e+002
7.433334e+002, 2.809575e+002
7.438155e+002, 2.801109e+002
7.442976e+002, 2.799012e+002
7.447797e+002, 2.803100e+002
7.452618e+002, 2.809543e+002
7.457440e+002, 2.818956e+002
7.462261e+002, 2.827646e+002
7.467082e+002, 2.829630e+002
7.471903e+002, 2.825679e+002
7.476724e+002, 2.824105e+002
7.481545e+002, 2.829971e+002
7.486367e+002, 2.838008e+002
7.491188e+002, 2.846719e+002
7.496009e+002, 2.856508e+002
7.500830e+002, 2.860578e+002
7.505651e+002, 2.855936e+002
7.510472e+002, 2.851093e+002
7.515294e+002, 2.851299e+002
7.520115e+002, 2.856388e+002
7.524936e+002, 2.861367e+002
7.529757e+002, 2.866243e+002
7.534578e+002, 2.871204e+002
7.539399e+002, 2.877479e+002
7.544221e+002, 2.883448e+002
7.549042e+002, 2.885316e+002
7.553863e+002, 2.882267e+002
7.558684e+002, 2.881778e+002
7.563505e+002, 2.889203e+002
7.568326e+002, 2.899782e+002
7.573148e+002, 2.910417e+002
7.577969e+002, 2.922447e+002
7.582790e+002, 2.929445e+002
7.587611e+002, 2.928268e+002
7.592432e+002, 2.926389e+002
7.597253e+002, 2.930813e+002
7.602075e+002, 2.941721e+002
7.606896e+002, 2.952176e+002
7.611717e+002, 2.962041e+002
7.616538e+002, 2.969824e+002
7.621359e+002, 2.971631e+002
7.626180e+002, 2.970942e+002
7.631002e+002, 2.974440e+002
7.635823e+002, 2.984630e+002
7.640644e+002, 2.995173e+002
7.645465e+002, 3.003297e+002
7.650286e+002, 3.009821e+002
7.655107e+002, 3.015548e+002
7.659929e+002, 3.019259e+002
7.664750e+002, 3.024289e+002
7.669571e+002, 3.030526e+002
7.674392e+002, 3.038361e+002
7.679213e+002, 3.048732e+002
7.684034e+002, 3.061744e+002
7.688856e+002, 3.075088e+002
7.693677e+002, 3.088658e+002
7.698498e+002, 3.101130e+002
7.703319e+002, 3.110060e+002
7.708140e+002, 3.116705e+002
7.712961e+002, 3.123456e+002
7.717783e+002, 3.129281e+002
7.722604e+002, 3.138535e+002
7.727425e+002, 3.157975e+002
7.732246e+002, 3.180897e+002
7.737067e+002, 3.197215e+002
7.741888e+002, 3.199042e+002
7.746710e+002, 3.204611e+002
7.751531e+002, 3.217570e+002
7.756352e+002, 3.233264e+002
7.761173e+002, 3.241939e+002
7.765994e+002, 3.243295e+002
7.770815e+002, 3.248688e+002
7.775637e+002, 3.261516e+002
7.780458e+002, 3.278327e+002
7.785279e+002, 3.295337e+002
7.790100e+002, 3.312415e+002
7.794921e+002, 3.329323e+002
7.799742e+002, 3.345193e+002
7.804564e+002, 3.361482e+002
7.809385e+002, 3.379627e+002
7.814206e+002, 3.398617e+002
7.819027e+002, 3.416184e+002
7.823848e+002, 3.429812e+002
7.828669e+002, 3.446051e+002
7.833491e+002, 3.467425e+002
7.838312e+002, 3.491036e+002
7.843133e+002, 3.508470e+002
7.847954e+002, 3.519868e+002
7.852775e+002, 3.533549e+002
7.857596e+002, 3.552909e+002
7.862418e+002, 3.574852e+002
7.867239e+002, 3.595845e+002
7.872060e+002, 3.615860e+002
7.876881e+002, 3.635464e+002
7.881702e+002, 3.652787e+002
7.886523e+002, 3.671377e+002
7.891345e+002, 3.693332e+002
7.896166e+002, 3.717536e+002
7.900987e+002, 3.741405e+002
7.905808e+002, 3.765119e+002
7.910629e+002, 3.787496e+002
7.915450e+002, 3.807770e+002
7.920272e+002, 3.826734e+002
7.925093e+002, 3.845682e+002
7.929914e+002, 3.864773e+002
7.934735e+002, 3.883067e+002
7.939556e+002, 3.899215e+002
7.944377e+002, 3.915719e+002
7.949199e+002, 3.937802e+002
7.954020e+002, 3.963002e+002
7.958841e+002, 3.983863e+002
7.963662e+002, 3.990404e+002
7.968483e+002, 4.000046e+002
7.973304e+002, 4.024902e+002
7.978126e+002, 4.057709e+002
7.982947e+002, 4.073774e+002
7.987768e+002, 4.066636e+002
7.992589e+002, 4.060958e+002
7.997410e+002, 4.064170e+002
8.002231e+002, 4.073086e+002
8.007053e+002, 4.079819e+002
8.011874e+002, 4.084736e+002
8.016695e+002, 4.090075e+002
8.021516e+002, 4.100282e+002
8.026337e+002, 4.108331e+002
8.031158e+002, 4.106118e+002
8.035980e+002, 4.096624e+002
8.040801e+002, 4.087927e+002
8.045622e+002, 4.082854e+002
8.050443e+002, 4.078611e+002
8.055264e+002, 4.076007e+002
8.060085e+002, 4.073444e+002
8.064907e+002, 4.065006e+002
8.069728e+002, 4.049440e+002
8.074549e+002, 4.034185e+002
8.079370e+002, 4.021795e+002
8.084191e+002, 4.010907e+002
8.089012e+002, 3.998767e+002
8.093834e+002, 3.985680e+002
8.098655e+002, 3.972740e+002
8.103476e+002, 3.958892e+002
8.108297e+002, 3.946856e+002
8.113118e+002, 3.942723e+002
8.117939e+002, 3.942139e+002
8.122761e+002, 3.931909e+002
8.127582e+002, 3.900192e+002
8.132403e+002, 3.872965e+002
8.137224e+002, 3.857603e+002
8.142045e+002, 3.849051e+002
8.146866e+002, 3.831118e+002
8.151688e+002, 3.803964e+002
8.156509e+002, 3.778347e+002
8.161330e+002, 3.757968e+002
8.166151e+002, 3.741562e+002
8.170972e+002, 3.728906e+002
8.175793e+002, 3.718802e+002
8.180615e+002, 3.707823e+002
8.185436e+002, 3.695221e+002
8.190257e+002, 3.680759e+002
8.195078e+002, 3.662012e+002
8.199899e+002, 3.641513e+002
8.204720e+002, 3.627071e+002
8.209542e+002, 3.623815e+002
8.214363e+002, 3.613864e+002
8.219184e+002, 3.590841e+002
8.224005e+002, 3.561634e+002
8.228826e+002, 3.542022e+002
8.233647e+002, 3.530521e+002
8.238469e+002, 3.519585e+002
8.243290e+002, 3.506119e+002
8.248111e+002, 3.492371e+002
8.252932e+002, 3.480905e+002
8.257753e+002, 3.470384e+002
8.262574e+002, 3.458515e+002
8.267396e+002, 3.442231e+002
8.272217e+002, 3.427318e+002
8.277038e+002, 3.414397e+002
8.281859e+002, 3.403449e+002
8.286681e+002, 3.394411e+002
8.291502e+002, 3.387560e+002
8.296323e+002, 3.381430e+002
8.301144e+002, 3.376267e+002
8.305966e+002, 3.370524e+002
8.310787e+002, 3.360668e+002
8.315608e+002, 3.348289e+002
8.320429e+002, 3.336882e+002
8.325250e+002, 3.327516e+002
8.330071e+002, 3.319814e+002
8.334893e+002, 3.316672e+002
8.339714e+002, 3.314072e+002
8.344535e+002, 3.304845e+002
8.349356e+002, 3.281649e+002
8.354177e+002, 3.266164e+002
8.358998e+002, 3.262286e+002
8.363820e+002, 3.263983e+002
8.368641e+002, 3.264028e+002
8.373462e+002, 3.262099e+002
8.378283e+002, 3.254369e+002
8.383104e+002, 3.238453e+002
8.387925e+002, 3.222700e+002
8.392747e+002, 3.216673e+002
8.397568e+002, 3.215360e+002
8.402389e+002, 3.211764e+002
8.407210e+002, 3.202583e+002
8.412031e+002, 3.193755e+002
8.416852e+002, 3.187115e+002
8.421674e+002, 3.180952e+002
8.426495e+002, 3.173148e+002
8.431316e+002, 3.162851e+002
8.436137e+002, 3.156687e+002
8.440958e+002, 3.155846e+002
8.445779e+002, 3.156329e+002
8.450601e+002, 3.154689e+002
8.455422e+002, 3.150697e+002
8.460243e+002, 3.143110e+002
8.465064e+002, 3.131032e+002
8.469885e+002, 3.119262e+002
8.474706e+002, 3.107677e+002
8.479528e+002, 3.099200e+002
8.484349e+002, 3.097160e+002
8.489170e+002, 3.104527e+002
8.493991e+002, 3.110153e+002
8.498812e+002, 3.115390e+002
8.503633e+002, 3.116183e+002
8.508455e+002, 3.104483e+002
8.513276e+002, 3.083490e+002
8.518097e+002, 3.078449e+002
8.522918e+002, 3.090932e+002
8.527739e+002, 3.102639e+002
8.532560e+002, 3.097000e+002
8.537382e+002, 3.084971e+002
8.542203e+002, 3.077474e+002
8.547024e+002, 3.076378e+002
8.551845e+002, 3.071832e+002
8.556666e+002, 3.056755e+002
8.561487e+002, 3.043458e+002
8.566309e+002, 3.038604e+002
8.571130e+002, 3.042124e+002
8.575951e+002, 3.042162e+002
8.580772e+002, 3.038465e+002
8.585593e+002, 3.034232e+002
8.590414e+002, 3.031749e+002
8.595236e+002, 3.029956e+002
8.600057e+002, 3.026959e+002
8.604878e+002, 3.022934e+002
8.609699e+002, 3.019490e+002
8.614520e+002, 3.018365e+002
8.619341e+002, 3.016960e+002
8.624163e+002, 3.013197e+002
8.628984e+002, 3.007666e+002
8.633805e+002, 3.005233e+002
8.638626e+002, 3.007233e+002
8.643447e+002, 3.007663e+002
8.648268e+002, 3.003546e+002
8.653090e+002, 2.996755e+002
8.657911e+002, 2.991454e+002
8.662732e+002, 2.987549e+002
8.667553e+002, 2.984898e+002
8.672374e+002, 2.985204e+002
8.677195e+002, 2.984890e+002
8.682017e+002, 2.980882e+002
8.686838e+002, 2.974482e+002
8.691659e+002, 2.969720e+002
8.696480e+002, 2.967931e+002
8.701301e+002, 2.965921e+002
8.706122e+002, 2.963521e+002
8.710944e+002, 2.960215e+002
8.715765e+002, 2.954370e+002
8.720586e+002, 2.946354e+002
8.725407e+002, 2.938615e+002
8.730228e+002, 2.931531e+002
8.735049e+002, 2.925939e+002
8.739871e+002, 2.923962e+002
8.744692e+002, 2.923622e+002
8.749513e+002, 2.921873e+002
8.754334e+002, 2.917421e+002
8.759155e+002, 2.912069e+002
8.763976e+002, 2.904715e+002
8.768798e+002, 2.897794e+002
8.773619e+002, 2.895042e+002
8.778440e+002, 2.896858e+002
8.783261e+002, 2.894880e+002
8.788082e+002, 2.887552e+002
8.792903e+002, 2.879296e+002
8.797725e+002, 2.873831e+002
8.802546e+002, 2.870775e+002
8.807367e+002, 2.870283e+002
8.812188e+002, 2.873165e+002
8.817009e+002, 2.874420e+002
8.821830e+002, 2.872754e+002
8.826652e+002, 2.868239e+002
8.831473e+002, 2.860396e+002
8.836294e+002, 2.848181e+002
8.841115e+002, 2.839081e+002
8.845936e+002, 2.833149e+002
8.850757e+002, 2.830154e+002
8.855579e+002, 2.831598e+002
8.860400e+002, 2.835286e+002
8.865221e+002, 2.837554e+002
8.870042e+002, 2.838106e+002
8.874863e+002, 2.835713e+002
8.879684e+002, 2.825772e+002
8.884506e+002, 2.816293e+002
8.889327e+002, 2.812895e+002
8.894148e+002, 2.815115e+002
8.898969e+002, 2.813981e+002
8.903790e+002, 2.808247e+002
8.908611e+002, 2.802913e+002
8.913433e+002, 2.800245e+002
8.918254e+002, 2.799195e+002
8.923075e+002, 2.797246e+002
8.927896e+002, 2.794413e+002
8.932717e+002, 2.790949e+002
8.937538e+002, 2.784349e+002
8.942360e+002, 2.779635e+002
8.947181e+002, 2.782627e+002
8.952002e+002, 2.789642e+002
8.956823e+002, 2.790580e+002
8.961644e+002, 2.780827e+002
8.966465e+002, 2.773895e+002
8.971287e+002, 2.772982e+002
8.976108e+002, 2.774511e+002
8.980929e+002, 2.771252e+002
8.985750e+002, 2.764447e+002
8.990571e+002, 2.759981e+002
8.995392e+002, 2.759789e+002
9.000214e+002, 2.761028e+002
9.005035e+002, 2.764841e+002
9.009856e+002, 2.767215e+002
9.014677e+002, 2.763032e+002
9.019498e+002, 2.743054e+002
9.024319e+002, 2.732127e+002
9.029141e+002, 2.734691e+002
9.033962e+002, 2.739934e+002
9.038783e+002, 2.737109e+002
9.043604e+002, 2.727204e+002
9.048425e+002, 2.720128e+002
9.053246e+002, 2.716468e+002
9.058068e+002, 2.714818e+002
9.062889e+002, 2.715440e+002
9.067710e+002, 2.716442e+002
9.072531e+002, 2.715670e+002
9.077352e+002, 2.712737e+002
9.082173e+002, 2.711208e+002
9.086995e+002, 2.713380e+002
9.091816e+002, 2.714447e+002
9.096637e+002, 2.711632e+002
9.101458e+002, 2.705808e+002
9.106279e+002, 2.703579e+002
9.111100e+002, 2.704741e+002
9.115922e+002, 2.704985e+002
9.120743e+002, 2.699748e+002
9.125564e+002, 2.694083e+002
9.130385e+002, 2.694525e+002
9.135206e+002, 2.698966e+002
9.140027e+002, 2.700888e+002
9.144849e+002, 2.696253e+002
9.149670e+002, 2.691725e+002
9.154491e+002, 2.688729e+002
9.159312e+002, 2.686410e+002
9.164133e+002, 2.682217e+002
9.168954e+002, 2.676225e+002
9.173776e+002, 2.673185e+002
9.178597e+002, 2.674570e+002
9.183418e+002, 2.678117e+002
9.188239e+002, 2.682228e+002
9.193060e+002, 2.686564e+002
9.197881e+002, 2.690873e+002
9.202703e+002, 2.696578e+002
9.207524e+002, 2.698953e+002
9.212345e+002, 2.695852e+002
9.217166e+002, 2.690901e+002
9.221987e+002, 2.686351e+002
9.226808e+002, 2.682117e+002
9.231630e+002, 2.681531e+002
9.236451e+002, 2.685039e+002
9.241272e+002, 2.687960e+002
9.246093e+002, 2.683104e+002
9.250914e+002, 2.677404e+002
9.255735e+002, 2.680556e+002
9.260557e+002, 2.692989e+002
9.265378e+002, 2.702271e+002
9.270199e+002, 2.703813e+002
9.275020e+002, 2.702518e+002
9.279841e+002, 2.698861e+002
9.284662e+002, 2.693698e+002
9.289484e+002, 2.692178e+002
9.294305e+002, 2.694268e+002
9.299126e+002, 2.698233e+002
9.303947e+002, 2.704340e+002
9.308768e+002, 2.710760e+002
9.313589e+002, 2.716348e+002
9.318411e+002, 2.720481e+002
9.323232e+002, 2.721637e+002
9.328053e+002, 2.712967e+002
9.332874e+002, 2.710215e+002
9.337695e+002, 2.719230e+002
9.342516e+002, 2.732065e+002
9.347338e+002, 2.735337e+002
9.352159e+002, 2.729132e+002
9.356980e+002, 2.727351e+002
9.361801e+002, 2.732690e+002
9.366622e+002, 2.739998e+002
9.371443e+002, 2.743681e+002
9.376265e+002, 2.746454e+002
9.381086e+002, 2.751695e+002
9.385907e+002, 2.760601e+002
9.390728e+002, 2.769534e+002
9.395549e+002, 2.777827e+002
9.400370e+002, 2.785892e+002
9.405192e+002, 2.794119e+002
9.410013e+002, 2.802404e+002
9.414834e+002, 2.808595e+002
9.419655e+002, 2.812767e+002
9.424476e+002, 2.816843e+002
9.429297e+002, 2.820133e+002
9.434119e+002, 2.825482e+002
9.438940e+002, 2.837180e+002
9.443761e+002, 2.853830e+002
9.448582e+002, 2.868897e+002
9.453403e+002, 2.880536e+002
9.458224e+002, 2.890931e+002
9.463046e+002, 2.900245e+002
9.467867e+002, 2.908721e+002
9.472688e+002, 2.915820e+002
9.477509e+002, 2.922018e+002
9.482330e+002, 2.931176e+002
9.487151e+002, 2.944991e+002
9.491973e+002, 2.960466e+002
9.496794e+002, 2.977468e+002
9.501615e+002, 2.993406e+002
9.506436e+002, 3.004711e+002
9.511257e+002, 3.005331e+002
9.516078e+002, 3.012484e+002
9.520900e+002, 3.029551e+002
9.525721e+002, 3.047910e+002
9.530542e+002, 3.059610e+002
9.535363e+002, 3.065902e+002
9.540184e+002, 3.074639e+002
9.545005e+002, 3.085966e+002
9.549827e+002, 3.097554e+002
9.554648e+002, 3.109948e+002
9.559469e+002, 3.120086e+002
9.564290e+002, 3.124525e+002
9.569111e+002, 3.123563e+002
9.573932e+002, 3.124220e+002
9.578754e+002, 3.127347e+002
9.583575e+002, 3.130827e+002
9.588396e+002, 3.134762e+002
9.593217e+002, 3.137719e+002
9.598038e+002, 3.135625e+002
9.602859e+002, 3.129453e+002
9.607681e+002, 3.122477e+002
9.612502e+002, 3.114789e+002
9.617323e+002, 3.108505e+002
9.622144e+002, 3.106537e+002
9.626965e+002, 3.105892e+002
9.631786e+002, 3.102557e+002
9.636608e+002, 3.095300e+002
9.641429e+002, 3.088835e+002
9.646250e+002, 3.083541e+002
9.651071e+002, 3.078698e+002
9.655892e+002, 3.074630e+002
9.660714e+002, 3.070306e+002
9.665535e+002, 3.062681e+002
9.670356e+002, 3.051687e+002
9.675177e+002, 3.040674e+002
9.679998e+002, 3.033102e+002
9.684819e+002, 3.024276e+002
9.689641e+002, 3.009426e+002
9.694462e+002, 2.990221e+002
9.699283e+002, 2.979997e+002
9.704104e+002, 2.980278e+002
9.708925e+002, 2.977600e+002
9.713746e+002, 2.965075e+002
9.718568e+002, 2.948829e+002
9.723389e+002, 2.937760e+002
9.728210e+002, 2.930041e+002
9.733031e+002, 2.921723e+002
9.737852e+002, 2.909994e+002
9.742673e+002, 2.899454e+002
9.747495e+002, 2.891530e+002
9.752316e+002, 2.884525e+002
9.757137e+002, 2.876759e+002
9.761958e+002, 2.868158e+002
9.766779e+002, 2.859788e+002
9.771600e+002, 2.851880e+002
9.776422e+002, 2.842411e+002
9.781243e+002, 2.826938e+002
9.786064e+002, 2.810472e+002
9.790885e+002, 2.798254e+002
9.795706e+002, 2.790849e+002
9.800527e+002, 2.785245e+002
9.805349e+002, 2.782436e+002
9.810170e+002, 2.779160e+002
9.814991e+002, 2.774377e+002
9.819812e+002, 2.768188e+002
9.824633e+002, 2.760097e+002
9.829454e+002, 2.750573e+002
9.834276e+002, 2.742637e+002
9.839097e+002, 2.738268e+002
9.843918e+002, 2.734673e+002
9.848739e+002, 2.729611e+002
9.853560e+002, 2.724023e+002
9.858381e+002, 2.719294e+002
9.863203e+002, 2.714667e+002
9.868024e+002, 2.713221e+002
9.872845e+002, 2.716214e+002
9.877666e+002, 2.719581e+002
9.882487e+002, 2.719242e+002
9.887308e+002, 2.715975e+002
9.892130e+002, 2.710587e+002
9.896951e+002, 2.703356e+002
9.901772e+002, 2.698519e+002
9.906593e+002, 2.701123e+002
9.911414e+002, 2.704123e+002
9.916235e+002, 2.703141e+002
9.921057e+002, 2.698993e+002
9.925878e+002, 2.696743e+002
9.930699e+002, 2.696671e+002
9.935520e+002, 2.695920e+002
9.940341e+002, 2.692883e+002
9.945162e+002, 2.689549e+002
9.949984e+002, 2.689719e+002
9.954805e+002, 2.691521e+002
9.959626e+002, 2.691396e+002
9.964447e+002, 2.687070e+002
9.969268e+002, 2.682664e+002
9.974089e+002, 2.677409e+002
9.978911e+002, 2.673961e+002
9.983732e+002, 2.677123e+002
9.988553e+002, 2.686437e+002
9.993374e+002, 2.684345e+002
9.998195e+002, 2.670043e+002
1.000302e+003, 2.658268e+002
1.000784e+003, 2.663139e+002
1.001266e+003, 2.672797e+002
1.001748e+003, 2.677228e+002
1.002230e+003, 2.676591e+002
1.002712e+003, 2.678617e+002
1.003194e+003, 2.686276e+002
1.003676e+003, 2.690544e+002
1.004159e+003, 2.687506e+002
1.004641e+003, 2.681827e+002
1.005123e+003, 2.684655e+002
1.005605e+003, 2.692905e+002
1.006087e+003, 2.696889e+002
1.006569e+003, 2.692291e+002
1.007051e+003, 2.687168e+002
1.007533e+003, 2.685267e+002
1.008016e+003, 2.684877e+002
1.008498e+003, 2.683964e+002
1.008980e+003, 2.681811e+002
1.009462e+003, 2.684814e+002
1.009944e+003, 2.694034e+002
1.010426e+003, 2.700979e+002
1.010908e+003, 2.696993e+002
1.011390e+003, 2.688472e+002
1.011872e+003, 2.682122e+002
1.012355e+003, 2.678546e+002
1.012837e+003, 2.679152e+002
1.013319e+003, 2.690522e+002
1.013801e+003, 2.698018e+002
1.014283e+003, 2.697656e+002
1.014765e+003, 2.692812e+002
1.015247e+003, 2.689104e+002
1.015729e+003, 2.686490e+002
1.016211e+003, 2.684828e+002
1.016694e+003, 2.683976e+002
1.017176e+003, 2.684754e+002
1.017658e+003, 2.689577e+002
1.018140e+003, 2.695226e+002
1.018622e+003, 2.699133e+002
1.019104e+003, 2.701208e+002
1.019586e+003, 2.699825e+002
1.020068e+003, 2.693275e+002
1.020551e+003, 2.689126e+002
1.021033e+003, 2.692913e+002
1.021515e+003, 2.700963e+002
1.021997e+003, 2.706043e+002
1.022479e+003, 2.708438e+002
1.022961e+003, 2.708893e+002
1.023443e+003, 2.708125e+002
1.023925e+003, 2.704781e+002
1.024407e+003, 2.694090e+002
1.024890e+003, 2.683619e+002
1.025372e+003, 2.684616e+002
1.025854e+003, 2.697509e+002
1.026336e+003, 2.705001e+002
1.026818e+003, 2.705057e+002
1.027300e+003, 2.704244e+002
1.027782e+003, 2.709535e+002
1.028264e+003, 2.715991e+002
1.028746e+003, 2.718999e+002
1.029229e+003, 2.718085e+002
1.029711e+003, 2.715235e+002
1.030193e+003, 2.707760e+002
1.030675e+003, 2.705057e+002
1.031157e+003, 2.712117e+002
1.031639e+003, 2.723740e+002
1.032121e+003, 2.728509e+002
1.032603e+003, 2.727919e+002
1.033086e+003, 2.726396e+002
1.033568e+003, 2.725023e+002
1.034050e+003, 2.723803e+002
1.034532e+003, 2.723405e+002
1.035014e+003, 2.722722e+002
1.035496e+003, 2.720154e+002
1.035978e+003, 2.714865e+002
1.036460e+003, 2.715168e+002
1.036943e+003, 2.721500e+002
1.037425e+003, 2.726724e+002
1.037907e+003, 2.724391e+002
1.038389e+003, 2.719144e+002
1.038871e+003, 2.714512e+002
1.039353e+003, 2.711123e+002
1.039835e+003, 2.711168e+002
1.040317e+003, 2.717040e+002
1.040799e+003, 2.723049e+002
1.041281e+003, 2.728737e+002
1.041764e+003, 2.733623e+002
1.042246e+003, 2.736750e+002
1.042728e+003, 2.738474e+002
1.043210e+003, 2.739965e+002
1.043692e+003, 2.741513e+002
1.044174e+003, 2.742195e+002
1.044656e+003, 2.741050e+002
1.045138e+003, 2.739255e+002
1.045621e+003, 2.737527e+002
1.046103e+003, 2.735880e+002
1.046585e+003, 2.734122e+002
1.047067e+003, 2.732261e+002
1.047549e+003, 2.730205e+002
1.048031e+003, 2.726971e+002
1.048513e+003, 2.724855e+002
1.048995e+003, 2.728855e+002
1.049478e+003, 2.735328e+002
1.049960e+003, 2.738071e+002
1.050442e+003, 2.732079e+002
1.050924e+003, 2.727355e+002
1.051406e+003, 2.723950e+002
1.051888e+003, 2.721960e+002
1.052370e+003, 2.722047e+002
1.052852e+003, 2.723564e+002
1.053334e+003, 2.724571e+002
1.053817e+003, 2.724936e+002
1.054299e+003, 2.724229e+002
1.054781e+003, 2.718348e+002
1.055263e+003, 2.715556e+002
1.055745e+003, 2.722807e+002
1.056227e+003, 2.734896e+002
1.056709e+003, 2.739393e+002
1.057191e+003, 2.735905e+002
1.057673e+003, 2.731876e+002
1.058156e+003, 2.728533e+002
1.058638e+003, 2.726242e+002
1.059120e+003, 2.726611e+002
1.059602e+003, 2.727432e+002
1.060084e+003, 2.726158e+002
1.060566e+003, 2.722024e+002
1.061048e+003, 2.717547e+002
1.061530e+003, 2.711215e+002
1.062013e+003, 2.708662e+002
1.062495e+003, 2.715135e+002
1.062977e+003, 2.725249e+002
1.063459e+003, 2.723578e+002
1.063941e+003, 2.714252e+002
1.064423e+003, 2.709151e+002
1.064905e+003, 2.716309e+002
1.065387e+003, 2.723724e+002
1.065870e+003, 2.729581e+002
1.066352e+003, 2.732535e+002
1.066834e+003, 2.729831e+002
1.067316e+003, 2.721422e+002
1.067798e+003, 2.717456e+002
1.068280e+003, 2.718271e+002
1.068762e+003, 2.719682e+002
1.069244e+003, 2.718412e+002
1.069726e+003, 2.716680e+002
1.070208e+003, 2.716303e+002
1.070691e+003, 2.717054e+002
1.071173e+003, 2.717694e+002
1.071655e+003, 2.718451e+002
1.072137e+003, 2.718053e+002
1.072619e+003, 2.715918e+002
1.073101e+003, 2.713524e+002
1.073583e+003, 2.711909e+002
1.074065e+003, 2.711747e+002
1.074548e+003, 2.714576e+002
1.075030e+003, 2.720931e+002
1.075512e+003, 2.727530e+002
1.075994e+003, 2.737527e+002
1.076476e+003, 2.742044e+002
1.076958e+003, 2.735610e+002
1.077440e+003, 2.721608e+002
1.077922e+003, 2.711284e+002
1.078405e+003, 2.704602e+002
1.078887e+003, 2.701440e+002
1.079369e+003, 2.702293e+002
1.079851e+003, 2.705660e+002
1.080333e+003, 2.715680e+002
1.080815e+003, 2.724535e+002
1.081297e+003, 2.722623e+002
1.081779e+003, 2.706656e+002
1.082261e+003, 2.699788e+002
1.082744e+003, 2.702575e+002
1.083226e+003, 2.706623e+002
1.083708e+003, 2.706013e+002
1.084190e+003, 2.703378e+002
1.084672e+003, 2.699359e+002
1.085154e+003, 2.695517e+002
1.085636e+003, 2.697465e+002
1.086118e+003, 2.711952e+002
1.086601e+003, 2.718746e+002
1.087083e+003, 2.713316e+002
1.087565e+003, 2.704746e+002
1.088047e+003, 2.705486e+002
1.088529e+003, 2.711431e+002
1.089011e+003, 2.713739e+002
1.089493e+003, 2.711428e+002
1.089975e+003, 2.709098e+002
1.090458e+003, 2.708706e+002
1.090940e+003, 2.708507e+002
1.091422e+003, 2.707581e+002
1.091904e+003, 2.706511e+002
1.092386e+003, 2.707876e+002
1.092868e+003, 2.711087e+002
1.093350e+003, 2.712001e+002
1.093832e+003, 2.708432e+002
1.094314e+003, 2.705541e+002
1.094797e+003, 2.709024e+002
1.095279e+003, 2.713326e+002
1.095761e+003, 2.712357e+002
1.096243e+003, 2.705495e+002
1.096725e+003, 2.703825e+002
1.097207e+003, 2.707733e+002
1.097689e+003, 2.712807e+002
1.098171e+003, 2.718657e+002
1.098653e+003, 2.722365e+002
1.099136e+003, 2.717591e+002
1.099618e+003, 2.708888e+002
1.100100e+003, 2.705297e+002
1.100582e+003, 2.713063e+002
1.101064e+003, 2.717577e+002
1.101546e+003, 2.717759e+002
1.102028e+003, 2.716349e+002
1.102510e+003, 2.715446e+002
1.102993e+003, 2.714937e+002
1.103475e+003, 2.715000e+002
1.103957e+003, 2.715401e+002
1.104439e+003, 2.714796e+002
1.104921e+003, 2.710390e+002
1.105403e+003, 2.707992e+002
1.105885e+003, 2.709863e+002
1.106367e+003, 2.713574e+002
1.106849e+003, 2.714362e+002
1.107332e+003, 2.713011e+002
1.107814e+003, 2.713807e+002
1.108296e+003, 2.717540e+002
1.108778e+003, 2.721712e+002
1.109260e+003, 2.726539e+002
1.109742e+003, 2.729578e+002
1.110224e+003, 2.728214e+002
1.110706e+003, 2.723613e+002
1.111188e+003, 2.721942e+002
1.111671e+003, 2.723235e+002
1.112153e+003, 2.723896e+002
1.112635e+003, 2.722259e+002
1.113117e+003, 2.720838e+002
1.113599e+003, 2.723032e+002
1.114081e+003, 2.726336e+002
1.114563e+003, 2.727927e+002
1.115045e+003, 2.727520e+002
1.115528e+003, 2.724947e+002
1.116010e+003, 2.719613e+002
1.116492e+003, 2.714507e+002
1.116974e+003, 2.710790e+002
1.117456e+003, 2.708805e+002
1.117938e+003, 2.709352e+002
1.118420e+003, 2.712046e+002
1.118902e+003, 2.716031e+002
1.119385e+003, 2.725993e+002
1.119867e+003, 2.728960e+002
1.120349e+003, 2.721652e+002
1.120831e+003, 2.712812e+002
1.121313e+003, 2.710678e+002
1.121795e+003, 2.713329e+002
1.122277e+003, 2.715701e+002
1.122759e+003, 2.717549e+002
1.123241e+003, 2.718676e+002
1.123724e+003, 2.718128e+002
1.124206e+003, 2.717868e+002
1.124688e+003, 2.718381e+002
1.125170e+003, 2.719465e+002
1.125652e+003, 2.721830e+002
1.126134e+003, 2.724854e+002
1.126616e+003, 2.722928e+002
1.127098e+003, 2.715225e+002
1.127580e+003, 2.709007e+002
1.128063e+003, 2.710439e+002
1.128545e+003, 2.713751e+002
1.129027e+003, 2.715037e+002
1.129509e+003, 2.715265e+002
1.129991e+003, 2.718778e+002
1.130473e+003, 2.725716e+002
1.130955e+003, 2.730864e+002
1.131437e+003, 2.733266e+002
1.131920e+003, 2.732212e+002
1.132402e+003, 2.723260e+002
1.132884e+003, 2.713102e+002
1.133366e+003, 2.708760e+002
1.133848e+003, 2.711123e+002
1.134330e+003, 2.712893e+002
1.134812e+003, 2.713746e+002
1.135294e+003, 2.715859e+002
1.135776e+003, 2.720955e+002
1.136259e+003, 2.726428e+002
1.136741e+003, 2.727992e+002
1.137223e+003, 2.727841e+002
1.137705e+003, 2.729760e+002
1.138187e+003, 2.737348e+002
1.138669e+003, 2.739564e+002
1.139151e+003, 2.734014e+002
1.139633e+003, 2.729079e+002
1.140115e+003, 2.732448e+002
1.140598e+003, 2.739286e+002
1.141080e+003, 2.738840e+002
1.141562e+003, 2.733266e+002
1.142044e+003, 2.728573e+002
1.142526e+003, 2.726822e+002
1.143008e+003, 2.726054e+002
1.143490e+003, 2.723889e+002
1.143972e+003, 2.725983e+002
1.144455e+003, 2.744435e+002
1.144937e+003, 2.771182e+002
1.145419e+003, 2.776060e+002
1.145901e+003, 2.760728e+002
1.146383e+003, 2.746621e+002
1.146865e+003, 2.748419e+002
1.147347e+003, 2.747809e+002
1.147829e+003, 2.736306e+002
1.148312e+003, 2.722192e+002
1.148794e+003, 2.719961e+002
1.149276e+003, 2.727565e+002
1.149758e+003, 2.730757e+002
1.150240e+003, 2.727789e+002
1.150722e+003, 2.725660e+002
1.151204e+003, 2.729396e+002
1.151686e+003, 2.734737e+002
1.152168e+003, 2.740301e+002
1.152651e+003, 2.745326e+002
1.153133e+003, 2.747260e+002
1.153615e+003, 2.746218e+002
1.154097e+003, 2.745168e+002
1.154579e+003, 2.744773e+002
1.155061e+003, 2.744491e+002
1.155543e+003, 2.743478e+002
1.156025e+003, 2.742698e+002
1.156507e+003, 2.743859e+002
1.156990e+003, 2.746510e+002
1.157472e+003, 2.744337e+002
1.157954e+003, 2.736748e+002
1.158436e+003, 2.734319e+002
1.158918e+003, 2.742519e+002
1.159400e+003, 2.752772e+002
1.159882e+003, 2.758435e+002
1.160364e+003, 2.760163e+002
1.160847e+003, 2.757377e+002
1.161329e+003, 2.748799e+002
1.161811e+003, 2.745606e+002
1.162293e+003, 2.748444e+002
1.162775e+003, 2.752872e+002
1.163257e+003, 2.757770e+002
1.163739e+003, 2.761613e+002
1.164221e+003, 2.760948e+002
1.164703e+003, 2.758419e+002
1.165186e+003, 2.758744e+002
1.165668e+003, 2.765638e+002
1.166150e+003, 2.768574e+002
1.166632e+003, 2.767173e+002
1.167114e+003, 2.763093e+002
1.167596e+003, 2.753866e+002
1.168078e+003, 2.744952e+002
1.168560e+003, 2.748144e+002
1.169042e+003, 2.758984e+002
1.169525e+003, 2.765541e+002
1.170007e+003, 2.761240e+002
1.170489e+003, 2.758202e+002
1.170971e+003, 2.757488e+002
1.171453e+003, 2.756916e+002
1.171935e+003, 2.752071e+002
1.172417e+003, 2.746895e+002
1.172899e+003, 2.751303e+002
1.173382e+003, 2.763394e+002
1.173864e+003, 2.772019e+002
1.174346e+003, 2.770939e+002
1.174828e+003, 2.769719e+002
1.175310e+003, 2.769831e+002
1.175792e+003, 2.769927e+002
1.176274e+003, 2.768197e+002
1.176756e+003, 2.765118e+002
1.177239e+003, 2.760745e+002
1.177721e+003, 2.755419e+002
1.178203e+003, 2.752962e+002
1.178685e+003, 2.756513e+002
1.179167e+003, 2.761364e+002
1.179649e+003, 2.767120e+002
1.180131e+003, 2.772615e+002
1.180613e+003, 2.775392e+002
1.181095e+003, 2.776254e+002
1.181578e+003, 2.777563e+002
1.182060e+003, 2.779710e+002
1.182542e+003, 2.781804e+002
1.183024e+003, 2.784464e+002
1.183506e+003, 2.785583e+002
1.183988e+003, 2.783408e+002
1.184470e+003, 2.780160e+002
1.184952e+003, 2.784019e+002
1.185434e+003, 2.791847e+002
1.185917e+003, 2.791176e+002
1.186399e+003, 2.777238e+002
1.186881e+003, 2.764923e+002
1.187363e+003, 2.759414e+002
1.187845e+003, 2.760032e+002
1.188327e+003, 2.768384e+002
1.188809e+003, 2.781431e+002
1.189291e+003, 2.787672e+002
1.189774e+003, 2.788143e+002
1.190256e+003, 2.787846e+002
1.190738e+003, 2.788257e+002
1.191220e+003, 2.788358e+002
1.191702e+003, 2.787712e+002
1.192184e+003, 2.786327e+002
1.192666e+003, 2.782690e+002
1.193148e+003, 2.778184e+002
1.193630e+003, 2.785023e+002
1.194113e+003, 2.800837e+002
1.194595e+003, 2.811548e+002
1.195077e+003, 2.808561e+002
1.195559e+003, 2.804362e+002
1.196041e+003, 2.806532e+002
1.196523e+003, 2.808729e+002
1.197005e+003, 2.805215e+002
1.197487e+003, 2.796527e+002
1.197969e+003, 2.791513e+002
1.198452e+003, 2.790017e+002
1.198934e+003, 2.790423e+002
1.199416e+003, 2.787755e+002
1.199898e+003, 2.792090e+002
1.200380e+003, 2.819000e+002
1.200862e+003, 2.847386e+002
1.201344e+003, 2.855263e+002
1.201826e+003, 2.842739e+002
1.202309e+003, 2.830729e+002
1.202791e+003, 2.819565e+002
1.203273e+003, 2.811643e+002
1.203755e+003, 2.808681e+002
1.204237e+003, 2.808786e+002
1.204719e+003, 2.813213e+002
1.205201e+003, 2.818846e+002
1.205683e+003, 2.822466e+002
1.206166e+003, 2.824006e+002
1.206648e+003, 2.821991e+002
1.207130e+003, 2.816627e+002
1.207612e+003, 2.812102e+002
1.208094e+003, 2.810762e+002
1.208576e+003, 2.811402e+002
1.209058e+003, 2.814737e+002
1.209540e+003, 2.818977e+002
1.210022e+003, 2.822415e+002
1.210505e+003, 2.824984e+002
1.210987e+003, 2.822029e+002
1.211469e+003, 2.813425e+002
1.211951e+003, 2.807645e+002
1.212433e+003, 2.814557e+002
1.212915e+003, 2.821369e+002
1.213397e+003, 2.819016e+002
1.213879e+003, 2.812921e+002
1.214361e+003, 2.812651e+002
1.214844e+003, 2.817735e+002
1.215326e+003, 2.820509e+002
1.215808e+003, 2.820093e+002
1.216290e+003, 2.818991e+002
1.216772e+003, 2.816217e+002
1.217254e+003, 2.816203e+002
1.217736e+003, 2.823596e+002
1.218218e+003, 2.834144e+002
1.218701e+003, 2.839582e+002
1.219183e+003, 2.840067e+002
1.219665e+003, 2.837226e+002
1.220147e+003, 2.831123e+002
1.220629e+003, 2.825567e+002
1.221111e+003, 2.821553e+002
1.221593e+003, 2.820479e+002
1.222075e+003, 2.824477e+002
1.222557e+003, 2.830996e+002
1.223040e+003, 2.833128e+002
1.223522e+003, 2.831568e+002
1.224004e+003, 2.831920e+002
1.224486e+003, 2.835411e+002
1.224968e+003, 2.838667e+002
1.225450e+003, 2.840618e+002
1.225932e+003, 2.840515e+002
1.226414e+003, 2.837003e+002
1.226896e+003, 2.831991e+002
1.227379e+003, 2.832183e+002
1.227861e+003, 2.836418e+002
1.228343e+003, 2.838033e+002
1.228825e+003, 2.835151e+002
1.229307e+003, 2.832374e+002
1.229789e+003, 2.831215e+002
1.230271e+003, 2.832114e+002
1.230753e+003, 2.835830e+002
1.231236e+003, 2.841234e+002
1.231718e+003, 2.844467e+002
1.232200e+003, 2.845968e+002
1.232682e+003, 2.847784e+002
1.233164e+003, 2.850944e+002
1.233646e+003, 2.851858e+002
1.234128e+003, 2.842986e+002
1.234610e+003, 2.838594e+002
1.235093e+003, 2.848334e+002
1.235575e+003, 2.865437e+002
1.236057e+003, 2.866710e+002
1.236539e+003, 2.856349e+002
1.237021e+003, 2.846699e+002
1.237503e+003, 2.839041e+002
1.237985e+003, 2.841104e+002
1.238467e+003, 2.870455e+002
1.238949e+003, 2.891688e+002
1.239432e+003, 2.885645e+002
1.239914e+003, 2.862720e+002
1.240396e+003, 2.852632e+002
1.240878e+003, 2.852271e+002
1.241360e+003, 2.853921e+002
1.241842e+003, 2.856732e+002
1.242324e+003, 2.856890e+002
1.242806e+003, 2.851667e+002
1.243288e+003, 2.846792e+002
1.243771e+003, 2.844542e+002
1.244253e+003, 2.845034e+002
1.244735e+003, 2.851012e+002
1.245217e+003, 2.859561e+002
1.245699e+003, 2.863320e+002
1.246181e+003, 2.857618e+002
1.246663e+003, 2.854609e+002
1.247145e+003, 2.855792e+002
1.247628e+003, 2.859458e+002
1.248110e+003, 2.866411e+002
1.248592e+003, 2.873534e+002
1.249074e+003, 2.871947e+002
1.249556e+003, 2.865994e+002
1.250038e+003, 2.864422e+002
1.250520e+003, 2.872168e+002
1.251002e+003, 2.877963e+002
1.251484e+003, 2.882231e+002
1.251967e+003, 2.881392e+002
1.252449e+003, 2.868332e+002
1.252931e+003, 2.854390e+002
1.253413e+003, 2.862403e+002
1.253895e+003, 2.881081e+002
1.254377e+003, 2.889910e+002
1.254859e+003, 2.879944e+002
1.255341e+003, 2.873304e+002
1.255823e+003, 2.870119e+002
1.256306e+003, 2.869618e+002
1.256788e+003, 2.871943e+002
1.257270e+003, 2.876015e+002
1.257752e+003, 2.883031e+002
1.258234e+003, 2.889935e+002
1.258716e+003, 2.891108e+002
1.259198e+003, 2.884550e+002
1.259680e+003, 2.879662e+002
1.260163e+003, 2.876411e+002
1.260645e+003, 2.875578e+002
1.261127e+003, 2.880627e+002
1.261609e+003, 2.884545e+002
1.262091e+003, 2.875969e+002
1.262573e+003, 2.865124e+002
1.263055e+003, 2.868129e+002
1.263537e+003, 2.888827e+002
1.264020e+003, 2.892005e+002
1.264502e+003, 2.877948e+002
1.264984e+003, 2.868031e+002
1.265466e+003, 2.879218e+002
1.265948e+003, 2.892773e+002
1.266430e+003, 2.897401e+002
1.266912e+003, 2.896943e+002
1.267394e+003, 2.895975e+002
1.267876e+003, 2.894515e+002
1.268359e+003, 2.890126e+002
1.268841e+003, 2.883445e+002
1.269323e+003, 2.880264e+002
1.269805e+003, 2.887281e+002
1.270287e+003, 2.893766e+002
1.270769e+003, 2.893293e+002
1.271251e+003, 2.891767e+002
1.271733e+003, 2.894767e+002
1.272215e+003, 2.901339e+002
1.272698e+003, 2.902476e+002
1.273180e+003, 2.899319e+002
1.273662e+003, 2.896996e+002
1.274144e+003, 2.898828e+002
1.274626e+003, 2.900517e+002
1.275108e+003, 2.901948e+002
1.275590e+003, 2.901841e+002
1.276072e+003, 2.898028e+002
1.276555e+003, 2.892057e+002
1.277037e+003, 2.888361e+002
1.277519e+003, 2.887133e+002
1.278001e+003, 2.888959e+002
1.278483e+003, 2.895694e+002
1.278965e+003, 2.903610e+002
1.279447e+003, 2.913966e+002
1.279929e+003, 2.921419e+002
1.280411e+003, 2.919049e+002
1.280894e+003, 2.912598e+002
1.281376e+003, 2.912873e+002
1.281858e+003, 2.917526e+002
1.282340e+003, 2.921283e+002
1.282822e+003, 2.924920e+002
1.283304e+003, 2.922146e+002
1.283786e+003, 2.911022e+002
1.284268e+003, 2.903180e+002
1.284750e+003, 2.910487e+002
1.285233e+003, 2.921889e+002
1.285715e+003, 2.922913e+002
1.286197e+003, 2.919444e+002
1.286679e+003, 2.922765e+002
1.287161e+003, 2.936860e+002
1.287643e+003, 2.941774e+002
1.288125e+003, 2.937188e+002
1.288607e+003, 2.930993e+002
1.289090e+003, 2.926205e+002
1.289572e+003, 2.923776e+002
1.290054e+003, 2.926805e+002
1.290536e+003, 2.930990e+002
1.291018e+003, 2.929970e+002
1.291500e+003, 2.923321e+002
1.291982e+003, 2.925358e+002
1.292464e+003, 2.935042e+002
1.292947e+003, 2.943082e+002
1.293429e+003, 2.945239e+002
1.293911e+003, 2.943990e+002
1.294393e+003, 2.937099e+002
1.294875e+003, 2.930345e+002
1.295357e+003, 2.928003e+002
1.295839e+003, 2.929531e+002
1.296321e+003, 2.933431e+002
1.296803e+003, 2.938863e+002
1.297286e+003, 2.942482e+002
1.297768e+003, 2.943434e+002
1.298250e+003, 2.941036e+002
1.298732e+003, 2.932716e+002
1.299214e+003, 2.926563e+002
1.299696e+003, 2.929481e+002
1.300178e+003, 2.937369e+002
1.300660e+003, 2.943690e+002
##END=



