##NAMES=Raguinite
##RRUFFID=R130617
##IDEAL CHEMISTRY=Tl^1+^Fe^3+^S^2-^_2_
##LOCALITY=Allchar, Roszdan, Republic of Macedonia
##OWNER=RRUFF
##SOURCE=Mark N. Feinglos
##DESCRIPTION=Black granular crystals, associated with dolomite, realgar, and lorandite.
##STATUS=The identification of this mineral has been confirmed only by single crystal X-ray diffraction.
##URL=rruff.info/R130617
124.7776, 0.0000000E+00
125.2597, 1.661499
125.7418, 3.664978
126.2239, 1.714783
126.7061, 0.4847410
127.1882, 0.7105100
127.6703, 1.534363
128.1524, 5.147705
128.6345, 8.683472
129.1166, 12.15747
129.5988, 15.98242
130.0809, 21.53284
130.5630, 27.99799
131.0451, 31.77557
131.5272, 31.11823
132.0093, 28.04138
132.4915, 27.19171
132.9736, 28.68829
133.4557, 31.26123
133.9378, 34.08124
134.4199, 37.13092
134.9020, 39.69904
135.3842, 41.41870
135.8663, 42.44080
136.3484, 43.56909
136.8305, 44.46875
137.3126, 46.39825
137.7947, 51.70581
138.2769, 61.52844
138.7590, 68.90143
139.2411, 71.51160
139.7232, 69.29279
140.2053, 66.36145
140.6874, 62.43201
141.1696, 58.13934
141.6517, 54.40619
142.1338, 51.45044
142.6159, 48.56952
143.0980, 45.33307
143.5801, 41.42413
144.0623, 39.04401
144.5444, 38.82172
145.0265, 39.82129
145.5086, 40.45929
145.9907, 40.56244
146.4728, 40.58990
146.9550, 40.67450
147.4371, 40.76471
147.9192, 41.04236
148.4013, 41.39716
148.8834, 41.94531
149.3655, 42.97241
149.8477, 45.13733
150.3298, 47.20105
150.8119, 48.76001
151.2940, 50.44122
151.7761, 50.69690
152.2583, 48.44098
152.7404, 44.57849
153.2225, 41.64978
153.7046, 40.70197
154.1867, 40.13611
154.6688, 39.24622
155.1510, 38.14697
155.6331, 36.47290
156.1152, 33.69629
156.5973, 30.16345
157.0794, 27.27258
157.5615, 25.27930
158.0437, 24.02234
158.5258, 23.39795
159.0079, 23.71759
159.4900, 24.32007
159.9721, 24.99493
160.4542, 25.78180
160.9364, 26.89807
161.4185, 28.87854
161.9006, 30.99329
162.3827, 32.65527
162.8648, 33.58380
163.3469, 34.11932
163.8291, 34.23285
164.3112, 33.96869
164.7933, 33.79993
165.2754, 33.83057
165.7575, 34.11707
166.2396, 34.71960
166.7218, 35.52014
167.2039, 36.74469
167.6860, 38.71466
168.1681, 41.39600
168.6502, 44.16296
169.1323, 46.68829
169.6145, 49.02008
170.0966, 51.20648
170.5787, 53.92883
171.0608, 56.12097
171.5429, 56.56653
172.0250, 55.18439
172.5072, 53.45160
172.9893, 52.39447
173.4714, 51.77802
173.9535, 51.16626
174.4356, 50.29504
174.9177, 49.36023
175.3999, 48.17426
175.8820, 46.59607
176.3641, 46.11212
176.8462, 48.84460
177.3283, 53.82397
177.8104, 58.57715
178.2926, 61.77960
178.7747, 63.99957
179.2568, 66.02332
179.7389, 67.82330
180.2210, 69.66547
180.7031, 71.71521
181.1853, 73.99200
181.6674, 76.54047
182.1495, 79.77081
182.6316, 83.08917
183.1137, 85.53735
183.5958, 87.00940
184.0780, 87.95911
184.5601, 89.07855
185.0422, 90.32990
185.5243, 91.11920
186.0064, 91.35596
186.4885, 90.91138
186.9707, 89.11310
187.4528, 85.77661
187.9349, 81.78546
188.4170, 78.21851
188.8991, 75.02637
189.3812, 72.05402
189.8634, 69.14923
190.3455, 66.35260
190.8276, 63.91412
191.3097, 61.87488
191.7918, 60.08722
192.2739, 58.16608
192.7561, 56.04175
193.2382, 54.23676
193.7203, 53.00104
194.2024, 52.34692
194.6845, 52.33978
195.1666, 53.19971
195.6488, 54.40833
196.1309, 54.86121
196.6130, 54.45862
197.0951, 53.86951
197.5772, 53.31165
198.0593, 52.72711
198.5415, 52.46594
199.0236, 52.76385
199.5057, 53.33783
199.9878, 53.49054
200.4699, 53.22919
200.9520, 52.50336
201.4342, 51.30365
201.9163, 49.64160
202.3984, 47.41241
202.8805, 44.27014
203.3626, 40.71655
203.8447, 38.26550
204.3269, 37.12537
204.8090, 36.36230
205.2911, 35.20911
205.7732, 33.39258
206.2553, 33.08594
206.7374, 34.82184
207.2196, 37.88843
207.7017, 40.31146
208.1838, 41.87848
208.6659, 43.40240
209.1480, 45.22559
209.6301, 47.30090
210.1123, 50.05353
210.5944, 53.78064
211.0765, 58.08063
211.5586, 61.71179
212.0407, 64.36572
212.5228, 67.06525
213.0050, 70.38000
213.4871, 74.43219
213.9692, 78.57104
214.4513, 82.73389
214.9334, 86.95306
215.4155, 91.49731
215.8977, 96.50366
216.3798, 101.5642
216.8619, 106.3958
217.3440, 110.8528
217.8261, 115.5278
218.3082, 120.6974
218.7904, 125.9839
219.2725, 130.1260
219.7546, 132.7223
220.2367, 134.8229
220.7188, 136.6611
221.2009, 137.5095
221.6831, 140.1356
222.1652, 144.7285
222.6473, 151.1415
223.1294, 158.7372
223.6115, 167.4418
224.0936, 177.5794
224.5758, 189.6046
225.0579, 204.1579
225.5400, 218.9532
226.0221, 234.1511
226.5042, 249.5689
226.9863, 264.7573
227.4685, 282.2587
227.9506, 295.8409
228.4327, 302.4935
228.9148, 300.4167
229.3969, 295.4872
229.8790, 286.8746
230.3612, 275.6711
230.8433, 264.6168
231.3254, 253.5531
231.8075, 242.6601
232.2896, 232.0976
232.7717, 222.3558
233.2539, 211.8127
233.7360, 201.0195
234.2181, 189.4128
234.7002, 175.2913
235.1823, 157.0834
235.6644, 138.8654
236.1466, 122.2269
236.6287, 107.6318
237.1108, 93.34778
237.5929, 79.17639
238.0750, 65.60223
238.5571, 53.73041
239.0393, 43.62579
239.5214, 35.14252
240.0035, 28.46863
240.4856, 24.17542
240.9677, 19.74261
241.4498, 14.70111
241.9320, 9.791260
242.4141, 6.329468
242.8962, 5.050781
243.3783, 4.050842
243.8604, 2.725952
244.3425, 0.9998780
244.8247, 0.7796630
245.3068, 2.871216
245.7889, 4.848511
246.2710, 6.034180
246.7531, 6.120850
247.2352, 5.951599
247.7174, 5.734131
248.1995, 5.447815
248.6816, 5.276123
249.1637, 5.324463
249.6458, 5.420349
250.1279, 5.284180
250.6101, 4.719116
251.0922, 4.303345
251.5743, 4.210083
252.0564, 4.469055
252.5385, 4.860718
253.0206, 5.560303
253.5028, 6.235352
253.9849, 6.509583
254.4670, 6.457581
254.9491, 5.830933
255.4312, 4.299316
255.9133, 1.777588
256.3955, 0.1285400
256.8776, 0.3739010
257.3597, 0.3116460
257.8418, 0.2775880
258.3239, 0.3029790
258.8061, 0.2456050
259.2882, 8.1665002E-02
259.7703, 0.6649780
260.2524, 0.4601440
260.7345, 0.7985840
261.2166, 2.473267
261.6988, 4.049255
262.1809, 5.479309
262.6630, 6.860718
263.1451, 8.158875
263.6272, 9.408081
264.1093, 10.69849
264.5915, 11.81958
265.0736, 13.38251
265.5557, 16.15234
266.0378, 20.60803
266.5199, 24.39624
267.0020, 27.05756
267.4842, 28.79688
267.9663, 30.40436
268.4484, 31.69922
268.9305, 33.25812
269.4126, 35.73077
269.8947, 39.60291
270.3769, 42.38123
270.8590, 43.85272
271.3411, 44.08905
271.8232, 43.19580
272.3053, 41.05432
272.7874, 38.14960
273.2696, 34.57068
273.7517, 30.19910
274.2338, 25.89667
274.7159, 21.64203
275.1980, 17.52185
275.6801, 13.71149
276.1623, 10.11047
276.6444, 7.290039
277.1265, 5.797913
277.6086, 5.737183
278.0907, 5.422607
278.5728, 4.754089
279.0550, 3.911438
279.5371, 3.079834
280.0192, 2.206787
280.5013, 1.765198
280.9834, 2.021606
281.4655, 2.962097
281.9477, 4.326782
282.4298, 6.335327
282.9119, 8.134583
283.3940, 8.116211
283.8761, 6.218323
284.3582, 4.807251
284.8404, 4.925720
285.3225, 6.330994
285.8046, 7.669739
286.2867, 8.941711
286.7688, 10.06177
287.2509, 10.88940
287.7331, 11.44037
288.2152, 11.93121
288.6973, 12.51508
289.1794, 13.07831
289.6615, 13.08179
290.1436, 12.48212
290.6258, 11.95197
291.1079, 12.25629
291.5900, 13.24841
292.0721, 14.10211
292.5542, 14.59045
293.0363, 14.84552
293.5185, 14.99426
294.0006, 15.04913
294.4827, 15.34595
294.9648, 16.37183
295.4469, 17.88232
295.9290, 18.96851
296.4112, 19.17548
296.8933, 19.38977
297.3754, 21.32092
297.8575, 24.69214
298.3396, 27.89447
298.8217, 29.63953
299.3039, 30.48254
299.7860, 31.47803
300.2681, 32.79791
300.7502, 34.19196
301.2323, 35.34277
301.7144, 36.31354
302.1966, 37.25812
302.6787, 38.09247
303.1608, 38.88397
303.6429, 39.90887
304.1250, 41.26459
304.6071, 42.61926
305.0893, 43.45197
305.5714, 44.03088
306.0535, 44.86359
306.5356, 46.50092
307.0177, 48.29633
307.4998, 49.59790
307.9820, 50.41730
308.4641, 51.08557
308.9462, 51.76691
309.4283, 52.42639
309.9104, 53.00946
310.3925, 53.48053
310.8747, 53.85889
311.3568, 53.99438
311.8389, 53.98407
312.3210, 54.35242
312.8031, 56.02869
313.2852, 58.04620
313.7674, 59.42273
314.2495, 58.99713
314.7316, 58.81042
315.2137, 60.13647
315.6958, 62.57819
316.1779, 64.80475
316.6601, 65.67383
317.1422, 66.48621
317.6243, 68.18176
318.1064, 71.46625
318.5885, 74.63104
319.0706, 76.94843
319.5528, 78.67609
320.0349, 80.33411
320.5170, 81.54944
320.9991, 83.14880
321.4812, 85.47638
321.9633, 88.61603
322.4455, 92.33032
322.9276, 96.82471
323.4097, 101.8081
323.8918, 106.9225
324.3739, 112.5779
324.8560, 117.9139
325.3382, 122.3795
325.8203, 125.7986
326.3024, 130.2163
326.7845, 136.8711
327.2666, 144.0235
327.7487, 150.3180
328.2309, 155.4717
328.7130, 159.9978
329.1951, 163.5978
329.6772, 166.4035
330.1593, 169.8144
330.6414, 174.9789
331.1236, 179.6069
331.6057, 182.3051
332.0878, 181.0636
332.5699, 181.5717
333.0520, 184.9709
333.5341, 190.0347
334.0163, 193.1783
334.4984, 193.1057
334.9805, 193.2225
335.4626, 195.0938
335.9447, 199.3412
336.4268, 202.9799
336.9090, 205.9171
337.3911, 208.4001
337.8732, 210.7972
338.3553, 213.1657
338.8374, 215.2601
339.3195, 216.8950
339.8017, 218.0922
340.2838, 219.9337
340.7659, 222.7756
341.2480, 225.3901
341.7301, 226.4662
342.2122, 225.9282
342.6944, 224.8399
343.1765, 223.3872
343.6586, 221.5687
344.1407, 219.5099
344.6228, 217.2454
345.1049, 214.4291
345.5871, 210.7597
346.0692, 206.2495
346.5513, 201.3863
347.0334, 196.2476
347.5155, 190.7661
347.9977, 185.0209
348.4798, 179.0121
348.9619, 172.9739
349.4440, 166.7095
349.9261, 160.4749
350.4082, 154.9612
350.8904, 150.2637
351.3725, 146.0125
351.8546, 141.6993
352.3367, 137.4948
352.8188, 133.8253
353.3009, 130.8938
353.7831, 128.3155
354.2652, 125.6877
354.7473, 123.0641
355.2294, 120.9375
355.7115, 119.9811
356.1936, 119.6777
356.6758, 119.2930
357.1579, 118.3646
357.6400, 117.4985
358.1221, 117.2535
358.6042, 117.4966
359.0863, 117.7176
359.5685, 117.8369
360.0506, 117.7466
360.5327, 117.5499
361.0148, 117.2952
361.4969, 116.2225
361.9790, 113.6856
362.4612, 110.2568
362.9433, 106.9036
363.4254, 103.9813
363.9075, 101.0275
364.3896, 97.74066
364.8717, 93.95685
365.3539, 90.42090
365.8360, 87.43231
366.3181, 84.84271
366.8002, 82.36194
367.2823, 79.62006
367.7644, 77.32568
368.2466, 75.87671
368.7287, 75.05560
369.2108, 73.41595
369.6929, 70.52045
370.1750, 67.26013
370.6571, 64.05878
371.1393, 60.79272
371.6214, 57.76697
372.1035, 54.96741
372.5856, 52.42206
373.0677, 50.19751
373.5498, 48.38928
374.0320, 46.55573
374.5141, 44.48340
374.9962, 42.11499
375.4783, 40.19836
375.9604, 38.87067
376.4425, 37.78326
376.9247, 36.47504
377.4068, 34.88354
377.8889, 33.56128
378.3710, 32.68793
378.8531, 32.18726
379.3352, 31.79254
379.8174, 31.55487
380.2995, 31.32458
380.7816, 30.92902
381.2637, 30.34027
381.7458, 29.72656
382.2279, 29.21545
382.7101, 28.55811
383.1922, 27.05591
383.6743, 24.80115
384.1564, 22.65558
384.6385, 21.06018
385.1206, 19.88409
385.6028, 18.91443
386.0849, 18.15942
386.5670, 17.40778
387.0491, 16.45160
387.5312, 15.34875
388.0133, 14.19849
388.4955, 13.00220
388.9776, 11.79797
389.4597, 10.58289
389.9418, 9.376831
390.4239, 8.310303
390.9060, 7.273376
391.3882, 6.506897
391.8703, 6.354858
392.3524, 7.322937
392.8345, 7.971252
393.3166, 7.230042
393.7987, 5.691956
394.2809, 4.560913
394.7630, 4.344604
395.2451, 4.508850
395.7272, 4.832520
396.2093, 5.282654
396.6914, 5.973755
397.1736, 7.659180
397.6557, 9.242615
398.1378, 9.716797
398.6199, 8.032898
399.1020, 6.279541
399.5841, 4.507507
400.0663, 2.786011
400.5484, 1.589417
401.0305, 0.9790040
401.5126, 0.8310550
401.9947, 1.253723
402.4768, 3.022583
402.9590, 3.427490
403.4411, 1.817566
403.9232, 0.6567990
404.4053, 1.886963
404.8874, 1.473877
405.3695, 1.001709
405.8517, 1.022644
406.3338, 1.480530
406.8159, 1.583862
407.2980, 1.279297
407.7801, 0.7926030
408.2622, 0.1411740
408.7444, 0.6456300
409.2265, 0.7047120
409.7086, 0.4612430
410.1907, 2.019104
410.6728, 2.034302
411.1549, 0.6484380
411.6371, 0.6514890
412.1192, 0.8151250
412.6013, 0.2431640
413.0834, 0.3192140
413.5655, 0.8607790
414.0476, 1.075623
414.5298, 0.4429320
415.0119, 0.7168580
415.4940, 1.784058
415.9761, 2.944092
416.4582, 3.569641
416.9403, 2.551453
417.4225, 0.2070310
417.9046, 1.512146
418.3867, 0.6531370
418.8688, 0.8826900
419.3509, 1.448242
419.8330, 0.2854000
420.3152, 0.9022220
420.7973, 1.603394
421.2794, 1.873901
421.7615, 1.828369
422.2436, 0.7871090
422.7257, 8.6792000E-02
423.2079, 0.3302000
423.6900, 1.683167
424.1721, 2.810059
424.6542, 3.980164
425.1363, 4.665955
425.6184, 4.470825
426.1006, 2.944824
426.5827, 1.197266
427.0648, 1.092651
427.5469, 3.524597
428.0290, 4.547852
428.5111, 3.610046
428.9933, 2.308411
429.4754, 1.196045
429.9575, 0.2017210
430.4396, 2.3375999E-02
430.9217, 0.7463380
431.4038, 1.781067
431.8860, 2.063354
432.3681, 1.560913
432.8502, 1.247314
433.3323, 1.495911
433.8144, 2.039246
434.2965, 2.115967
434.7787, 1.740967
435.2608, 1.278259
435.7429, 1.040222
436.2250, 0.9201660
436.7071, 0.5379030
437.1892, 0.2442630
437.6714, 0.8506470
438.1535, 0.3476560
438.6356, 0.8088990
439.1177, 1.607788
439.5998, 0.9815670
440.0819, 0.2339480
440.5641, 0.6449580
441.0462, 2.105347
441.5283, 3.429626
442.0104, 3.845459
442.4925, 3.887207
442.9746, 3.962585
443.4568, 4.055481
443.9389, 4.358032
444.4210, 5.271973
444.9031, 6.398987
445.3852, 6.983398
445.8673, 6.010071
446.3495, 5.301025
446.8316, 5.611816
447.3137, 7.188965
447.7958, 8.134460
448.2779, 8.009155
448.7600, 7.625977
449.2422, 7.599548
449.7243, 8.191589
450.2064, 8.612122
450.6885, 8.807251
451.1706, 8.797485
451.6527, 8.542542
452.1349, 7.896545
452.6170, 7.502319
453.0991, 7.661377
453.5812, 8.361145
454.0633, 9.334229
454.5454, 10.66083
455.0276, 11.89996
455.5097, 12.52960
455.9918, 12.62219
456.4739, 12.57367
456.9560, 12.46960
457.4381, 12.27795
457.9203, 11.83295
458.4024, 11.21167
458.8845, 10.76221
459.3666, 10.77960
459.8488, 11.05829
460.3309, 11.36450
460.8130, 11.67865
461.2951, 12.03052
461.7772, 12.60461
462.2593, 13.09808
462.7415, 13.29340
463.2236, 12.73657
463.7057, 12.19641
464.1878, 11.98236
464.6699, 12.04291
465.1520, 12.14044
465.6342, 12.39307
466.1163, 12.53864
466.5984, 12.42651
467.0805, 11.94958
467.5626, 11.43146
468.0447, 10.54028
468.5269, 9.796997
469.0090, 9.754822
469.4911, 10.69122
469.9732, 11.64423
470.4553, 12.55402
470.9374, 13.34644
471.4196, 13.76776
471.9017, 13.78888
472.3838, 13.63330
472.8659, 13.17493
473.3480, 12.37970
473.8301, 12.40833
474.3123, 13.42340
474.7944, 14.66791
475.2765, 15.16180
475.7586, 14.93683
476.2407, 14.86188
476.7228, 15.29565
477.2050, 15.78900
477.6871, 15.59381
478.1692, 14.78088
478.6513, 14.01941
479.1334, 13.72662
479.6155, 13.75195
480.0977, 13.99506
480.5798, 14.42682
481.0619, 15.00214
481.5440, 16.25830
482.0261, 17.37897
482.5082, 17.41443
482.9904, 14.68555
483.4725, 12.41614
483.9546, 11.96643
484.4367, 12.97455
484.9188, 13.76605
485.4009, 13.50110
485.8831, 13.27972
486.3652, 13.60913
486.8473, 14.73511
487.3294, 15.41461
487.8115, 15.38153
488.2936, 15.09991
488.7758, 15.16010
489.2579, 15.77533
489.7400, 15.85718
490.2221, 15.03156
490.7042, 13.66461
491.1863, 12.84668
491.6685, 12.59003
492.1506, 12.73700
492.6327, 13.57471
493.1148, 14.83667
493.5969, 15.19611
494.0790, 14.61481
494.5612, 13.54785
495.0433, 12.10046
495.5254, 10.51135
496.0075, 9.329468
496.4896, 8.780945
496.9717, 8.613281
497.4539, 8.887085
497.9360, 9.369995
498.4181, 9.541260
498.9002, 8.789246
499.3823, 7.900574
499.8644, 7.386414
500.3466, 7.294312
500.8287, 7.156250
501.3108, 6.536316
501.7929, 5.969177
502.2750, 5.859863
502.7571, 6.846008
503.2393, 7.517029
503.7214, 7.771790
504.2035, 7.680542
504.6856, 7.335876
505.1677, 6.430420
505.6498, 5.860962
506.1320, 6.052429
506.6141, 6.962402
507.0962, 7.296265
507.5783, 6.964783
508.0604, 6.402893
508.5425, 5.879578
509.0247, 5.408142
509.5068, 5.190491
509.9889, 5.337219
510.4710, 5.510254
510.9531, 5.146545
511.4352, 4.378906
511.9174, 3.686340
512.3995, 3.232117
512.8816, 2.994568
513.3637, 3.078369
513.8458, 3.402100
514.3279, 3.528076
514.8101, 2.862305
515.2922, 2.094177
515.7743, 1.792969
516.2564, 2.116272
516.7385, 2.565918
517.2206, 3.214294
517.7028, 3.797607
518.1849, 4.006287
518.6670, 3.633118
519.1491, 3.060120
519.6312, 2.108704
520.1133, 0.9702760
520.5955, 0.4517210
521.0776, 0.8633420
521.5597, 1.419678
522.0418, 1.878967
522.5239, 2.283813
523.0060, 2.203369
523.4882, 1.460693
523.9703, 0.7614140
524.4524, 1.096008
524.9345, 2.350952
525.4166, 2.983521
525.8987, 2.578918
526.3809, 1.681396
526.8630, 0.9339600
527.3451, 0.3718260
527.8272, 0.1549070
528.3093, 0.5974730
528.7914, 1.282166
529.2736, 1.651123
529.7557, 1.705078
530.2378, 1.945251
530.7199, 3.144348
531.2020, 4.368774
531.6841, 4.770630
532.1663, 3.759338
532.6484, 2.925049
533.1305, 2.777954
533.6126, 2.976257
534.0947, 3.007629
534.5768, 2.781494
535.0590, 2.461731
535.5411, 1.981323
536.0232, 1.444092
536.5053, 1.343872
536.9874, 1.911438
537.4695, 2.335693
537.9517, 1.996338
538.4338, 0.8218990
538.9159, 0.6917720
539.3980, 1.815918
539.8801, 3.184387
540.3622, 3.684021
540.8444, 3.442505
541.3265, 2.970520
541.8086, 2.145630
542.2907, 1.412170
542.7728, 1.522949
543.2549, 2.228210
543.7371, 2.833496
544.2192, 2.926636
544.7013, 2.836243
545.1834, 2.798584
545.6655, 2.864868
546.1476, 2.918396
546.6298, 2.735535
547.1119, 2.628845
547.5940, 2.850464
548.0761, 3.896240
548.5582, 4.330322
549.0403, 3.546326
549.5225, 2.355164
550.0046, 1.759033
550.4867, 2.146057
550.9688, 2.311035
551.4509, 1.876831
551.9330, 1.116089
552.4152, 1.156006
552.8973, 2.141235
553.3794, 3.045410
553.8615, 3.215027
554.3436, 2.806030
554.8257, 2.773987
555.3079, 3.147156
555.7900, 3.347107
556.2721, 2.509155
556.7542, 1.195618
557.2363, 0.4885860
557.7184, 0.7730710
558.2006, 1.310852
558.6827, 1.523865
559.1648, 1.633484
559.6469, 1.945679
560.1290, 3.130249
560.6111, 3.973267
561.0933, 3.817932
561.5754, 2.811462
562.0575, 1.932739
562.5396, 1.267029
563.0217, 0.7974240
563.5038, 0.5567020
563.9860, 0.6169430
564.4681, 0.5502320
564.9502, 0.2528690
565.4323, 1.0742000E-02
565.9144, 0.2196040
566.3965, 0.9800420
566.8787, 1.450745
567.3608, 1.460388
567.8429, 1.238281
568.3250, 1.212952
568.8071, 1.333069
569.2892, 1.298096
569.7714, 0.6962280
570.2535, 3.9306998E-02
570.7356, 0.2850950
571.2177, 1.265930
571.6998, 1.927734
572.1819, 1.177917
572.6641, 0.1889650
573.1462, 0.1352540
573.6283, 0.3813480
574.1104, 1.174988
574.5925, 2.620361
575.0746, 3.953064
575.5568, 4.499329
576.0389, 3.420959
576.5210, 2.624573
577.0031, 2.282410
577.4852, 2.221863
577.9673, 1.941040
578.4495, 1.162537
578.9316, 1.381958
579.4137, 3.741760
579.8958, 7.305847
580.3779, 7.676697
580.8600, 4.745483
581.3422, 1.612671
581.8243, 0.4528200
582.3064, 0.6467290
582.7885, 0.8128660
583.2706, 0.8341670
583.7527, 1.040710
584.2349, 2.267029
584.7170, 3.614563
585.1991, 3.858337
585.6812, 1.888062
586.1633, 0.1316530
586.6454, 0.1521000
587.1276, 0.4269410
587.6097, 0.7677000
588.0918, 0.5430300
588.5739, 0.1859740
589.0560, 0.3929440
589.5381, 1.099243
590.0203, 1.174194
590.5024, 0.3088380
590.9845, 0.5933840
591.4666, 1.160583
591.9487, 1.405579
592.4308, 1.157104
592.9130, 0.3306270
593.3951, 0.5030520
593.8772, 0.7575070
594.3593, 0.5482790
594.8414, 0.2774050
595.3235, 5.3284001E-02
595.8057, 0.3341670
596.2878, 1.600342
596.7699, 3.126892
597.2520, 3.740479
597.7341, 1.951843
598.2162, 0.1204220
598.6984, 0.5662230
599.1805, 0.3261110
599.6626, 3.6865000E-02
600.1447, 4.6204001E-02
600.6268, 0.1058350
601.1089, 0.8002320
601.5911, 2.157043
602.0732, 2.424927
602.5553, 0.9162600
603.0374, 0.5881960
603.5195, 0.6114500
604.0016, 1.007080
604.4838, 1.993896
604.9659, 2.144958
605.4480, 1.912048
605.9301, 1.740662
606.4122, 1.650635
606.8943, 1.741821
607.3765, 2.130066
607.8586, 2.550903
608.3407, 2.812561
608.8228, 2.880127
609.3049, 2.658936
609.7870, 1.625854
610.2692, 0.7164310
610.7513, 0.5809330
611.2334, 1.152893
611.7155, 1.528015
612.1976, 1.467896
612.6797, 1.226196
613.1619, 0.8382570
613.6440, 0.1691280
614.1261, 7.2021000E-02
614.6082, 0.9062500
615.0903, 1.745667
615.5724, 1.582703
616.0546, 0.3675540
616.5367, 0.3575440
617.0188, 0.3483280
617.5009, 4.9254999E-02
617.9830, 0.4807740
618.4651, 0.8971560
618.9473, 1.124023
619.4294, 0.9505000
619.9115, 0.7221680
620.3936, 0.9262700
620.8757, 1.373962
621.3578, 1.509583
621.8400, 0.4876100
622.3221, 0.3773190
622.8042, 0.2492070
623.2863, 0.9219360
623.7684, 1.790039
624.2505, 2.169495
624.7327, 2.278687
625.2148, 2.191345
625.6969, 1.870056
626.1790, 1.453003
626.6611, 0.8195190
627.1432, 0.3548580
627.6254, 0.5887450
628.1075, 1.469421
628.5896, 2.285278
629.0717, 2.986389
629.5538, 3.359253
630.0359, 2.828308
630.5181, 1.716248
631.0002, 0.8411870
631.4823, 0.5264280
631.9644, 0.5873410
632.4465, 1.017456
632.9286, 1.730225
633.4108, 2.463623
633.8929, 3.829712
634.3750, 4.547180
634.8571, 3.715576
635.3392, 1.221863
635.8214, 0.3196410
636.3035, 0.5831910
636.7856, 0.3655400
637.2677, 2.9906999E-02
637.7498, 0.4467770
638.2319, 0.8402710
638.7141, 1.140259
639.1962, 1.440735
639.6783, 1.954163
640.1604, 2.592407
640.6425, 2.934143
641.1246, 2.867004
641.6068, 2.625916
642.0889, 2.245728
642.5710, 1.893616
643.0531, 1.865906
643.5352, 2.474304
644.0173, 3.196777
644.4995, 3.926575
644.9816, 4.634277
645.4637, 5.210388
645.9458, 5.901611
646.4279, 6.093079
646.9100, 5.398376
647.3922, 3.889709
647.8743, 2.873779
648.3564, 2.424255
648.8385, 2.435364
649.3206, 3.079773
649.8027, 4.256897
650.2849, 4.882324
650.7670, 4.919250
651.2491, 4.790283
651.7312, 4.987732
652.2133, 5.311279
652.6954, 5.390686
653.1776, 5.126343
653.6597, 4.728149
654.1418, 4.010864
654.6239, 3.357971
655.1060, 3.219543
655.5881, 4.383972
656.0703, 5.241150
656.5524, 5.410828
657.0345, 5.194824
657.5166, 4.954468
657.9987, 4.652710
658.4808, 4.368408
658.9630, 4.116211
659.4451, 3.881226
659.9272, 3.622803
660.4093, 3.345154
660.8914, 3.133301
661.3735, 3.302856
661.8557, 3.634827
662.3378, 3.383179
662.8199, 2.636230
663.3020, 2.096680
663.7841, 2.032288
664.2662, 2.509155
664.7484, 3.954224
665.2305, 6.751404
665.7126, 8.234985
666.1947, 6.483521
666.6768, 4.044312
667.1589, 2.752869
667.6411, 3.238892
668.1232, 3.572266
668.6053, 3.704102
669.0874, 3.692627
669.5695, 3.541870
670.0516, 3.280090
670.5338, 3.146912
671.0159, 3.218445
671.4980, 3.467346
671.9801, 4.110962
672.4622, 4.986084
672.9443, 5.389404
673.4265, 4.617981
673.9086, 3.665527
674.3907, 3.157104
674.8728, 3.035706
675.3549, 3.047913
675.8370, 3.343872
676.3192, 3.510315
676.8013, 3.311646
677.2834, 2.775940
677.7655, 2.331543
678.2476, 1.959290
678.7297, 1.801575
679.2119, 1.976563
679.6940, 2.454773
680.1761, 2.869324
680.6582, 3.259460
681.1403, 3.696899
681.6224, 4.461853
682.1046, 5.184692
682.5867, 4.926025
683.0688, 3.431152
683.5509, 2.156616
684.0330, 2.203369
684.5151, 2.914246
684.9973, 3.648499
685.4794, 4.540894
685.9615, 5.054626
686.4436, 4.922791
686.9257, 4.448486
687.4078, 3.948547
687.8900, 3.379578
688.3721, 2.879150
688.8542, 2.387268
689.3363, 2.075745
689.8184, 2.546326
690.3005, 3.721313
690.7827, 4.519043
691.2648, 4.335571
691.7469, 3.747192
692.2290, 3.513916
692.7111, 3.566345
693.1932, 3.692322
693.6754, 3.631042
694.1575, 3.678955
694.6396, 4.187988
695.1217, 5.097839
695.6038, 5.626953
696.0859, 5.352112
696.5681, 4.975464
697.0502, 4.766785
697.5323, 4.684448
698.0144, 4.395081
698.4965, 3.929199
698.9786, 3.378418
699.4608, 2.707397
699.9429, 2.026184
700.4250, 1.741882
700.9071, 1.880554
701.3892, 2.080261
701.8713, 1.911072
702.3535, 1.716736
702.8356, 2.057007
703.3177, 3.378967
703.7998, 4.132507
704.2819, 3.182983
704.7640, 1.631165
705.2462, 0.6397710
705.7283, 0.2227780
706.2104, 0.5353390
706.6925, 2.004211
707.1746, 3.761230
707.6567, 4.580750
708.1389, 4.435486
708.6210, 4.041748
709.1031, 3.486694
709.5852, 2.908264
710.0673, 2.584290
710.5494, 2.437134
711.0316, 2.226074
711.5137, 1.781189
711.9958, 1.294250
712.4779, 0.6612550
712.9600, 6.0913000E-02
713.4421, 3.6986999E-02
713.9243, 1.775269
714.4064, 2.984863
714.8885, 2.735413
715.3706, 1.254028
715.8527, 0.3244630
716.3348, 1.5137000E-02
716.8170, 5.8228001E-02
717.2991, 0.5116580
717.7812, 1.229553
718.2633, 1.279602
718.7454, 0.6832890
719.2275, 0.2356570
719.7097, 0.8713990
720.1918, 1.771057
720.6739, 1.756592
721.1560, 0.7316890
721.6381, 6.3110001E-02
722.1202, 0.8746340
722.6024, 1.930115
723.0845, 2.397705
723.5666, 2.068848
724.0487, 1.563110
724.5308, 0.7392580
725.0129, 7.1716003E-02
725.4951, 0.6597900
725.9772, 1.038452
726.4593, 0.8494260
726.9414, 6.5857001E-02
727.4235, 0.9262700
727.9056, 0.4277340
728.3878, 0.7533570
728.8699, 1.025940
729.3520, 0.2949830
729.8341, 1.612061
730.3162, 1.806396
730.7983, 1.374939
731.2805, 0.9533690
731.7626, 0.7648320
732.2447, 0.4813840
732.7268, 7.3242001E-02
733.2089, 0.6530150
733.6910, 0.8497920
734.1732, 0.6135860
734.6553, 0.1683960
735.1374, 0.4910280
735.6195, 1.250610
736.1016, 1.901611
736.5837, 2.451843
737.0659, 2.950500
737.5480, 3.641724
738.0301, 4.046509
738.5122, 3.414185
738.9943, 2.132080
739.4764, 1.207031
739.9586, 1.181335
740.4407, 1.348389
740.9228, 1.557678
741.4049, 1.780151
741.8870, 1.920227
742.3691, 1.993530
742.8513, 1.917725
743.3334, 1.547913
743.8155, 1.031738
744.2976, 1.088623
744.7797, 1.691956
745.2618, 2.245239
745.7440, 2.497375
746.2261, 2.435120
746.7082, 1.788452
747.1903, 0.6654050
747.6724, 2.1667000E-02
748.1545, 0.6712040
748.6367, 1.445923
749.1188, 1.519836
749.6009, 0.7609860
750.0830, 0.3471680
750.5651, 0.4488530
751.0472, 0.5639650
751.5294, 0.3142090
752.0115, 0.2835080
752.4936, 0.4645390
752.9757, 0.2015380
753.4578, 3.3570000E-03
753.9399, 0.6568600
754.4221, 1.495056
754.9042, 1.211975
755.3863, 0.4509280
755.8684, 1.642090
756.3505, 1.017151
756.8326, 0.1807860
757.3148, 1.027283
757.7969, 1.402588
758.2790, 1.419556
758.7611, 0.8631590
759.2432, 0.2324830
759.7253, 1.4282000E-02
760.2075, 0.2209470
760.6896, 0.2836910
761.1717, 0.1585690
761.6538, 8.0017000E-02
762.1359, 0.6390990
762.6180, 1.183716
763.1002, 0.8975220
763.5823, 0.7752690
764.0644, 1.929688
764.5465, 0.9096070
765.0286, 0.8514400
765.5107, 1.808411
765.9929, 0.9980470
766.4750, 0.5277710
766.9571, 0.4586790
767.4392, 0.6962280
767.9213, 1.227966
768.4034, 2.076050
768.8856, 2.675903
769.3677, 2.906616
769.8498, 2.935547
770.3319, 2.903687
770.8140, 2.812256
771.2961, 2.722595
771.7783, 2.664001
772.2604, 2.603882
772.7425, 2.230652
773.2246, 1.938171
773.7067, 2.352966
774.1888, 4.759766
774.6710, 5.971924
775.1531, 5.144104
775.6352, 3.502136
776.1173, 3.541382
776.5994, 5.325317
777.0815, 6.283386
777.5637, 5.575684
778.0458, 4.306519
778.5279, 3.873840
779.0100, 4.130981
779.4921, 4.748535
779.9742, 6.297607
780.4564, 7.408447
780.9385, 7.165161
781.4206, 6.099121
781.9027, 5.348816
782.3848, 5.077576
782.8669, 4.952576
783.3491, 4.903259
783.8312, 4.989746
784.3133, 5.561890
784.7954, 6.638184
785.2775, 7.142212
785.7596, 6.388428
786.2418, 5.291870
786.7239, 5.292664
787.2060, 6.135071
787.6881, 6.945801
788.1702, 7.598511
788.6523, 7.879456
789.1345, 7.468323
789.6166, 6.602600
790.0987, 5.996948
790.5808, 5.751282
791.0629, 5.490356
791.5450, 5.000488
792.0272, 4.587524
792.5093, 5.315063
792.9914, 7.074341
793.4735, 8.542175
793.9556, 9.139038
794.4377, 9.238098
794.9199, 9.079346
795.4020, 8.781921
795.8841, 8.660400
796.3662, 9.043762
796.8483, 9.400208
797.3304, 9.583069
797.8126, 9.597595
798.2947, 9.414490
798.7768, 8.921936
799.2589, 8.556641
799.7410, 8.456726
800.2231, 8.560425
800.7053, 8.844910
801.1874, 9.243103
801.6695, 9.363281
802.1516, 8.605469
802.6337, 7.851807
803.1158, 8.034180
803.5980, 8.857788
804.0801, 9.526001
804.5622, 9.690796
805.0443, 9.765930
805.5264, 9.739990
806.0085, 9.717712
806.4907, 10.14288
806.9728, 11.16425
807.4549, 11.81311
807.9370, 11.65472
808.4191, 11.05804
808.9012, 10.63751
809.3834, 10.41876
809.8655, 10.48511
810.3476, 11.07990
810.8297, 11.81543
811.3118, 12.67340
811.7939, 13.46014
812.2761, 13.62646
812.7582, 12.31763
813.2403, 11.70471
813.7224, 12.54657
814.2045, 14.14142
814.6866, 14.09021
815.1688, 12.33624
815.6509, 11.29535
816.1330, 12.31610
816.6151, 13.97772
817.0972, 13.81128
817.5793, 12.53162
818.0615, 12.02917
818.5436, 14.10309
819.0257, 16.06860
819.5078, 16.67926
819.9899, 16.38171
820.4720, 16.52606
820.9542, 17.45239
821.4363, 17.92633
821.9184, 17.51849
822.4005, 16.72302
822.8826, 16.40356
823.3647, 16.48053
823.8469, 16.63696
824.3290, 16.76013
824.8111, 16.92157
825.2932, 17.23987
825.7753, 17.64941
826.2574, 18.00464
826.7396, 18.34570
827.2217, 18.53998
827.7038, 18.52588
828.1859, 18.38940
828.6681, 18.27460
829.1502, 18.17474
829.6323, 18.11121
830.1144, 18.03143
830.5966, 18.10535
831.0787, 18.97235
831.5608, 20.17749
832.0429, 20.57733
832.5250, 19.04065
833.0071, 17.80359
833.4893, 18.46460
833.9714, 19.99213
834.4535, 20.71521
834.9356, 19.90271
835.4177, 19.59698
835.8998, 20.19238
836.3820, 21.03485
836.8641, 21.11401
837.3462, 20.50372
837.8283, 19.78723
838.3104, 18.98035
838.7925, 18.49316
839.2747, 19.19873
839.7568, 20.30054
840.2389, 20.63110
840.7210, 19.06689
841.2031, 18.23785
841.6852, 19.40356
842.1674, 21.00055
842.6495, 21.45264
843.1316, 20.46021
843.6137, 20.28589
844.0958, 21.32397
844.5779, 22.32245
845.0601, 21.24841
845.5422, 19.18372
846.0243, 18.54456
846.5064, 19.97034
846.9885, 21.50934
847.4706, 22.55157
847.9528, 22.92047
848.4349, 22.24792
848.9170, 19.79773
849.3991, 18.51508
849.8812, 18.67792
850.3633, 19.40381
850.8455, 20.17310
851.3276, 20.92578
851.8097, 21.10199
852.2918, 20.65881
852.7739, 20.16388
853.2560, 20.09210
853.7382, 20.19409
854.2203, 20.27130
854.7024, 20.31476
855.1845, 20.27411
855.6666, 20.02893
856.1487, 19.84131
856.6309, 19.93494
857.1130, 20.30078
857.5951, 19.96637
858.0772, 18.84570
858.5593, 18.04382
859.0414, 18.71960
859.5236, 20.00372
860.0057, 20.22357
860.4878, 19.44775
860.9699, 19.21289
861.4520, 21.25604
861.9341, 22.96558
862.4163, 22.57904
862.8984, 20.47632
863.3805, 20.09338
863.8626, 22.16241
864.3447, 23.45795
864.8268, 22.31793
865.3090, 19.87659
865.7911, 18.97681
866.2732, 19.32623
866.7553, 19.76794
867.2374, 19.53406
867.7195, 19.45923
868.2017, 20.22913
868.6838, 21.34985
869.1659, 21.67566
869.6480, 20.84009
870.1301, 19.73480
870.6122, 18.37280
871.0944, 16.99017
871.5765, 16.14288
872.0586, 15.78119
872.5407, 15.49615
873.0228, 15.24377
873.5049, 14.90601
873.9871, 14.13940
874.4692, 13.28497
874.9513, 12.83923
875.4334, 13.39783
875.9155, 13.77759
876.3976, 13.90118
876.8798, 13.79956
877.3619, 13.45929
877.8440, 12.89087
878.3261, 12.68048
878.8082, 12.92053
879.2903, 12.99615
879.7725, 11.80493
880.2546, 10.22711
880.7367, 9.670715
881.2188, 10.63275
881.7009, 11.54425
882.1830, 11.59180
882.6652, 11.45361
883.1473, 11.74689
883.6294, 12.64587
884.1115, 12.95691
884.5936, 12.63153
885.0757, 11.98969
885.5579, 11.04541
886.0400, 10.04816
886.5221, 9.682251
887.0042, 9.913208
887.4863, 9.840454
887.9684, 8.343994
888.4506, 6.999817
888.9327, 6.970215
889.4148, 8.148376
889.8969, 8.459412
890.3790, 7.493591
890.8611, 6.913208
891.3433, 7.664063
891.8254, 9.093994
892.3075, 9.368896
892.7896, 8.732178
893.2717, 8.252991
893.7538, 8.974426
894.2360, 9.500122
894.7181, 8.655457
895.2002, 6.987183
895.6823, 5.949646
896.1644, 5.717102
896.6465, 6.152283
897.1287, 7.426758
897.6108, 8.850342
898.0929, 9.179138
898.5750, 8.564880
899.0571, 7.609619
899.5392, 6.348267
900.0214, 5.166199
900.5035, 4.358765
900.9856, 3.806824
901.4677, 3.349976
901.9498, 2.871643
902.4319, 2.725098
902.9141, 3.097229
903.3962, 3.529541
903.8783, 3.673889
904.3604, 3.521240
904.8425, 2.812866
905.3246, 1.495422
905.8068, 0.4573360
906.2889, 0.7987060
906.7710, 1.489197
907.2531, 1.515076
907.7352, 0.7299800
908.2173, 6.0424998E-02
908.6995, 0.4082030
909.1816, 0.6806030
909.6637, 0.7218020
910.1458, 0.5513920
910.6279, 0.2846070
911.1100, 0.1046140
911.5922, 0.4988400
912.0743, 0.8437500
912.5564, 1.031555
913.0385, 0.7303470
913.5206, 0.2192380
914.0027, 0.1527710
914.4849, 1.396545
914.9670, 2.244019
915.4491, 2.390808
915.9312, 1.970764
916.4133, 0.9379880
916.8954, 0.6813350
917.3776, 1.220886
917.8597, 3.7108999E-02
918.3418, 1.489014
918.8239, 1.102661
919.3060, 0.1116940
919.7881, 0.7234500
920.2703, 9.7534001E-02
920.7524, 0.5723880
921.2345, 1.331543
921.7166, 1.830322
922.1987, 1.606201
922.6808, 0.6118160
923.1630, 0.3094480
923.6451, 0.8145140
924.1272, 1.193909
924.6093, 0.1359860
925.0914, 1.176086
925.5735, 1.190918
926.0557, 0.1867680
926.5378, 1.309387
927.0199, 1.689941
927.5020, 1.734131
927.9841, 1.385315
928.4662, 0.7982180
928.9484, 1.231873
929.4305, 2.688782
929.9126, 3.516541
930.3947, 2.141113
930.8768, 0.6004030
931.3589, 1.737061
931.8411, 4.527405
932.3232, 6.692993
932.8053, 8.077515
933.2874, 7.929321
933.7695, 5.519531
934.2516, 2.187866
934.7338, 0.1589970
935.2159, 1.542480
935.6980, 2.131897
936.1801, 1.858826
936.6622, 1.318115
937.1443, 0.9040530
937.6265, 0.6808470
938.1086, 0.8850100
938.5907, 1.830139
939.0728, 2.039429
939.5549, 0.9411620
940.0370, 0.4692990
940.5192, 1.806458
941.0013, 3.043518
941.4834, 3.537537
941.9655, 3.301147
942.4476, 2.874390
942.9297, 2.490540
943.4119, 2.181580
943.8940, 2.038330
944.3761, 2.018616
944.8582, 1.919983
945.3403, 1.637146
945.8224, 1.347900
946.3046, 1.003906
946.7867, 0.7498780
947.2688, 1.095581
947.7509, 1.944153
948.2330, 2.360962
948.7151, 1.859741
949.1973, 1.492188
949.6794, 2.801086
950.1615, 4.527527
950.6436, 5.075439
951.1257, 3.106567
951.6078, 2.109924
952.0900, 2.699219
952.5721, 3.319580
953.0542, 2.249634
953.5363, 7.9956003E-02
954.0184, 0.9113160
954.5005, 0.1748660
954.9827, 0.9761350
955.4648, 1.705750
955.9469, 2.560608
956.4290, 4.378723
956.9111, 6.993042
957.3932, 7.969727
957.8754, 6.487671
958.3575, 5.074280
958.8396, 4.519409
959.3217, 4.503418
959.8038, 4.425903
960.2859, 4.256531
960.7681, 3.828186
961.2502, 2.526978
961.7323, 1.888916
962.2144, 3.844543
962.6965, 6.470276
963.1786, 7.059204
963.6608, 4.135315
964.1429, 3.458374
964.6250, 5.785522
965.1071, 8.554077
965.5892, 9.351868
966.0714, 8.653870
966.5535, 7.286133
967.0356, 5.355103
967.5177, 3.441589
967.9998, 1.577148
968.4819, 8.9782998E-02
968.9641, 0.9619750
969.4462, 1.552063
969.9283, 1.137512
970.4104, 0.4457400
970.8925, 1.735107
971.3746, 2.053467
971.8568, 1.909607
972.3389, 2.046570
972.8210, 2.325623
973.3031, 2.464172
973.7852, 2.256287
974.2673, 2.012512
974.7495, 1.562012
975.2316, 1.217957
975.7137, 1.507080
976.1958, 2.392517
976.6779, 3.131042
977.1600, 3.672241
977.6422, 3.987610
978.1243, 4.196716
978.6064, 4.228638
979.0885, 3.927307
979.5706, 3.285461
980.0527, 2.891357
980.5349, 3.187683
981.0170, 3.177673
981.4991, 2.257019
981.9812, 0.8934940
982.4633, 0.9129640
982.9454, 2.015808
983.4276, 2.969849
983.9097, 3.444153
984.3918, 3.411682
984.8739, 2.226257
985.3560, 0.7904660
985.8381, 0.6168210
986.3203, 2.594299
986.8024, 4.043579
987.2845, 4.887329
987.7666, 5.156982
988.2487, 4.610901
988.7308, 3.563049
989.2130, 2.816589
989.6951, 2.434692
990.1772, 2.197876
990.6593, 2.045410
991.1414, 1.945190
991.6235, 1.799072
992.1057, 1.655518
992.5878, 1.874451
993.0699, 2.465088
993.5520, 3.025940
994.0341, 3.583618
994.5162, 3.875366
994.9984, 3.267944
995.4805, 2.124878
995.9626, 1.115173
996.4447, 0.1464230
996.9268, 0.1894530
997.4089, 0.7290650
997.8911, 1.900635
998.3732, 2.358521
998.8553, 2.112305
999.3374, 1.613892
999.8195, 0.8855590
1000.302, 0.3979490
1000.784, 0.6198730
1001.266, 1.133972
1001.748, 1.700195
1002.230, 2.269958
1002.712, 2.592102
1003.194, 2.498352
1003.676, 2.469238
1004.159, 2.647339
1004.641, 2.907898
1005.123, 3.152527
1005.605, 3.295593
1006.087, 2.989929
1006.569, 1.838196
1007.051, 1.029053
1007.533, 1.589966
1008.016, 2.469788
1008.498, 2.633423
1008.980, 1.836182
1009.462, 1.807556
1009.944, 2.643188
1010.426, 3.646484
1010.908, 4.291626
1011.390, 4.719177
1011.872, 5.404358
1012.355, 6.262756
1012.837, 6.521484
1013.319, 5.031555
1013.801, 3.956543
1014.283, 3.816895
1014.765, 4.221924
1015.247, 4.597290
1015.729, 4.910583
1016.211, 4.778931
1016.694, 3.985779
1017.176, 3.514404
1017.658, 4.933289
1018.140, 6.539795
1018.622, 6.519348
1019.104, 4.336731
1019.586, 3.446411
1020.068, 4.209473
1020.551, 5.188965
1021.033, 5.651489
1021.515, 5.786133
1021.997, 6.070923
1022.479, 6.390930
1022.961, 6.371277
1023.443, 5.246399
1023.925, 4.510132
1024.407, 4.734619
1024.890, 5.451904
1025.372, 6.214172
1025.854, 7.011536
1026.336, 7.381165
1026.818, 7.227478
1027.300, 6.961792
1027.782, 6.912842
1028.264, 7.104431
1028.746, 7.619263
1029.229, 8.414551
1029.711, 8.477417
1030.193, 7.392090
1030.675, 6.384827
1031.157, 5.784302
1031.639, 5.594543
1032.121, 6.090820
1032.603, 7.024963
1033.086, 7.594788
1033.568, 7.476196
1034.050, 7.190125
1034.532, 7.052979
1035.014, 6.778015
1035.496, 5.990967
1035.978, 4.515625
1036.460, 3.896057
1036.943, 4.169556
1037.425, 4.812012
1037.907, 5.819702
1038.389, 6.731323
1038.871, 6.898132
1039.353, 6.473633
1039.835, 6.129761
1040.317, 6.018799
1040.799, 5.998718
1041.281, 5.974548
1041.764, 6.097961
1042.246, 6.787415
1042.728, 7.836365
1043.210, 8.654663
1043.692, 9.209961
1044.174, 9.179443
1044.656, 7.589661
1045.138, 6.020386
1045.621, 5.484741
1046.103, 5.924927
1046.585, 6.904480
1047.067, 8.511108
1047.549, 9.347351
1048.031, 8.398254
1048.513, 6.980957
1048.995, 6.507080
1049.478, 6.650696
1049.960, 6.883362
1050.442, 7.301086
1050.924, 7.561401
1051.406, 7.618652
1051.888, 7.615112
1052.370, 7.833862
1052.852, 8.095398
1053.334, 7.566040
1053.817, 6.329651
1054.299, 5.439636
1054.781, 5.927002
1055.263, 6.451050
1055.745, 6.168945
1056.227, 5.516479
1056.709, 5.773987
1057.191, 7.003967
1057.673, 7.183716
1058.156, 5.587097
1058.638, 4.115845
1059.120, 5.328979
1059.602, 7.328918
1060.084, 7.880676
1060.566, 6.312073
1061.048, 5.542725
1061.530, 6.023010
1062.013, 6.475769
1062.495, 6.363525
1062.977, 5.774902
1063.459, 4.385925
1063.941, 2.683594
1064.423, 2.076111
1064.905, 4.485718
1065.387, 6.152893
1065.870, 5.168823
1066.352, 3.497742
1066.834, 2.832947
1067.316, 3.191345
1067.798, 3.723816
1068.280, 4.403259
1068.762, 5.076355
1069.244, 6.033081
1069.726, 6.609619
1070.208, 6.060242
1070.691, 4.597107
1071.173, 3.276855
1071.655, 2.048889
1072.137, 1.196838
1072.619, 0.7492070
1073.101, 0.7348020
1073.583, 1.463196
1074.065, 2.580688
1074.548, 3.477051
1075.030, 3.943604
1075.512, 4.139832
1075.994, 4.099915
1076.476, 3.882629
1076.958, 3.429871
1077.440, 2.842163
1077.922, 2.484070
1078.405, 2.343750
1078.887, 2.350952
1079.369, 2.517761
1079.851, 2.750854
1080.333, 3.212219
1080.815, 3.596924
1081.297, 3.518372
1081.779, 2.858276
1082.261, 2.417786
1082.744, 2.208984
1083.226, 2.028076
1083.708, 1.483826
1084.190, 1.077148
1084.672, 1.665833
1085.154, 2.856995
1085.636, 3.295288
1086.118, 2.180298
1086.601, 1.685852
1087.083, 2.236267
1087.565, 3.048401
1088.047, 3.055359
1088.529, 2.605957
1089.011, 2.456787
1089.493, 2.690613
1089.975, 2.920288
1090.458, 3.157104
1090.940, 3.117981
1091.422, 2.583130
1091.904, 1.773193
1092.386, 1.349243
1092.868, 1.280273
1093.350, 1.390259
1093.832, 1.621582
1094.314, 1.996704
1094.797, 3.061401
1095.279, 3.898926
1095.761, 3.381348
1096.243, 1.364807
1096.725, 0.7899780
1097.207, 1.804321
1097.689, 2.701050
1098.171, 2.215576
1098.653, 1.437012
1099.136, 1.843689
1099.618, 2.842041
1100.100, 3.256958
1100.582, 2.385193
1101.064, 1.765991
1101.546, 1.459045
1102.028, 1.329102
1102.510, 1.240173
1102.993, 1.233032
1103.475, 1.656372
1103.957, 2.363098
1104.439, 2.407104
1104.921, 0.5734250
1105.403, 0.9260250
1105.885, 1.552246
1106.367, 1.542847
1106.849, 1.114075
1107.332, 0.3663940
1107.814, 0.1377560
1108.296, 0.3195190
1108.778, 0.3315430
1109.260, 0.1100460
1109.742, 9.1309004E-02
1110.224, 0.1207890
1110.706, 3.0499999E-04
1111.188, 0.2280270
1111.671, 0.5640870
1112.153, 0.8628540
1112.635, 1.156738
1113.117, 1.186218
1113.599, 0.3026120
1114.081, 0.7816770
1114.563, 1.212952
1115.045, 0.8418580
1115.528, 2.6611000E-02
1116.010, 1.436462
1116.492, 2.511536
1116.974, 2.443542
1117.456, 1.801270
1117.938, 1.208862
1118.420, 0.7963870
1118.902, 0.8358150
1119.385, 2.221252
1119.867, 2.787781
1120.349, 2.197510
1120.831, 1.279480
1121.313, 0.6483760
1121.795, 0.3117070
1122.277, 0.2514650
1122.759, 0.4901120
1123.241, 1.124512
1123.724, 2.929932
1124.206, 4.160706
1124.688, 4.018005
1125.170, 3.361511
1125.652, 3.794861
1126.134, 5.044739
1126.616, 4.949036
1127.098, 3.219238
1127.580, 1.648071
1128.063, 1.728516
1128.545, 2.127502
1129.027, 2.038879
1129.509, 1.579041
1129.991, 1.174194
1130.473, 0.8377690
1130.955, 0.2708130
1131.437, 0.7391360
1131.920, 1.425415
1132.402, 0.6429440
1132.884, 0.5347290
1133.366, 0.9873050
1133.848, 0.5712280
1134.330, 0.4243770
1134.812, 0.5957030
1135.294, 0.7186890
1135.776, 0.4471440
1136.259, 0.3199460
1136.741, 1.517944
1137.223, 3.182556
1137.705, 3.872498
1138.187, 2.055786
1138.669, 2.355835
1139.151, 5.708435
1139.633, 8.817810
1140.115, 9.437134
1140.598, 8.301270
1141.080, 6.176147
1141.562, 3.611755
1142.044, 2.092712
1142.526, 3.391296
1143.008, 4.003296
1143.490, 3.211670
1143.972, 2.194336
1144.455, 2.230713
1144.937, 2.982361
1145.419, 3.640686
1145.901, 4.159485
1146.383, 4.361938
1146.865, 3.740662
1147.347, 3.316711
1147.829, 3.547485
1148.312, 3.988037
1148.794, 3.956116
1149.276, 3.493225
1149.758, 2.617004
1150.240, 1.316650
1150.722, 0.8364870
1151.204, 3.209839
1151.686, 5.347717
1152.168, 5.220337
1152.651, 3.648376
1153.133, 3.033752
1153.615, 3.313721
1154.097, 3.013062
1154.579, 1.587402
1155.061, 0.7473750
1155.543, 2.809570
1156.025, 5.296753
1156.507, 5.885254
1156.990, 4.793030
1157.472, 4.279114
1157.954, 4.378174
1158.436, 4.507263
1158.918, 4.491455
1159.400, 4.431152
1159.882, 4.408203
1160.364, 4.395813
1160.847, 4.399170
1161.329, 4.410522
1161.811, 4.689392
1162.293, 5.293518
1162.775, 5.635986
1163.257, 5.087280
1163.739, 4.447144
1164.221, 4.872009
1164.703, 5.908569
1165.186, 6.834534
1165.668, 7.859680
1166.150, 7.556641
1166.632, 5.510254
1167.114, 3.652039
1167.596, 3.747620
1168.078, 4.698242
1168.560, 4.816101
1169.042, 4.311768
1169.525, 3.804382
1170.007, 3.090942
1170.489, 2.821228
1170.971, 3.247681
1171.453, 3.743286
1171.935, 3.597351
1172.417, 3.092896
1172.899, 2.624817
1173.382, 2.319092
1173.864, 2.509888
1174.346, 4.148010
1174.828, 5.048706
1175.310, 4.713623
1175.792, 3.916199
1176.274, 3.626160
1176.756, 3.664490
1177.239, 3.655579
1177.721, 3.544067
1178.203, 3.307312
1178.685, 2.962463
1179.167, 2.571472
1179.649, 2.113953
1180.131, 1.659668
1180.613, 1.234741
1181.095, 0.9321290
1181.578, 1.184265
1182.060, 2.093567
1182.542, 2.592590
1183.024, 1.565552
1183.506, 0.8760380
1183.988, 1.442444
1184.470, 0.6730960
1184.952, 2.169739
1185.434, 0.7474980
1185.917, 0.2310180
1186.399, 1.290710
1186.881, 2.116516
1187.363, 1.301392
1187.845, 0.6293950
1188.327, 0.9990230
1188.809, 2.151672
1189.291, 3.331299
1189.774, 4.438354
1190.256, 5.116211
1190.738, 5.162231
1191.220, 4.852722
1191.702, 4.112854
1192.184, 3.255859
1192.666, 2.320435
1193.148, 1.429382
1193.630, 1.643311
1194.113, 2.769165
1194.595, 3.692932
1195.077, 3.950806
1195.559, 3.902039
1196.041, 3.340210
1196.523, 2.875061
1197.005, 3.191956
1197.487, 4.185181
1197.969, 3.893555
1198.452, 2.476318
1198.934, 1.127625
1199.416, 0.3770750
1199.898, 3.7964001E-02
1200.380, 4.4922002E-02
1200.862, 0.2272340
1201.344, 2.6916999E-02
1201.826, 0.7146000
1202.309, 0.3740840
1202.791, 0.9053960
1203.273, 1.917786
1203.755, 1.592102
1204.237, 1.250000
1204.719, 1.699097
1205.201, 2.401428
1205.683, 2.669739
1206.166, 2.502869
1206.648, 2.690186
1207.130, 3.226563
1207.612, 3.668518
1208.094, 3.728271
1208.576, 3.604187
1209.058, 3.471680
1209.540, 3.173584
1210.022, 2.206787
1210.505, 0.6245120
1210.987, 0.4265140
1211.469, 1.726318
1211.951, 2.853577
1212.433, 2.291626
1212.915, 1.700317
1213.397, 2.474915
1213.879, 3.605835
1214.361, 3.045105
1214.844, 0.9544680
1215.326, 6.2927000E-02
1215.808, 0.6893920
1216.290, 1.291260
1216.772, 0.4702760
1217.254, 0.2993160
1217.736, 3.6010999E-02
1218.218, 0.7294920
1218.701, 0.7421880
1219.183, 0.1129760
1219.665, 0.3975830
1220.147, 1.872742
1220.629, 3.054260
1221.111, 2.591064
1221.593, 1.974121
1222.075, 2.041870
1222.557, 2.522156
1223.040, 2.795898
1223.522, 2.860718
1224.004, 2.591309
1224.486, 1.933167
1224.968, 1.399780
1225.450, 1.750427
1225.932, 1.805664
1226.414, 0.6838990
1226.896, 0.9877930
1227.379, 1.219666
1227.861, 0.2296140
1228.343, 0.8024900
1228.825, 1.661438
1229.307, 2.466614
1229.789, 3.542236
1230.271, 4.251099
1230.753, 4.187439
1231.236, 3.582642
1231.718, 3.060669
1232.200, 2.665405
1232.682, 2.749512
1233.164, 3.634949
1233.646, 3.837891
1234.128, 1.596008
1234.610, 0.3455810
1235.093, 0.7919920
1235.575, 5.6945998E-02
1236.057, 2.372559
1236.539, 5.449463
1237.021, 6.732544
1237.503, 5.060059
1237.985, 3.242554
1238.467, 1.971436
1238.949, 1.237549
1239.432, 1.159546
1239.914, 1.552795
1240.396, 2.041077
1240.878, 2.492737
1241.360, 2.436707
1241.842, 1.376343
1242.324, 1.015625
1242.806, 2.024353
1243.288, 3.359192
1243.771, 4.823792
1244.253, 6.089478
1244.735, 6.089661
1245.217, 5.346497
1245.699, 5.075562
1246.181, 5.884583
1246.663, 6.375610
1247.145, 6.396362
1247.628, 6.064270
1248.110, 5.168518
1248.592, 4.222046
1249.074, 4.607300
1249.556, 5.729004
1250.038, 6.400696
1250.520, 6.118286
1251.002, 5.767883
1251.484, 5.138428
1251.967, 5.050781
1252.449, 6.244385
1252.931, 7.831604
1253.413, 8.669373
1253.895, 8.893860
1254.377, 8.704163
1254.859, 7.940979
1255.341, 7.101257
1255.823, 5.968628
1256.306, 5.736267
1256.788, 8.082764
1257.270, 10.55103
1257.752, 9.687073
1258.234, 7.097534
1258.716, 5.456299
1259.198, 5.046753
1259.680, 5.234070
1260.163, 6.091125
1260.645, 6.867554
1261.127, 7.420715
1261.609, 7.405334
1262.091, 5.991577
1262.573, 4.144348
1263.055, 3.220642
1263.537, 3.391846
1264.020, 3.277466
1264.502, 2.940552
1264.984, 3.001221
1265.466, 3.652710
1265.948, 4.389465
1266.430, 5.192505
1266.912, 5.637329
1267.394, 5.076355
1267.876, 3.381470
1268.359, 2.924622
1268.841, 3.813232
1269.323, 4.827820
1269.805, 6.001404
1270.287, 6.314087
1270.769, 4.422180
1271.251, 2.302673
1271.733, 1.598877
1272.215, 2.146606
1272.698, 2.113281
1273.180, 1.638428
1273.662, 1.363037
1274.144, 1.846497
1274.626, 2.206909
1275.108, 2.296570
1275.590, 2.185181
1276.072, 1.769409
1276.555, 1.221558
1277.037, 1.140198
1277.519, 1.420532
1278.001, 1.774536
1278.483, 2.270630
1278.965, 2.484741
1279.447, 2.301086
1279.929, 2.035461
1280.411, 1.785645
1280.894, 1.690002
1281.376, 2.211487
1281.858, 3.065491
1282.340, 3.621704
1282.822, 3.624695
1283.304, 3.701599
1283.786, 3.958862
1284.268, 3.775879
1284.750, 2.081726
1285.233, 0.3020020
1285.715, 0.4440920
1286.197, 0.3377080
1286.679, 0.2634280
1287.161, 0.5655520
1287.643, 1.077332
1288.125, 3.436890
1288.607, 5.609253
1289.090, 6.437134
1289.572, 6.446838
1290.054, 5.209839
1290.536, 3.807861
1291.018, 3.742432
1291.500, 5.110962
1291.982, 5.387207
1292.464, 4.653381
1292.947, 3.697571
1293.429, 2.558289
1293.911, 1.250916
1294.393, 0.8702390
1294.875, 0.7748410
1295.357, 0.6448360
1295.839, 0.5118410
1296.321, 0.8471070
1296.803, 1.509399
1297.286, 1.913208
1297.768, 1.786743
1298.250, 1.355469
1298.732, 0.3995360
1299.214, 2.5390999E-02
1299.696, 0.8137210
1300.178, 0.8111570
1300.660, 0.0000000E+00
##END=



