##NAMES=Raguinite
##RRUFFID=R130617
##IDEAL CHEMISTRY=Tl^1+^Fe^3+^S^2-^_2_
##LOCALITY=Allchar, Roszdan, Republic of Macedonia
##OWNER=RRUFF
##SOURCE=Mark N. Feinglos
##DESCRIPTION=Black granular crystals, associated with dolomite, realgar, and lorandite.
##STATUS=The identification of this mineral has been confirmed only by single crystal X-ray diffraction.
##URL=rruff.info/R130617
93.84985, 0.0000000E+00
94.33197, 1.894531
94.81409, 3.527161
95.29620, 2.630310
95.77832, 1.738770
96.26044, 1.058533
96.74255, 0.4182740
97.22467, 0.1635740
97.70679, 0.5477290
98.18890, 1.429749
98.67102, 2.907593
99.15314, 4.473755
99.63525, 4.933228
100.1174, 3.591858
100.5995, 1.491211
101.0816, 0.2374880
101.5637, 0.1782230
102.0458, 0.1494750
102.5280, 0.2603760
103.0101, 0.9281010
103.4922, 1.482544
103.9743, 1.362671
104.4564, 0.6907960
104.9385, 0.9210210
105.4207, 2.968262
105.9028, 5.049561
106.3849, 6.263550
106.8670, 6.580200
107.3491, 6.016174
107.8312, 4.813232
108.3134, 2.987732
108.7955, 1.705811
109.2776, 1.763672
109.7597, 2.656982
110.2418, 4.751099
110.7239, 7.831238
111.2061, 9.134644
111.6882, 9.285217
112.1703, 8.524475
112.6524, 7.883850
113.1345, 8.488770
113.6166, 10.28101
114.0988, 11.55914
114.5809, 11.91046
115.0630, 11.79456
115.5451, 11.47430
116.0272, 10.93787
116.5093, 10.01434
116.9915, 8.552979
117.4736, 6.356323
117.9557, 4.420410
118.4378, 2.614746
118.9199, 1.141479
119.4020, 0.2897950
119.8842, 0.1265870
120.3663, 0.3742680
120.8484, 0.6778560
121.3305, 0.9520260
121.8126, 1.353821
122.2947, 2.289246
122.7769, 3.278503
123.2590, 3.513672
123.7411, 2.467712
124.2232, 0.5131230
124.7053, 0.7570800
125.1874, 0.8113400
125.6696, 0.7825320
126.1517, 1.669617
126.6338, 3.239502
127.1159, 3.968689
127.5980, 2.344666
128.0801, 0.8999020
128.5623, 2.825195
129.0444, 2.292542
129.5265, 1.135803
130.0086, 1.199951
130.4907, 2.674255
130.9728, 4.433044
131.4550, 6.017578
131.9371, 7.396545
132.4192, 8.474792
132.9013, 9.365784
133.3834, 9.907837
133.8655, 9.463501
134.3477, 7.117371
134.8298, 5.117554
135.3119, 4.378174
135.7940, 4.611328
136.2761, 5.257874
136.7582, 5.851196
137.2404, 6.365479
137.7225, 7.697998
138.2046, 10.21185
138.6867, 13.27069
139.1688, 17.19928
139.6509, 21.65710
140.1331, 25.83759
140.6152, 28.96069
141.0973, 30.86401
141.5794, 32.01007
142.0615, 33.20569
142.5436, 33.27905
143.0258, 31.08063
143.5079, 26.57581
143.9900, 21.04370
144.4721, 16.04291
144.9542, 11.35858
145.4363, 8.123901
145.9185, 7.267395
146.4006, 7.530212
146.8827, 7.473450
147.3648, 6.659729
147.8469, 5.551208
148.3290, 4.818359
148.8112, 4.353027
149.2933, 4.392212
149.7754, 5.601563
150.2575, 7.468445
150.7396, 8.395752
151.2217, 7.502197
151.7039, 6.569458
152.1860, 6.393738
152.6681, 7.055115
153.1502, 7.805786
153.6323, 8.027832
154.1144, 7.714661
154.5966, 7.464233
155.0787, 7.956116
155.5608, 8.254089
156.0429, 7.470459
156.5250, 5.392517
157.0071, 3.053162
157.4893, 1.777405
157.9714, 1.588562
158.4535, 2.517212
158.9356, 4.630371
159.4177, 7.626587
159.8998, 11.35913
160.3820, 15.76099
160.8641, 20.82568
161.3462, 26.63934
161.8283, 34.60266
162.3104, 41.24896
162.7925, 46.14142
163.2747, 49.73999
163.7568, 52.57336
164.2389, 54.88214
164.7210, 56.55542
165.2031, 57.05554
165.6852, 55.12836
166.1674, 53.44427
166.6495, 52.15460
167.1316, 51.42242
167.6137, 51.53912
168.0958, 52.72778
168.5779, 54.87305
169.0601, 57.18744
169.5422, 60.20630
170.0243, 62.80792
170.5064, 64.46790
170.9885, 65.30939
171.4706, 65.76752
171.9528, 65.93042
172.4349, 65.95001
172.9170, 66.41394
173.3991, 67.40173
173.8812, 68.75464
174.3633, 70.21338
174.8455, 71.76611
175.3276, 73.93060
175.8097, 76.62512
176.2918, 80.33228
176.7739, 85.97601
177.2560, 93.84668
177.7382, 103.6982
178.2203, 115.2450
178.7024, 128.5475
179.1845, 143.2877
179.6666, 161.1361
180.1487, 179.7567
180.6309, 196.3627
181.1130, 210.8652
181.5951, 221.9972
182.0772, 226.1104
182.5593, 220.6722
183.0414, 211.5462
183.5236, 199.2532
184.0057, 185.5928
184.4878, 172.9890
184.9699, 162.8047
185.4520, 155.0595
185.9341, 149.1569
186.4163, 145.0077
186.8984, 142.7562
187.3805, 142.6362
187.8626, 144.2996
188.3447, 147.3568
188.8268, 151.7627
189.3090, 157.4918
189.7911, 162.2081
190.2732, 168.4052
190.7553, 171.0181
191.2374, 167.9546
191.7195, 160.0280
192.2017, 149.0421
192.6838, 136.2182
193.1659, 121.3928
193.6480, 107.1492
194.1301, 92.32806
194.6122, 78.87103
195.0944, 67.27875
195.5765, 57.77362
196.0586, 50.68793
196.5407, 46.57996
197.0228, 45.65594
197.5049, 44.88531
197.9871, 43.91205
198.4692, 43.32935
198.9513, 43.57147
199.4334, 44.61884
199.9155, 46.13904
200.3976, 48.13153
200.8798, 50.47113
201.3619, 51.95819
201.8440, 52.09509
202.3261, 51.63568
202.8082, 50.92340
203.2903, 49.95721
203.7725, 49.55743
204.2546, 50.57056
204.7367, 52.70789
205.2188, 55.17932
205.7009, 57.65015
206.1830, 60.47791
206.6652, 64.10693
207.1473, 68.56830
207.6294, 73.77173
208.1115, 79.80328
208.5936, 86.49078
209.0757, 93.76984
209.5579, 101.7148
210.0400, 110.1653
210.5221, 118.7799
211.0042, 127.3026
211.4863, 136.6317
211.9685, 147.2672
212.4506, 158.8928
212.9327, 171.0589
213.4148, 183.5732
213.8969, 196.5431
214.3790, 210.3651
214.8612, 226.0223
215.3433, 240.9449
215.8254, 255.1074
216.3075, 267.9042
216.7896, 278.7817
217.2717, 287.6303
217.7539, 294.0897
218.2360, 296.4540
218.7181, 295.0084
219.2002, 288.1492
219.6823, 273.8126
220.1644, 254.7056
220.6466, 234.1365
221.1287, 213.9290
221.6108, 194.2095
222.0929, 175.9165
222.5750, 158.1601
223.0571, 143.1781
223.5393, 132.0212
224.0214, 123.8144
224.5035, 117.3807
224.9856, 112.0600
225.4677, 108.6965
225.9498, 105.6044
226.4320, 106.3200
226.9141, 107.5988
227.3962, 110.0399
227.8783, 112.6435
228.3604, 113.8491
228.8425, 112.6664
229.3247, 109.5586
229.8068, 107.1686
230.2889, 106.6148
230.7710, 105.4592
231.2531, 103.0146
231.7352, 99.64178
232.2174, 96.04776
232.6995, 92.64816
233.1816, 89.23303
233.6637, 84.78973
234.1458, 79.18060
234.6279, 72.93625
235.1101, 65.72473
235.5922, 57.98019
236.0743, 50.51746
236.5564, 43.77145
237.0385, 37.57401
237.5206, 31.58609
238.0028, 25.57452
238.4849, 20.00687
238.9670, 14.86044
239.4491, 10.29794
239.9312, 6.724548
240.4133, 4.512512
240.8955, 3.190247
241.3776, 1.650909
241.8597, 0.2504880
242.3418, 1.969299
242.8239, 3.275146
243.3060, 4.217407
243.7882, 4.945770
244.2703, 5.526489
244.7524, 5.865143
245.2345, 5.715393
245.7166, 4.940796
246.1987, 4.410126
246.6809, 4.828949
247.1630, 5.886993
247.6451, 6.556763
248.1272, 6.532684
248.6093, 6.015747
249.0914, 5.170624
249.5736, 3.990295
250.0557, 2.951080
250.5378, 2.502502
251.0199, 2.467651
251.5020, 2.070343
251.9841, 0.9529110
252.4663, 0.2767640
252.9484, 0.9927670
253.4305, 1.257111
253.9126, 1.641327
254.3947, 2.426300
254.8768, 3.599670
255.3590, 5.149017
255.8411, 7.380371
256.3232, 9.575165
256.8053, 11.22647
257.2874, 12.43262
257.7695, 13.54459
258.2516, 14.60168
258.7338, 15.69019
259.2159, 17.26239
259.6980, 19.52557
260.1801, 22.03952
260.6622, 24.64944
261.1443, 27.29327
261.6265, 29.83453
262.1086, 32.11118
262.5907, 34.20908
263.0728, 36.42239
263.5549, 38.51624
264.0370, 41.15604
264.5192, 44.60675
265.0013, 48.68188
265.4834, 53.10953
265.9655, 57.83124
266.4476, 62.75720
266.9297, 67.67706
267.4119, 72.67654
267.8940, 77.48376
268.3761, 81.64624
268.8582, 85.70325
269.3403, 90.47388
269.8224, 96.45953
270.3046, 103.0748
270.7867, 108.6375
271.2688, 112.4540
271.7509, 116.4066
272.2330, 121.4971
272.7151, 126.6506
273.1973, 130.6934
273.6794, 133.1352
274.1615, 134.6974
274.6436, 136.9718
275.1257, 140.5222
275.6078, 143.6793
276.0900, 146.1626
276.5721, 148.2736
277.0542, 150.1799
277.5363, 151.9534
278.0184, 153.6456
278.5005, 155.4756
278.9827, 158.0596
279.4648, 159.2995
279.9469, 158.8944
280.4290, 157.5203
280.9111, 155.3807
281.3932, 152.6277
281.8754, 149.5881
282.3575, 146.6840
282.8396, 144.0041
283.3217, 141.2201
283.8038, 138.5905
284.2859, 135.6729
284.7681, 132.1870
285.2502, 128.1528
285.7323, 123.8035
286.2144, 119.3376
286.6965, 114.6998
287.1786, 110.2300
287.6608, 105.9384
288.1429, 101.7663
288.6250, 97.71594
289.1071, 93.77240
289.5892, 89.90961
290.0714, 86.10620
290.5535, 82.38123
291.0356, 78.47693
291.5177, 73.97974
291.9998, 69.75854
292.4819, 66.18164
292.9641, 63.04193
293.4462, 59.90314
293.9283, 56.44702
294.4104, 52.77545
294.8925, 49.44958
295.3746, 46.76025
295.8568, 44.11609
296.3389, 41.29260
296.8210, 38.48926
297.3031, 36.00671
297.7852, 33.97144
298.2673, 32.26764
298.7495, 30.56134
299.2316, 28.69635
299.7137, 26.86151
300.1958, 25.05591
300.6779, 23.29828
301.1600, 21.67767
301.6422, 20.20709
302.1243, 18.71027
302.6064, 16.84119
303.0885, 14.16223
303.5706, 12.02936
304.0527, 10.61157
304.5349, 9.496277
305.0170, 8.360840
305.4991, 7.194519
305.9812, 6.250305
306.4633, 5.891785
306.9454, 6.488892
307.4276, 6.456482
307.9097, 5.399353
308.3918, 4.134338
308.8739, 2.898193
309.3560, 1.843750
309.8381, 1.246887
310.3203, 1.394531
310.8024, 2.325684
311.2845, 2.626465
311.7666, 1.709229
312.2487, 0.8535160
312.7308, 0.5564580
313.2130, 0.6732180
313.6951, 0.7979130
314.1772, 0.6587520
314.6593, 0.3197020
315.1414, 0.2396240
315.6235, 0.1472780
316.1057, 0.6278080
316.5878, 2.188354
317.0699, 4.264587
317.5520, 6.105713
318.0341, 7.369019
318.5162, 8.260010
318.9984, 9.282959
319.4805, 10.26135
319.9626, 11.65192
320.4447, 13.71118
320.9268, 16.03912
321.4089, 18.29578
321.8911, 20.38831
322.3732, 22.40125
322.8553, 24.46613
323.3374, 26.54114
323.8195, 28.77094
324.3016, 31.48932
324.7838, 34.06982
325.2659, 35.92139
325.7480, 37.13977
326.2301, 38.37695
326.7122, 40.32056
327.1943, 43.08435
327.6765, 45.52771
328.1586, 47.49280
328.6407, 49.32404
329.1228, 50.87482
329.6049, 52.38898
330.0870, 54.37683
330.5692, 57.21722
331.0513, 60.79944
331.5334, 64.21301
332.0155, 66.75555
332.4976, 69.97711
332.9797, 74.16937
333.4619, 79.15381
333.9440, 84.76807
334.4261, 90.95264
334.9082, 97.54596
335.3904, 104.2318
335.8725, 110.8359
336.3546, 117.8057
336.8367, 125.8854
337.3188, 133.8715
337.8009, 140.6478
338.2831, 146.0301
338.7652, 150.7930
339.2473, 156.0227
339.7294, 162.3058
340.2115, 167.2167
340.6936, 171.0853
341.1758, 173.5214
341.6579, 174.0136
342.1400, 172.8047
342.6221, 170.5931
343.1042, 167.8717
343.5863, 164.6391
344.0685, 161.4537
344.5506, 157.6246
345.0327, 154.6109
345.5148, 152.4112
345.9969, 151.3250
346.4790, 151.7029
346.9612, 153.7177
347.4433, 157.3755
347.9254, 162.8486
348.4075, 170.6393
348.8896, 179.5860
349.3717, 189.8480
349.8539, 200.7536
350.3360, 212.2589
350.8181, 224.1723
351.3002, 235.5564
351.7823, 245.5776
352.2644, 255.2504
352.7466, 260.0628
353.2287, 257.9562
353.7108, 252.5579
354.1929, 245.1081
354.6750, 235.9133
355.1571, 224.9758
355.6393, 211.4716
356.1214, 195.3845
356.6035, 182.1986
357.0856, 173.5889
357.5677, 166.2411
358.0498, 159.4001
358.5320, 152.8603
359.0141, 146.3717
359.4962, 139.8322
359.9783, 133.2628
360.4604, 126.8387
360.9425, 120.6351
361.4247, 114.3389
361.9068, 107.2112
362.3889, 100.2941
362.8710, 94.74402
363.3531, 90.89777
363.8352, 87.75110
364.3174, 83.91754
364.7995, 79.23181
365.2816, 75.48608
365.7637, 73.41162
366.2458, 72.06738
366.7279, 71.08167
367.2101, 70.38672
367.6922, 69.61603
368.1743, 68.21759
368.6564, 66.42480
369.1385, 65.55637
369.6206, 66.25009
370.1028, 66.65109
370.5849, 65.05917
371.0670, 62.57715
371.5491, 61.17401
372.0312, 61.96353
372.5133, 63.59610
372.9955, 64.05273
373.4776, 63.22314
373.9597, 62.58289
374.4418, 62.96631
374.9239, 63.73642
375.4060, 64.04224
375.8882, 63.69180
376.3703, 63.16687
376.8524, 62.76761
377.3345, 62.48486
377.8166, 62.15396
378.2987, 61.64484
378.7809, 61.28320
379.2630, 61.50079
379.7451, 62.19934
380.2272, 62.85980
380.7093, 63.54654
381.1914, 63.95685
381.6736, 63.40436
382.1557, 61.84378
382.6378, 60.53256
383.1199, 60.56824
383.6020, 61.66400
384.0841, 62.28107
384.5663, 61.89575
385.0484, 61.42676
385.5305, 61.29019
386.0126, 61.50281
386.4947, 61.97156
386.9768, 62.77005
387.4590, 63.60901
387.9411, 63.76340
388.4232, 62.92416
388.9053, 62.44800
389.3874, 63.03583
389.8695, 63.94058
390.3517, 64.20111
390.8338, 63.65918
391.3159, 63.03897
391.7980, 63.16693
392.2801, 64.20245
392.7622, 64.47675
393.2444, 63.32645
393.7265, 62.12622
394.2086, 61.81104
394.6907, 62.04034
395.1728, 61.82040
395.6549, 60.56879
396.1371, 58.51410
396.6192, 56.60443
397.1013, 54.58762
397.5834, 53.03922
398.0655, 52.39432
398.5476, 52.05609
399.0298, 51.45749
399.5119, 50.44171
399.9940, 49.17853
400.4761, 47.89175
400.9582, 46.60938
401.4403, 45.21155
401.9225, 43.79749
402.4046, 42.19727
402.8867, 40.09982
403.3688, 37.74081
403.8509, 35.67993
404.3330, 34.34598
404.8152, 33.57260
405.2973, 32.39035
405.7794, 30.35223
406.2615, 28.56430
406.7436, 27.34033
407.2257, 26.38074
407.7079, 25.46851
408.1900, 24.51840
408.6721, 23.41675
409.1542, 21.89706
409.6363, 19.80716
410.1184, 18.07693
410.6006, 16.95715
411.0827, 16.10248
411.5648, 15.56085
412.0469, 15.17929
412.5290, 14.52560
413.0111, 13.18530
413.4933, 11.38550
413.9754, 9.834045
414.4575, 8.550171
414.9396, 7.479401
415.4217, 6.728912
415.9038, 6.131989
416.3860, 5.490814
416.8681, 4.718262
417.3502, 4.022919
417.8323, 3.622650
418.3144, 3.494507
418.7965, 3.538757
419.2787, 3.938812
419.7608, 4.187653
420.2429, 3.519989
420.7250, 2.029572
421.2071, 0.8942260
421.6892, 0.7395940
422.1714, 1.057861
422.6535, 1.283752
423.1356, 1.375610
423.6177, 1.170746
424.0998, 0.4599300
424.5819, 0.6368410
425.0641, 1.538788
425.5462, 2.443634
426.0283, 2.920624
426.5104, 2.348022
426.9925, 1.273376
427.4746, 0.8870850
427.9568, 1.643280
428.4389, 2.742188
428.9210, 2.951843
429.4031, 1.795013
429.8852, 1.044281
430.3673, 0.7300110
430.8495, 0.7933960
431.3316, 1.504028
431.8137, 2.637451
432.2958, 3.436554
432.7779, 3.328888
433.2600, 2.426697
433.7422, 1.636719
434.2243, 0.6103820
434.7064, 0.1386410
435.1885, 0.7481990
435.6706, 1.768646
436.1527, 2.576050
436.6349, 2.953430
437.1170, 2.925598
437.5991, 2.468506
438.0812, 1.456879
438.5633, 0.4799800
439.0454, 0.8323670
439.5276, 1.748016
440.0097, 1.853271
440.4918, 1.320129
440.9739, 0.4685970
441.4560, 0.6921690
441.9381, 1.795441
442.4203, 1.510162
442.9024, 1.000916
443.3845, 2.676056
443.8666, 1.608734
444.3487, 9.0759002E-02
444.8308, 0.6714480
445.3130, 0.1704710
445.7951, 1.331421
446.2772, 1.949677
446.7593, 2.104462
447.2414, 2.178223
447.7235, 2.148743
448.2057, 2.179413
448.6878, 2.447876
449.1699, 2.870300
449.6520, 3.259644
450.1341, 3.624603
450.6162, 3.887634
451.0984, 3.803345
451.5805, 3.466309
452.0626, 3.586273
452.5447, 4.659912
453.0268, 6.012787
453.5089, 6.146790
453.9911, 4.736694
454.4732, 3.914215
454.9553, 4.644989
455.4374, 5.909912
455.9195, 6.634735
456.4016, 6.727112
456.8838, 6.705078
457.3659, 6.989227
457.8480, 7.553131
458.3301, 7.938721
458.8122, 7.971893
459.2943, 8.061737
459.7765, 8.364868
460.2586, 8.767639
460.7407, 9.142792
461.2228, 9.440460
461.7049, 9.639008
462.1870, 9.682007
462.6692, 9.485962
463.1513, 9.430634
463.6334, 9.423187
464.1155, 9.647522
464.5976, 10.47742
465.0797, 11.58371
465.5619, 12.22632
466.0440, 11.92221
466.5261, 11.06277
467.0082, 10.72360
467.4903, 11.07361
467.9724, 11.63776
468.4546, 12.27008
468.9367, 12.93018
469.4188, 13.63245
469.9009, 14.35947
470.3830, 14.90524
470.8651, 14.97858
471.3473, 14.72604
471.8294, 14.72501
472.3115, 15.10767
472.7936, 15.50485
473.2757, 15.58044
473.7578, 15.47247
474.2400, 15.34473
474.7221, 15.14059
475.2042, 15.05798
475.6863, 15.23431
476.1684, 15.63547
476.6505, 16.28381
477.1327, 17.27960
477.6148, 18.13147
478.0969, 18.12308
478.5790, 17.09998
479.0611, 16.32907
479.5432, 15.92603
480.0254, 15.75333
480.5075, 15.85931
480.9896, 16.13559
481.4717, 16.27930
481.9538, 16.10706
482.4359, 15.72369
482.9181, 15.53775
483.4002, 15.86075
483.8823, 15.94360
484.3644, 15.67975
484.8465, 15.40366
485.3286, 15.33249
485.8108, 15.37418
486.2929, 15.27341
486.7750, 14.86462
487.2571, 14.27527
487.7392, 13.84033
488.2213, 13.54248
488.7035, 13.33591
489.1856, 13.37061
489.6677, 13.30606
490.1498, 12.71677
490.6319, 11.55115
491.1140, 10.49210
491.5962, 10.27811
492.0783, 10.81650
492.5604, 11.21555
493.0425, 11.35742
493.5246, 11.18097
494.0067, 10.55273
494.4889, 9.634369
494.9710, 8.715393
495.4531, 7.719788
495.9352, 6.993927
496.4173, 6.938141
496.8994, 7.406647
497.3816, 7.792999
497.8637, 7.896820
498.3458, 7.731140
498.8279, 7.270477
499.3100, 6.417206
499.7921, 5.568481
500.2743, 4.659393
500.7564, 4.131683
501.2385, 4.326965
501.7206, 4.930023
502.2027, 5.174988
502.6848, 4.686371
503.1670, 3.818817
503.6491, 3.371063
504.1312, 3.592987
504.6133, 3.730408
505.0954, 3.477722
505.5775, 3.355774
506.0597, 4.055695
506.5418, 5.339325
507.0239, 6.135986
507.5060, 5.473358
507.9881, 3.682343
508.4702, 2.299774
508.9524, 1.300415
509.4345, 0.7615050
509.9166, 0.9998170
510.3987, 1.563751
510.8808, 2.126831
511.3629, 2.634521
511.8451, 2.953552
512.3271, 2.952698
512.8093, 2.704529
513.2914, 2.292572
513.7735, 1.675873
514.2556, 1.129730
514.7377, 0.7897340
515.2198, 0.6944270
515.7020, 0.9115300
516.1841, 1.777008
516.6662, 2.465851
517.1483, 2.519745
517.6304, 2.186401
518.1125, 1.860870
518.5947, 1.638885
519.0768, 1.402802
519.5589, 1.006439
520.0410, 0.4162290
520.5231, 2.9297000E-02
521.0052, 0.3522950
521.4874, 0.5327150
521.9695, 0.6055910
522.4516, 0.5182190
522.9337, 2.5696000E-02
523.4158, 0.9292600
523.8979, 1.783203
524.3801, 1.447418
524.8622, 0.4963680
525.3443, 1.387482
525.8264, 0.2154850
526.3085, 1.024231
526.7906, 1.474213
527.2728, 1.369995
527.7549, 1.230988
528.2370, 1.308472
528.7191, 1.331696
529.2012, 0.7024840
529.6833, 0.4975590
530.1655, 0.9098510
530.6476, 0.1757510
531.1297, 1.532715
531.6118, 1.629761
532.0939, 0.6595760
532.5760, 5.4168999E-02
533.0582, 0.1016240
533.5403, 7.2235003E-02
534.0224, 0.1642150
534.5045, 0.1957700
534.9866, 0.2823490
535.4688, 0.4804380
535.9509, 0.7189330
536.4330, 0.8498840
536.9151, 0.7409360
537.3972, 0.8602600
537.8793, 1.339661
538.3615, 1.906677
538.8436, 2.608856
539.3257, 3.263519
539.8078, 3.474457
540.2899, 2.986877
540.7720, 2.104248
541.2542, 1.525391
541.7363, 1.331604
542.2184, 1.159882
542.7005, 0.7904360
543.1826, 0.5755920
543.6647, 0.8639530
544.1469, 1.524689
544.6290, 2.038025
545.1111, 2.103180
545.5932, 1.899872
546.0753, 1.555725
546.5574, 1.087646
547.0396, 1.031403
547.5217, 1.773743
548.0038, 2.772949
548.4859, 3.173920
548.9680, 2.970123
549.4501, 2.600708
549.9323, 1.758026
550.4144, 1.091736
550.8965, 1.255585
551.3786, 2.083008
551.8607, 2.986298
552.3428, 3.677246
552.8250, 4.102295
553.3071, 4.096039
553.7892, 3.285370
554.2713, 2.716125
554.7534, 2.436890
555.2355, 2.322357
555.7177, 2.343079
556.1998, 2.469391
556.6819, 2.659851
557.1640, 2.897278
557.6461, 3.167969
558.1282, 3.475525
558.6104, 3.856140
559.0925, 4.025909
559.5746, 3.632141
560.0567, 3.297028
560.5388, 3.650665
561.0209, 4.595978
561.5031, 5.460785
561.9852, 6.226471
562.4673, 6.626556
562.9494, 6.085480
563.4315, 4.826935
563.9136, 3.897980
564.3958, 3.709290
564.8779, 4.104767
565.3600, 4.911194
565.8421, 6.465454
566.3242, 7.385468
566.8063, 7.073364
567.2885, 6.707703
567.7706, 7.003235
568.2527, 7.769409
568.7348, 8.559692
569.2169, 9.167267
569.6990, 9.528748
570.1812, 9.359070
570.6633, 8.348755
571.1454, 8.079803
571.6275, 9.365143
572.1096, 10.71716
572.5917, 11.29132
573.0739, 11.36539
573.5560, 11.66196
574.0381, 12.61133
574.5202, 13.61685
575.0023, 13.74991
575.4844, 13.23770
575.9666, 13.53848
576.4487, 15.27347
576.9308, 17.03769
577.4129, 17.18320
577.8950, 15.65833
578.3771, 14.75180
578.8593, 14.68219
579.3414, 15.04279
579.8235, 16.03876
580.3056, 17.24133
580.7877, 17.84479
581.2698, 17.62576
581.7520, 17.35684
582.2341, 18.16290
582.7162, 20.23529
583.1984, 21.14700
583.6805, 19.67734
584.1626, 18.78961
584.6447, 19.86642
585.1268, 21.69806
585.6089, 22.78494
586.0911, 22.72437
586.5732, 22.26053
587.0553, 21.91559
587.5374, 21.69299
588.0195, 21.71173
588.5016, 22.07867
588.9838, 22.61942
589.4659, 23.42398
589.9480, 24.28250
590.4301, 24.60968
590.9122, 24.19067
591.3943, 23.70016
591.8765, 23.28629
592.3586, 22.93372
592.8407, 22.59537
593.3228, 22.28973
593.8049, 22.12866
594.2870, 22.21039
594.7692, 22.47833
595.2513, 22.70746
595.7334, 23.16992
596.2155, 23.08292
596.6976, 21.81876
597.1797, 20.49332
597.6619, 19.92133
598.1440, 20.02206
598.6261, 20.15161
599.1082, 19.94336
599.5903, 19.50259
600.0724, 18.94238
600.5546, 18.25772
601.0367, 17.76041
601.5188, 17.62091
602.0009, 17.59567
602.4830, 17.32669
602.9651, 16.81796
603.4473, 16.48492
603.9294, 16.59885
604.4115, 16.69705
604.8936, 16.69611
605.3757, 16.43564
605.8578, 15.42508
606.3400, 13.51733
606.8221, 11.51779
607.3042, 10.63931
607.7863, 11.09970
608.2684, 11.28589
608.7505, 11.03711
609.2327, 10.69827
609.7148, 10.34940
610.1969, 9.985748
610.6790, 9.583557
611.1611, 9.137177
611.6432, 8.699158
612.1254, 8.301483
612.6075, 7.945038
613.0896, 7.676849
613.5717, 7.519196
614.0538, 7.259644
614.5359, 6.705597
615.0181, 5.986389
615.5002, 5.499573
615.9823, 5.335236
616.4644, 5.146362
616.9465, 4.762939
617.4286, 4.400574
617.9108, 4.350983
618.3929, 4.514526
618.8750, 4.474365
619.3571, 3.946594
619.8392, 3.164246
620.3214, 2.772919
620.8035, 2.934174
621.2856, 3.000946
621.7677, 2.942749
622.2498, 2.736603
622.7319, 2.186523
623.2141, 1.479889
623.6962, 1.088226
624.1783, 1.232452
624.6604, 1.679657
625.1425, 2.370911
625.6246, 3.196564
626.1068, 3.870483
626.5889, 4.368866
627.0710, 4.402252
627.5531, 3.522247
628.0352, 1.765991
628.5173, 0.6136470
628.9995, 2.8080000E-03
629.4816, 0.0000000E+00
629.9637, 1.394501
630.4458, 2.937103
630.9279, 3.226379
631.4100, 2.249451
631.8922, 1.196198
632.3743, 1.061096
632.8564, 1.592651
633.3385, 1.833221
633.8206, 1.674011
634.3027, 1.671295
634.7849, 2.169128
635.2670, 2.707062
635.7491, 2.703888
636.2312, 2.235840
636.7133, 2.116913
637.1954, 3.085236
637.6776, 4.085114
638.1597, 4.127960
638.6418, 3.541412
639.1239, 3.115173
639.6060, 3.075775
640.0881, 3.241791
640.5703, 3.557526
641.0524, 4.130554
641.5345, 3.880402
642.0166, 1.466980
642.4987, 0.2170410
642.9808, 0.1369630
643.4630, 0.6942750
643.9451, 1.389740
644.4272, 1.731079
644.9093, 1.733398
645.3914, 0.9212650
645.8735, 0.1831670
646.3557, 0.1153560
646.8378, 1.901978
647.3199, 3.096802
647.8020, 2.610535
648.2841, 1.431000
648.7662, 1.202362
649.2484, 2.143402
649.7305, 2.732941
650.2126, 2.558777
650.6947, 2.304688
651.1768, 2.417572
651.6589, 2.709930
652.1411, 2.762360
652.6232, 2.433411
653.1053, 2.043671
653.5874, 2.107361
654.0695, 2.634491
654.5516, 2.731445
655.0338, 2.186035
655.5159, 1.632355
655.9980, 1.354584
656.4801, 1.210449
656.9622, 1.024078
657.4443, 0.7598880
657.9265, 0.6438290
658.4086, 0.9291080
658.8907, 1.307343
659.3728, 1.433929
659.8549, 1.340454
660.3370, 1.225830
660.8192, 1.085266
661.3013, 0.9983830
661.7834, 1.102142
662.2655, 1.527252
662.7476, 1.706268
663.2297, 0.9496150
663.7119, 0.6542660
664.1940, 1.869324
664.6761, 3.535950
665.1582, 4.083649
665.6403, 3.096252
666.1224, 1.834930
666.6046, 1.349579
667.0867, 1.357574
667.5688, 1.183350
668.0509, 0.7906190
668.5330, 0.4146730
669.0151, 0.1423340
669.4973, 2.2280000E-03
669.9794, 5.6976002E-02
670.4615, 0.4506230
670.9436, 0.6946720
671.4257, 0.7267150
671.9078, 0.6578060
672.3900, 0.3866880
672.8721, 0.1016540
673.3542, 0.1522520
673.8363, 0.6472470
674.3184, 1.230011
674.8005, 1.462067
675.2827, 1.378845
675.7648, 1.320648
676.2469, 1.301544
676.7290, 1.274048
677.2111, 1.234985
677.6932, 1.168762
678.1754, 1.009674
678.6575, 0.7391970
679.1396, 0.5347290
679.6217, 0.2647090
680.1038, 0.2295530
680.5859, 1.004700
681.0681, 2.158997
681.5502, 2.669128
682.0323, 2.144775
682.5144, 1.121460
682.9965, 0.3100890
683.4786, 0.2833860
683.9608, 0.7601010
684.4429, 1.205170
684.9250, 1.376129
685.4071, 1.094269
685.8892, 0.5347290
686.3713, 0.2702030
686.8535, 1.341400
687.3356, 2.051422
687.8177, 1.866211
688.2998, 1.378632
688.7819, 1.130463
689.2640, 1.108887
689.7462, 1.196442
690.2283, 1.349609
690.7104, 1.522827
691.1925, 1.678955
691.6746, 1.849030
692.1567, 1.726105
692.6389, 0.9931030
693.1210, 0.4015810
693.6031, 0.2756040
694.0852, 0.3055110
694.5673, 0.1748350
695.0494, 0.1336060
695.5316, 0.4617000
696.0137, 0.8795780
696.4958, 1.159241
696.9779, 0.8144530
697.4600, 7.9960003E-03
697.9421, 0.4839780
698.4243, 0.3551330
698.9064, 5.3222999E-02
699.3885, 0.1925960
699.8706, 0.8251040
700.3527, 1.296570
700.8348, 1.843933
701.3170, 1.929779
701.7991, 0.9641720
702.2812, 0.1773680
702.7633, 0.6783450
703.2454, 0.4883120
703.7275, 9.9914998E-02
704.2097, 0.2977290
704.6918, 0.6186520
705.1739, 0.6329960
705.6560, 0.4093320
706.1381, 0.4622190
706.6202, 0.9945680
707.1024, 1.477814
707.5845, 1.319305
708.0666, 0.5331420
708.5487, 4.6783000E-02
709.0308, 0.1550290
709.5129, 0.1459660
709.9951, 0.1057740
710.4772, 0.5830080
710.9593, 1.495972
711.4414, 2.660706
711.9235, 3.455536
712.4056, 3.486023
712.8878, 3.045929
713.3699, 2.438080
713.8520, 1.714203
714.3341, 1.271240
714.8162, 1.201233
715.2983, 1.361237
715.7805, 1.785034
716.2626, 2.343201
716.7447, 2.270386
717.2268, 0.6789860
717.7089, 0.2249150
718.1910, 0.3955690
718.6732, 1.194550
719.1553, 1.135834
719.6374, 0.4426270
720.1195, 0.1783450
720.6016, 0.4223940
721.0837, 0.2553410
721.5659, 0.7157290
722.0480, 2.241638
722.5301, 2.772644
723.0122, 2.014343
723.4943, 1.131226
723.9764, 0.7670590
724.4586, 0.7751460
724.9407, 0.7815250
725.4228, 0.7044680
725.9049, 0.8215030
726.3870, 1.458038
726.8691, 1.977539
727.3513, 1.877686
727.8334, 1.467010
728.3155, 1.344360
728.7976, 1.692261
729.2797, 2.043701
729.7618, 1.739075
730.2440, 1.032928
730.7261, 0.9880680
731.2082, 1.689636
731.6903, 2.131439
732.1724, 1.811249
732.6545, 1.195129
733.1367, 0.9860840
733.6188, 1.301605
734.1009, 1.363434
734.5830, 0.6288150
735.0651, 0.2876280
735.5472, 1.200073
736.0294, 2.462860
736.5115, 3.003448
736.9936, 2.702698
737.4757, 2.184357
737.9578, 1.798340
738.4399, 1.607941
738.9221, 1.890808
739.4042, 2.594696
739.8863, 2.922943
740.3684, 2.623444
740.8505, 2.101379
741.3326, 1.659241
741.8148, 1.293732
742.2969, 1.084930
742.7790, 0.9879760
743.2611, 1.163879
743.7432, 2.133545
744.2253, 2.996155
744.7075, 2.886200
745.1896, 2.051697
745.6717, 1.297302
746.1538, 0.9956970
746.6359, 0.9373780
747.1180, 0.9297180
747.6002, 0.9572450
748.0823, 0.9781800
748.5644, 0.9908750
749.0465, 0.9292910
749.5286, 0.7393490
750.0107, 0.4696660
750.4929, 0.2095340
750.9750, 0.1838990
751.4571, 0.1920470
751.9392, 0.7049260
752.4213, 1.373444
752.9034, 1.178589
753.3856, 0.5466000
753.8677, 4.9743999E-02
754.3498, 0.1669010
754.8319, 0.2474670
755.3140, 0.3708500
755.7961, 0.4120790
756.2783, 6.4788997E-02
756.7604, 0.6034550
757.2425, 1.358795
757.7246, 2.141876
758.2067, 2.677216
758.6888, 2.567200
759.1710, 1.815826
759.6531, 1.473785
760.1352, 1.855652
760.6173, 2.096832
761.0994, 2.014954
761.5815, 1.892517
762.0637, 1.939636
762.5458, 2.106781
763.0279, 2.235199
763.5100, 2.342804
763.9921, 2.243774
764.4742, 1.623322
764.9564, 0.7454530
765.4385, 4.7028001E-02
765.9206, 0.6476140
766.4027, 0.6789250
766.8848, 0.1757510
767.3669, 1.494690
767.8491, 2.235046
768.3312, 2.232452
768.8133, 2.272400
769.2954, 2.454102
769.7775, 2.552124
770.2596, 2.416901
770.7418, 2.169342
771.2239, 1.968597
771.7060, 1.835419
772.1881, 1.670410
772.6702, 1.293030
773.1523, 1.000824
773.6345, 1.255554
774.1166, 1.728851
774.5987, 1.625366
775.0808, 0.7817990
775.5629, 9.4756998E-02
776.0450, 0.1661680
776.5272, 0.3844600
777.0093, 0.8526610
777.4914, 1.271271
777.9735, 1.340424
778.4556, 0.8279110
778.9377, 0.2790830
779.4199, 0.1836550
779.9020, 0.4451290
780.3841, 0.7495730
780.8662, 1.284607
781.3483, 1.558380
781.8304, 1.147217
782.3126, 0.6868900
782.7947, 0.7362060
783.2768, 1.185577
783.7589, 1.691498
784.2410, 2.113617
784.7231, 2.331604
785.2053, 2.019867
785.6874, 1.364655
786.1695, 1.159607
786.6516, 1.464325
787.1337, 1.856384
787.6158, 2.202087
788.0980, 2.405792
788.5801, 2.244476
789.0622, 1.580750
789.5443, 1.496063
790.0264, 2.059998
790.5085, 3.089905
790.9907, 5.622955
791.4728, 7.845306
791.9549, 7.720947
792.4370, 5.535004
792.9191, 3.428772
793.4012, 2.381500
793.8834, 1.981293
794.3655, 2.113037
794.8476, 2.515594
795.3297, 2.569427
795.8118, 2.225433
796.2939, 1.951630
796.7761, 2.059265
797.2582, 2.402771
797.7403, 2.700073
798.2224, 3.056732
798.7045, 2.866089
799.1866, 1.569092
799.6688, 0.5837100
800.1509, 0.8949890
800.6330, 1.710266
801.1151, 2.083710
801.5972, 1.931305
802.0793, 1.785431
802.5615, 1.483063
803.0436, 1.565399
803.5257, 2.789490
804.0078, 4.429382
804.4899, 5.445007
804.9720, 5.643646
805.4542, 5.401764
805.9363, 4.934296
806.4184, 4.350128
806.9005, 3.839996
807.3826, 3.407532
807.8647, 3.297791
808.3469, 3.660248
808.8290, 3.764252
809.3111, 2.920471
809.7932, 1.621063
810.2753, 1.347198
810.7574, 2.929810
811.2396, 3.839935
811.7217, 3.500305
812.2038, 3.150726
812.6859, 3.452637
813.1680, 4.011902
813.6501, 4.231873
814.1323, 4.037689
814.6144, 3.890778
815.0965, 4.372620
815.5786, 4.821198
816.0607, 4.243103
816.5428, 3.026276
817.0250, 2.223450
817.5071, 2.061401
817.9892, 2.048157
818.4713, 1.758575
818.9534, 1.309540
819.4355, 1.171509
819.9177, 1.448425
820.3998, 1.527679
820.8819, 1.012695
821.3640, 0.7305300
821.8461, 1.617462
822.3282, 3.065582
822.8104, 3.891937
823.2925, 3.996735
823.7746, 3.755463
824.2567, 2.532715
824.7388, 1.826385
825.2209, 3.059113
825.7031, 5.038208
826.1852, 6.038147
826.6673, 5.732758
827.1494, 4.921600
827.6315, 3.971344
828.1136, 3.151367
828.5958, 3.057983
829.0779, 3.534119
829.5600, 3.734344
830.0421, 3.481293
830.5242, 3.447601
831.0063, 4.218567
831.4885, 5.411621
831.9706, 5.782379
832.4527, 4.841400
832.9348, 4.383636
833.4169, 4.963287
833.8990, 5.330017
834.3812, 4.544647
834.8633, 3.531250
835.3454, 3.695892
835.8275, 5.205658
836.3096, 6.060638
836.7917, 5.035248
837.2739, 3.767120
837.7560, 3.010345
838.2381, 2.783936
838.7202, 3.284637
839.2023, 4.358887
839.6844, 5.338593
840.1666, 5.787170
840.6487, 5.846802
841.1308, 5.695221
841.6129, 5.352631
842.0950, 4.902466
842.5771, 4.319397
843.0593, 3.898712
843.5414, 3.797211
844.0235, 3.964233
844.5056, 4.383331
844.9877, 5.226288
845.4698, 5.447601
845.9520, 4.440430
846.4341, 3.611603
846.9162, 3.380493
847.3983, 3.380157
847.8804, 3.338043
848.3625, 3.231934
848.8447, 3.064606
849.3268, 2.587280
849.8089, 2.439758
850.2910, 3.547485
850.7731, 4.800476
851.2552, 4.571320
851.7374, 3.221802
852.2195, 2.456604
852.7016, 3.057220
853.1837, 4.119293
853.6658, 4.560211
854.1479, 4.455078
854.6301, 4.068024
855.1122, 3.395264
855.5943, 2.867004
856.0764, 2.642883
856.5585, 2.577789
857.0406, 2.554535
857.5228, 2.559052
858.0049, 2.367218
858.4870, 1.453369
858.9691, 1.382690
859.4512, 3.312927
859.9333, 4.815735
860.4155, 4.149261
860.8976, 2.411316
861.3797, 1.821075
861.8618, 2.990204
862.3439, 3.958649
862.8260, 3.638092
863.3082, 3.059631
863.7903, 3.095490
864.2724, 3.439423
864.7545, 3.492767
865.2366, 3.120911
865.7188, 2.683380
866.2009, 2.497253
866.6830, 2.382629
867.1651, 1.809875
867.6472, 0.9155880
868.1293, 0.6898800
868.6115, 1.306396
869.0936, 1.843536
869.5757, 1.696564
870.0578, 1.262390
870.5399, 1.371063
871.0220, 2.133423
871.5042, 2.936188
871.9863, 4.152771
872.4684, 4.802368
872.9505, 4.142242
873.4326, 3.117767
873.9147, 2.504913
874.3969, 2.306549
874.8790, 2.218018
875.3611, 2.346161
875.8432, 2.366852
876.3253, 2.300873
876.8074, 1.960876
877.2896, 0.6768190
877.7717, 0.9294740
878.2538, 1.373444
878.7359, 0.1262210
879.2180, 1.592468
879.7001, 2.885345
880.1823, 3.774750
880.6644, 4.311737
881.1465, 4.487549
881.6286, 4.117889
882.1107, 3.175446
882.5928, 2.334808
883.0750, 2.230316
883.5571, 1.714813
884.0392, 2.483215
884.5213, 1.665527
885.0034, 1.488983
885.4855, 2.093353
885.9677, 3.355286
886.4498, 5.866913
886.9319, 8.543915
887.4140, 9.489075
887.8961, 8.516479
888.3782, 7.038391
888.8604, 4.035187
889.3425, 1.909485
889.8246, 1.932587
890.3067, 2.610535
890.7888, 2.731964
891.2709, 2.318298
891.7531, 1.888306
892.2352, 1.642883
892.7173, 1.371521
893.1994, 0.6820680
893.6815, 7.6110996E-02
894.1636, 0.3571170
894.6458, 1.256744
895.1279, 1.956665
895.6100, 2.191254
896.0921, 2.205444
896.5742, 2.227966
897.0563, 2.224579
897.5385, 2.127319
898.0206, 1.928070
898.5027, 1.389526
898.9848, 0.3964840
899.4669, 0.1254580
899.9490, 0.5612790
900.4312, 1.830078
900.9133, 2.157867
901.3954, 1.167694
901.8775, 1.040924
902.3596, 2.448853
902.8417, 3.565918
903.3239, 3.898560
903.8060, 3.724213
904.2881, 3.097107
904.7702, 2.130249
905.2523, 1.511383
905.7344, 1.400970
906.2166, 1.537048
906.6987, 2.402161
907.1808, 2.990479
907.6629, 2.159546
908.1450, 0.6205440
908.6271, 0.2131650
909.1093, 2.4292000E-02
909.5914, 0.4849850
910.0735, 0.5698240
910.5556, 0.6119690
911.0377, 1.139587
911.5198, 1.872742
912.0020, 2.109558
912.4841, 1.814606
912.9662, 1.479431
913.4483, 1.371399
913.9304, 1.398346
914.4125, 1.699829
914.8947, 2.192596
915.3768, 1.576965
915.8589, 0.2713010
916.3410, 1.410828
916.8231, 1.083923
917.3052, 8.3649002E-02
917.7874, 1.573242
918.2695, 3.265106
918.7516, 3.741760
919.2337, 2.303314
919.7158, 1.393555
920.1979, 1.660004
920.6801, 1.885803
921.1622, 1.254822
921.6443, 0.2857360
922.1264, 0.2141110
922.6085, 0.1890560
923.0906, 4.0192001E-02
923.5728, 0.5430910
924.0549, 1.094757
924.5370, 1.678894
925.0191, 2.211182
925.5012, 2.632080
925.9833, 2.927551
926.4655, 3.121521
926.9476, 3.257874
927.4297, 3.126099
927.9118, 2.245087
928.3939, 1.282410
928.8760, 1.131500
929.3582, 1.482269
929.8403, 1.578979
930.3224, 1.224091
930.8045, 0.6156920
931.2866, 0.2326660
931.7687, 0.9305420
932.2509, 0.5068360
932.7330, 0.7566220
933.2151, 1.586609
933.6972, 1.848358
934.1793, 1.854370
934.6614, 1.732880
935.1436, 1.546753
935.6257, 1.325562
936.1078, 1.089386
936.5899, 1.156036
937.0720, 1.569916
937.5541, 1.783661
938.0363, 1.596771
938.5184, 1.368439
939.0005, 1.376434
939.4826, 1.516479
939.9647, 1.481079
940.4468, 1.160095
940.9290, 0.9503170
941.4111, 0.9952090
941.8932, 0.9587710
942.3753, 0.4572750
942.8574, 4.9988002E-02
943.3395, 0.5187990
943.8217, 1.631134
944.3038, 2.123474
944.7859, 1.278809
945.2680, 0.6413880
945.7501, 1.097595
946.2322, 1.648315
946.7144, 1.293854
947.1965, 0.6004940
947.6786, 0.7755740
948.1607, 1.946503
948.6428, 2.772003
949.1249, 2.208008
949.6071, 1.171143
950.0892, 0.3179930
950.5713, 0.2363280
951.0534, 0.1015930
951.5355, 0.5600590
952.0176, 0.9676820
952.4998, 0.7778630
952.9819, 0.6365970
953.4640, 1.586029
953.9461, 3.091064
954.4282, 3.420654
954.9103, 2.704163
955.3925, 1.824524
955.8746, 0.9605710
956.3567, 0.5237730
956.8388, 0.8573300
957.3209, 1.583557
957.8030, 1.952881
958.2852, 1.956818
958.7673, 1.457184
959.2494, 0.1295780
959.7315, 0.2903140
960.2136, 1.156769
960.6957, 2.802673
961.1779, 2.991821
961.6600, 2.016663
962.1421, 1.415039
962.6242, 1.475861
963.1063, 1.337128
963.5884, 0.7882390
964.0706, 0.3005680
964.5527, 4.7667999E-02
965.0348, 0.1863400
965.5169, 8.3309999E-03
965.9990, 0.5169370
966.4811, 1.069977
966.9633, 2.145142
967.4454, 2.575592
967.9275, 1.542450
968.4096, 0.3309020
968.8917, 0.2003780
969.3738, 0.3038330
969.8560, 0.5667110
970.3381, 1.086945
970.8202, 1.276459
971.3023, 0.6503910
971.7844, 0.1639400
972.2665, 1.048645
972.7487, 1.686340
973.2308, 1.482056
973.7129, 0.6693120
974.1950, 1.2146000E-02
974.6771, 0.1684570
975.1592, 5.9631001E-02
975.6414, 0.8137210
976.1235, 1.503967
976.6056, 0.9371950
977.0877, 0.2678830
977.5698, 0.4586180
978.0519, 0.4646610
978.5341, 1.224304
979.0162, 1.048401
979.4983, 0.4763180
979.9804, 0.2083740
980.4625, 0.2218020
980.9446, 0.3562010
981.4268, 0.6027220
981.9089, 0.9592290
982.3910, 1.427673
982.8731, 1.927368
983.3552, 2.433716
983.8373, 2.810364
984.3195, 2.605347
984.8016, 1.778259
985.2837, 1.232544
985.7658, 0.9555050
986.2479, 1.309692
986.7300, 2.684387
987.2122, 3.970581
987.6943, 3.969116
988.1764, 2.940796
988.6585, 2.317505
989.1406, 2.143738
989.6227, 2.159119
990.1049, 2.741516
990.5870, 2.988831
991.0691, 1.982910
991.5512, 0.8906250
992.0333, 1.411316
992.5154, 3.465210
992.9976, 4.457458
993.4797, 3.588806
993.9618, 2.885010
994.4439, 2.531555
994.9260, 2.270691
995.4081, 1.525146
995.8903, 1.045288
996.3724, 2.173340
996.8545, 4.939758
997.3366, 7.018311
997.8187, 8.501282
998.3008, 8.503662
998.7830, 5.077881
999.2651, 1.737000
999.7472, 1.266357
1000.229, 2.588745
1000.711, 3.721130
1001.194, 4.277771
1001.676, 4.428284
1002.158, 3.948364
1002.640, 3.433533
1003.122, 3.307678
1003.604, 3.266724
1004.086, 2.836548
1004.568, 2.241028
1005.050, 2.189148
1005.533, 2.892212
1006.015, 3.455261
1006.497, 3.020142
1006.979, 2.378662
1007.461, 2.399048
1007.943, 2.670166
1008.425, 2.441345
1008.907, 1.824646
1009.390, 1.312683
1009.872, 1.095703
1010.354, 1.400208
1010.836, 3.178467
1011.318, 5.131653
1011.800, 4.715759
1012.282, 2.839539
1012.764, 1.721313
1013.246, 1.650635
1013.729, 1.907471
1014.211, 2.124268
1014.693, 2.269897
1015.175, 2.252563
1015.657, 2.143555
1016.139, 2.163635
1016.621, 2.288879
1017.103, 2.480713
1017.586, 2.690125
1018.068, 2.536255
1018.550, 1.668579
1019.032, 0.7116090
1019.514, 0.8861690
1019.996, 1.979919
1020.478, 2.344360
1020.960, 2.008118
1021.442, 2.102600
1021.925, 2.916382
1022.407, 3.570129
1022.889, 3.421082
1023.371, 2.934570
1023.853, 3.030823
1024.335, 3.703430
1024.817, 4.351074
1025.299, 5.038757
1025.781, 5.028320
1026.264, 3.965210
1026.746, 2.863953
1027.228, 2.500854
1027.710, 2.646790
1028.192, 2.795532
1028.674, 2.969116
1029.156, 3.223450
1029.638, 3.695129
1030.120, 3.715698
1030.603, 2.851501
1031.085, 2.112061
1031.567, 2.411133
1032.049, 3.296448
1032.531, 3.542969
1033.013, 2.966370
1033.495, 2.708862
1033.977, 2.929565
1034.460, 3.145325
1034.942, 3.286560
1035.424, 3.286194
1035.906, 3.072693
1036.388, 2.709290
1036.870, 2.456970
1037.352, 2.373047
1037.834, 2.192139
1038.317, 1.834961
1038.799, 1.508484
1039.281, 0.9805910
1039.763, 0.7700810
1040.245, 1.570068
1040.727, 2.961487
1041.209, 3.780457
1041.691, 3.965332
1042.173, 3.758118
1042.656, 2.590027
1043.138, 1.797913
1043.620, 2.058777
1044.102, 2.485657
1044.584, 2.247681
1045.066, 1.673401
1045.548, 1.705750
1046.030, 2.612549
1046.512, 3.302429
1046.995, 3.668396
1047.477, 3.789368
1047.959, 3.566772
1048.441, 3.224548
1048.923, 2.888123
1049.405, 2.570984
1049.887, 2.228516
1050.369, 1.760071
1050.852, 1.790466
1051.334, 3.194214
1051.816, 4.124695
1052.298, 3.676453
1052.780, 2.764160
1053.262, 1.782898
1053.744, 1.011475
1054.226, 0.9974980
1054.708, 1.906555
1055.191, 2.857910
1055.673, 4.035400
1056.155, 4.664124
1056.637, 3.902344
1057.119, 2.964600
1057.601, 3.073975
1058.083, 3.720093
1058.565, 3.641113
1059.047, 2.548279
1059.530, 1.711548
1060.012, 1.401489
1060.494, 1.577576
1060.976, 2.498535
1061.458, 3.663635
1061.940, 5.121643
1062.422, 6.339478
1062.904, 6.184265
1063.387, 4.465698
1063.869, 3.262512
1064.351, 4.153809
1064.833, 4.673706
1065.315, 3.065308
1065.797, 1.244080
1066.279, 0.8325810
1066.761, 1.385315
1067.244, 1.994202
1067.726, 2.472961
1068.208, 2.886414
1068.690, 3.423767
1069.172, 3.682129
1069.654, 3.193420
1070.136, 2.620056
1070.618, 2.566650
1071.100, 2.769958
1071.583, 2.747375
1072.065, 2.446167
1072.547, 2.196106
1073.029, 2.230957
1073.511, 2.296082
1073.993, 2.348816
1074.475, 2.305237
1074.957, 1.895691
1075.439, 1.460449
1075.922, 1.574768
1076.404, 2.215942
1076.886, 2.748230
1077.368, 2.934204
1077.850, 2.999146
1078.332, 3.081299
1078.814, 3.036072
1079.297, 2.666016
1079.779, 2.170166
1080.261, 1.751648
1080.743, 1.467712
1081.225, 1.390015
1081.707, 1.592407
1082.189, 1.858154
1082.671, 2.164124
1083.153, 2.412903
1083.635, 2.441895
1084.118, 2.439636
1084.600, 2.729492
1085.082, 3.190430
1085.564, 3.369934
1086.046, 3.138550
1086.528, 2.651184
1087.010, 1.629517
1087.492, 0.7859500
1087.975, 0.5402830
1088.457, 0.6439820
1088.939, 0.9479370
1089.421, 1.358154
1089.903, 1.736450
1090.385, 2.049927
1090.867, 2.354919
1091.349, 2.836975
1091.832, 3.100708
1092.314, 2.843506
1092.796, 2.395508
1093.278, 1.808228
1093.760, 1.329041
1094.242, 1.550537
1094.724, 2.547485
1095.206, 3.027588
1095.688, 1.972961
1096.171, 1.167175
1096.653, 1.336121
1097.135, 1.844116
1097.617, 2.496704
1098.099, 3.072327
1098.581, 3.291077
1099.063, 3.141174
1099.545, 2.846130
1100.027, 2.347351
1100.510, 1.915161
1100.992, 1.496155
1101.474, 1.265808
1101.956, 1.569336
1102.438, 2.025330
1102.920, 2.191956
1103.402, 2.085999
1103.884, 1.997681
1104.367, 2.098145
1104.849, 1.900696
1105.331, 0.8536380
1105.813, 8.5266002E-02
1106.295, 0.3027950
1106.777, 0.7540280
1107.259, 0.5309450
1107.741, 6.7750001E-03
1108.224, 0.4742430
1108.706, 2.632019
1109.188, 3.542236
1109.670, 1.710693
1110.152, 0.3295900
1110.634, 0.4505620
1111.116, 0.9256590
1111.598, 0.9074710
1112.080, 0.7504880
1112.563, 1.360229
1113.045, 2.946350
1113.527, 3.372803
1114.009, 1.656311
1114.491, 0.3973390
1114.973, 0.1639400
1115.455, 3.6599999E-04
1115.937, 0.6739500
1116.419, 1.400146
1116.902, 1.531677
1117.384, 1.123962
1117.866, 0.8676150
1118.348, 0.8851320
1118.830, 0.7672120
1119.312, 0.5336910
1119.794, 7.2571002E-02
1120.276, 0.8467410
1120.759, 1.676697
1121.241, 1.779114
1121.723, 1.442627
1122.205, 1.773438
1122.687, 3.084778
1123.169, 3.509521
1123.651, 2.725220
1124.133, 2.101746
1124.615, 1.988647
1125.098, 2.098206
1125.580, 2.304382
1126.062, 2.433716
1126.544, 2.083374
1127.026, 1.950134
1127.508, 1.559570
1127.990, 0.9610600
1128.472, 0.6253050
1128.954, 0.4032590
1129.437, 0.8843990
1129.919, 0.1657100
1130.401, 1.181030
1130.883, 2.611938
1131.365, 3.911926
1131.847, 4.044373
1132.329, 3.092590
1132.811, 2.637756
1133.294, 2.795166
1133.776, 2.742554
1134.258, 2.235352
1134.740, 1.612305
1135.222, 1.095703
1135.704, 0.8792110
1136.186, 1.658081
1136.668, 1.430237
1137.151, 1.755127
1137.633, 2.229797
1138.115, 2.217407
1138.597, 3.276062
1139.079, 3.568481
1139.561, 2.055725
1140.043, 0.2870480
1140.525, 0.1112670
1141.007, 0.9508060
1141.490, 2.065308
1141.972, 3.174622
1142.454, 3.585388
1142.936, 3.366394
1143.418, 2.989990
1143.900, 2.640320
1144.382, 2.345642
1144.864, 2.004761
1145.346, 1.960388
1145.829, 2.967468
1146.311, 4.183594
1146.793, 4.623291
1147.275, 4.385559
1147.757, 3.656433
1148.239, 2.611938
1148.721, 1.661438
1149.203, 0.9523930
1149.686, 0.5621340
1150.168, 0.5772710
1150.650, 0.8957520
1151.132, 1.801208
1151.614, 2.699341
1152.096, 2.882935
1152.578, 2.503723
1153.060, 1.973999
1153.542, 1.369385
1154.025, 1.121704
1154.507, 1.606934
1154.989, 2.162537
1155.471, 2.709412
1155.953, 3.073547
1156.435, 3.275635
1156.917, 3.155396
1157.399, 2.079041
1157.881, 0.2676390
1158.364, 0.2153320
1158.846, 1.688904
1159.328, 3.287354
1159.810, 4.692078
1160.292, 5.380615
1160.774, 4.672729
1161.256, 3.778625
1161.738, 3.613708
1162.221, 3.981934
1162.703, 4.532104
1163.185, 5.411011
1163.667, 5.107422
1164.149, 2.774231
1164.631, 1.907043
1165.113, 3.562988
1165.595, 5.207153
1166.078, 5.554688
1166.560, 5.157349
1167.042, 4.893066
1167.524, 4.702820
1168.006, 4.247131
1168.488, 3.516235
1168.970, 2.837524
1169.452, 2.216064
1169.934, 2.086853
1170.417, 2.585876
1170.899, 3.350708
1171.381, 4.158386
1171.863, 4.820190
1172.345, 4.926758
1172.827, 4.655151
1173.309, 4.588867
1173.791, 4.656250
1174.273, 4.770752
1174.756, 4.924805
1175.238, 5.089539
1175.720, 5.209473
1176.202, 5.003723
1176.684, 4.052246
1177.166, 3.106628
1177.648, 3.425598
1178.130, 2.711487
1178.613, 3.681458
1179.095, 2.683044
1179.577, 2.622009
1180.059, 3.531067
1180.541, 4.259766
1181.023, 4.321167
1181.505, 4.029907
1181.987, 3.081543
1182.469, 2.473511
1182.952, 3.237915
1183.434, 4.228699
1183.916, 4.383728
1184.398, 4.211914
1184.880, 5.030457
1185.362, 6.970520
1185.844, 8.192810
1186.326, 8.216919
1186.808, 7.543030
1187.291, 5.239746
1187.773, 3.589294
1188.255, 4.467712
1188.737, 5.580994
1189.219, 4.430298
1189.701, 1.839905
1190.183, 0.2733760
1190.665, 0.2872310
1191.148, 0.3455200
1191.630, 3.085449
1192.112, 4.341309
1192.594, 2.972778
1193.076, 1.756104
1193.558, 2.157471
1194.040, 3.047852
1194.522, 2.975403
1195.005, 2.242798
1195.487, 2.069702
1195.969, 2.437439
1196.451, 3.186829
1196.933, 4.255859
1197.415, 4.485657
1197.897, 3.604919
1198.379, 2.670044
1198.861, 2.330444
1199.344, 2.471619
1199.826, 3.128235
1200.308, 4.028076
1200.790, 4.836121
1201.272, 5.366577
1201.754, 4.933472
1202.236, 3.867798
1202.718, 3.289307
1203.200, 3.487427
1203.683, 3.956787
1204.165, 4.543518
1204.647, 4.882263
1205.129, 4.693420
1205.611, 4.147156
1206.093, 2.944519
1206.575, 1.793518
1207.057, 1.624634
1207.540, 2.235229
1208.022, 2.960022
1208.504, 3.704346
1208.986, 4.026428
1209.468, 3.430603
1209.950, 2.982178
1210.432, 3.080811
1210.914, 3.175354
1211.396, 2.989563
1211.879, 2.650024
1212.361, 2.109558
1212.843, 1.558899
1213.325, 1.894531
1213.807, 1.770874
1214.289, 1.600220
1214.771, 2.385193
1215.253, 1.551392
1215.735, 1.978882
1216.218, 2.347961
1216.700, 1.953003
1217.182, 1.488403
1217.664, 1.870972
1218.146, 2.860779
1218.628, 4.004456
1219.110, 5.070496
1219.592, 4.571411
1220.075, 2.807983
1220.557, 1.739075
1221.039, 1.726624
1221.521, 1.753113
1222.003, 1.255798
1222.485, 0.5548100
1222.967, 0.5736690
1223.449, 1.186462
1223.932, 0.4375610
1224.414, 2.762939
1224.896, 4.026978
1225.378, 4.309753
1225.860, 3.846741
1226.342, 2.826233
1226.824, 1.798523
1227.306, 0.7479250
1227.788, 0.2661740
1228.271, 0.9414670
1228.753, 1.717468
1229.235, 2.268860
1229.717, 2.615173
1230.199, 2.750366
1230.681, 2.697876
1231.163, 2.469482
1231.645, 2.077209
1232.127, 1.731445
1232.610, 1.218506
1233.092, 1.528748
1233.574, 3.129883
1234.056, 4.012878
1234.538, 3.491272
1235.020, 2.452759
1235.502, 1.462402
1235.984, 0.7297360
1236.467, 0.6680300
1236.949, 1.108521
1237.431, 1.548401
1237.913, 1.927734
1238.395, 2.615967
1238.877, 3.371826
1239.359, 2.503357
1239.841, 0.1093750
1240.323, 1.580872
1240.806, 9.5825002E-02
1241.288, 2.704163
1241.770, 4.764893
1242.252, 6.040405
1242.734, 6.002869
1243.216, 5.282227
1243.698, 4.334229
1244.180, 3.466431
1244.662, 3.230042
1245.145, 3.654907
1245.627, 3.785950
1246.109, 3.289551
1246.591, 2.602234
1247.073, 1.298096
1247.555, 0.5150150
1248.037, 1.111877
1248.519, 1.795044
1249.002, 1.648010
1249.484, 0.9973140
1249.966, 0.3103030
1250.448, 0.3503420
1250.930, 2.0264000E-02
1251.412, 1.439087
1251.894, 2.126343
1252.376, 1.888611
1252.859, 1.544678
1253.341, 1.408264
1253.823, 1.356445
1254.305, 0.8452760
1254.787, 0.4206540
1255.269, 1.073364
1255.751, 0.9607540
1256.233, 1.371460
1256.715, 1.975830
1257.198, 2.383423
1257.680, 3.329834
1258.162, 4.083313
1258.644, 4.554749
1259.126, 5.368469
1259.608, 7.063904
1260.090, 8.070801
1260.572, 7.137939
1261.054, 5.978699
1261.537, 4.762024
1262.019, 4.203125
1262.501, 4.110901
1262.983, 4.137268
1263.465, 3.798096
1263.947, 3.155212
1264.429, 2.662109
1264.911, 2.150391
1265.394, 2.309692
1265.876, 3.436890
1266.358, 4.359802
1266.840, 4.744385
1267.322, 4.586548
1267.804, 3.229065
1268.286, 1.905579
1268.768, 2.181335
1269.250, 3.314880
1269.733, 3.446472
1270.215, 2.950562
1270.697, 2.583374
1271.179, 2.422852
1271.661, 2.755920
1272.143, 3.368774
1272.625, 3.188171
1273.107, 1.802612
1273.589, 0.8022460
1274.072, 1.788025
1274.554, 2.500000
1275.036, 1.314575
1275.518, 6.7199998E-02
1276.000, 3.2226998E-02
1276.482, 0.4721070
1276.964, 1.267700
1277.446, 2.125671
1277.929, 2.133911
1278.411, 1.155945
1278.893, 0.5440060
1279.375, 8.6669996E-02
1279.857, 3.2653999E-02
1280.339, 5.4076999E-02
1280.821, 0.3362430
1281.303, 0.5381470
1281.786, 0.3992920
1282.268, 0.0000000E+00
##END=



