##NAMES=Raydemarkite
##RRUFFID=R210023
##IDEAL CHEMISTRY=Mo^6+^O_3_&#183;H_2_O
##LOCALITY=Cookes Peak, Cookes Range, Luna County, New Mexico, USA
##OWNER=RRUFF
##SOURCE=Ron Gibbs
##DESCRIPTION=Sprays of while acicular crystals, associated with blueish scorodite
##STATUS=The identification of this mineral has been confirmed by X-ray diffraction and chemical analysis
##URL=rruff.info/R210023
##MEASURED CHEMISTRY=MoO_3_Â·H_2_O ;    Based on 4 O atoms. H2O added as the ideal value.
87.58203, 0.0000000E+00
88.06415, 3.429016
88.54626, 5.892395
89.02838, 21.84247
89.51050, 40.79248
89.99261, 56.71729
90.47473, 70.10272
90.95685, 86.91687
91.43896, 109.0876
91.92108, 134.7054
92.40320, 155.5976
92.88531, 163.6063
93.36743, 161.8461
93.84955, 160.0302
94.33167, 161.5115
94.81378, 154.9012
95.29590, 144.8610
95.77802, 129.1996
96.26013, 112.6841
96.74225, 98.82666
97.22437, 84.30365
97.70648, 68.40070
98.18860, 51.93286
98.67072, 36.63342
99.15283, 22.71729
99.63495, 10.28687
100.1171, 8.4899999E-02
100.5992, 6.497314
101.0813, 7.697083
101.5634, 9.403381
102.0455, 13.18372
102.5277, 17.07745
103.0098, 19.36652
103.4919, 19.37646
103.9740, 17.90594
104.4561, 17.51672
104.9382, 21.49060
105.4204, 22.95532
105.9025, 20.84821
106.3846, 15.81927
106.8667, 9.395996
107.3488, 2.846130
107.8309, 4.559692
108.3131, 17.48541
108.7952, 34.79230
109.2773, 57.40985
109.7594, 84.72363
110.2415, 116.8985
110.7236, 156.0690
111.2058, 203.6877
111.6879, 260.2060
112.1700, 327.2321
112.6521, 402.7996
113.1342, 489.4389
113.6163, 589.4342
114.0985, 698.2985
114.5806, 831.6146
115.0627, 991.6103
115.5448, 1177.927
116.0269, 1396.281
116.5090, 1641.501
116.9912, 1913.465
117.4733, 2243.579
117.9554, 2611.930
118.4375, 3069.914
118.9196, 3624.918
119.4017, 4285.650
119.8839, 5068.290
120.3660, 6036.873
120.8481, 7340.138
121.3302, 8445.253
121.8123, 9717.020
122.2944, 10611.04
122.7766, 10698.82
123.2587, 9888.015
123.7408, 8485.871
124.2229, 7069.888
124.7050, 5402.765
125.1871, 4056.851
125.6693, 3121.953
126.1514, 2490.891
126.6335, 2057.191
127.1156, 1785.615
127.5977, 1648.986
128.0798, 1574.114
128.5620, 1559.786
129.0441, 1585.217
129.5262, 1647.435
130.0083, 1744.504
130.4904, 1867.666
130.9725, 2015.147
131.4547, 2188.802
131.9368, 2382.453
132.4189, 2601.118
132.9010, 2833.576
133.3831, 3077.864
133.8652, 3339.574
134.3474, 3580.842
134.8295, 3802.933
135.3116, 3987.418
135.7937, 4108.816
136.2758, 4159.566
136.7579, 4139.439
137.2401, 4042.939
137.7222, 3841.306
138.2043, 3596.653
138.6864, 3315.602
139.1685, 3013.998
139.6507, 2711.061
140.1328, 2417.491
140.6149, 2132.805
141.0970, 1879.734
141.5791, 1668.564
142.0612, 1482.034
142.5434, 1318.641
143.0255, 1177.442
143.5076, 1057.081
143.9897, 956.9526
144.4718, 878.8019
144.9539, 815.6433
145.4361, 765.6683
145.9182, 726.6527
146.4003, 696.8628
146.8824, 676.0626
147.3645, 664.7780
147.8466, 664.0295
148.3288, 676.3497
148.8109, 695.3207
149.2930, 718.9858
149.7751, 750.1915
150.2572, 792.4878
150.7393, 847.1516
151.2215, 910.3307
151.7036, 977.8020
152.1857, 1048.376
152.6678, 1125.804
153.1499, 1211.025
153.6320, 1303.787
154.1142, 1403.163
154.5963, 1508.310
155.0784, 1621.174
155.5605, 1744.992
156.0426, 1879.039
156.5247, 2014.478
157.0069, 2145.308
157.4890, 2271.545
157.9711, 2395.147
158.4532, 2521.226
158.9353, 2641.151
159.4174, 2751.610
159.8996, 2851.779
160.3817, 2935.541
160.8638, 2994.436
161.3459, 3023.653
161.8280, 3043.167
162.3102, 3041.041
162.7923, 3039.677
163.2744, 3049.016
163.7565, 3073.258
164.2386, 3117.796
164.7207, 3191.549
165.2029, 3282.967
165.6850, 3431.064
166.1671, 3629.576
166.6492, 3879.601
167.1313, 4190.720
167.6134, 4564.978
168.0956, 4990.407
168.5777, 5432.960
169.0598, 5998.639
169.5419, 6456.125
170.0240, 6851.562
170.5061, 7117.260
170.9883, 7152.134
171.4704, 6898.464
171.9525, 6395.974
172.4346, 5788.931
172.9167, 4973.083
173.3988, 4187.086
173.8810, 3483.210
174.3631, 2861.651
174.8452, 2328.598
175.3273, 1896.641
175.8094, 1560.916
176.2915, 1282.266
176.7737, 1070.307
177.2558, 897.0409
177.7379, 750.0264
178.2200, 629.1514
178.7021, 526.8624
179.1842, 442.5361
179.6664, 375.1588
180.1485, 320.2517
180.6306, 280.3987
181.1127, 249.7305
181.5948, 222.8098
182.0769, 199.3577
182.5591, 181.2598
183.0412, 170.4810
183.5233, 165.4756
184.0054, 165.8379
184.4875, 172.1450
184.9696, 182.9849
185.4518, 195.6370
185.9339, 209.3058
186.4160, 226.9712
186.8981, 249.7236
187.3802, 276.3937
187.8623, 305.6791
188.3445, 336.4690
188.8266, 369.8525
189.3087, 408.7858
189.7908, 453.7926
190.2729, 505.4487
190.7550, 564.1686
191.2372, 628.7645
191.7193, 697.2212
192.2014, 768.1632
192.6835, 842.1038
193.1656, 921.8503
193.6477, 1011.182
194.1299, 1103.003
194.6120, 1194.875
195.0941, 1288.721
195.5762, 1387.775
196.0583, 1494.906
196.5404, 1609.417
197.0226, 1718.766
197.5047, 1825.385
197.9868, 1924.460
198.4689, 2016.182
198.9510, 2099.114
199.4331, 2170.007
199.9153, 2226.884
200.3974, 2269.550
200.8795, 2299.599
201.3616, 2316.912
201.8437, 2325.045
202.3258, 2323.391
202.8080, 2313.254
203.2901, 2298.182
203.7722, 2279.279
204.2543, 2257.143
204.7364, 2238.577
205.2185, 2220.818
205.7007, 2208.464
206.1828, 2203.424
206.6649, 2206.015
207.1470, 2217.827
207.6291, 2240.673
208.1112, 2275.068
208.5934, 2316.776
209.0755, 2367.555
209.5576, 2424.601
210.0397, 2486.276
210.5218, 2552.836
211.0039, 2621.647
211.4861, 2693.619
211.9682, 2766.218
212.4503, 2835.574
212.9324, 2905.030
213.4145, 2967.831
213.8967, 3017.100
214.3788, 3053.508
214.8609, 3072.921
215.3430, 3071.325
215.8251, 3051.181
216.3072, 3011.517
216.7894, 2949.758
217.2715, 2869.771
217.7536, 2776.812
218.2357, 2669.470
218.7178, 2552.067
219.1999, 2419.345
219.6821, 2280.164
220.1642, 2144.445
220.6463, 2015.508
221.1284, 1892.969
221.6105, 1773.747
222.0926, 1654.967
222.5748, 1546.775
223.0569, 1452.227
223.5390, 1368.214
224.0211, 1290.806
224.5032, 1218.050
224.9853, 1151.250
225.4675, 1092.692
225.9496, 1045.160
226.4317, 1003.856
226.9138, 966.7202
227.3959, 934.5522
227.8780, 908.8715
228.3602, 890.5925
228.8423, 878.5455
229.3244, 868.2532
229.8065, 856.4763
230.2886, 851.5534
230.7707, 854.3842
231.2529, 864.0865
231.7350, 879.8758
232.2171, 901.3771
232.6992, 928.0274
233.1813, 958.0022
233.6634, 989.1939
234.1456, 1027.516
234.6277, 1072.114
235.1098, 1124.359
235.5919, 1186.008
236.0740, 1257.895
236.5561, 1339.066
237.0383, 1426.970
237.5204, 1515.350
238.0025, 1618.717
238.4846, 1739.806
238.9667, 1876.056
239.4488, 2023.223
239.9310, 2180.262
240.4131, 2348.555
240.8952, 2532.675
241.3773, 2739.412
241.8594, 2954.334
242.3415, 3181.918
242.8237, 3414.821
243.3058, 3648.423
243.7879, 3883.264
244.2700, 4107.659
244.7521, 4299.688
245.2342, 4475.379
245.7164, 4590.877
246.1985, 4643.449
246.6806, 4631.129
247.1627, 4547.558
247.6448, 4387.977
248.1269, 4166.323
248.6091, 3891.484
249.0912, 3550.875
249.5733, 3211.743
250.0554, 2873.860
250.5375, 2546.120
251.0196, 2240.482
251.5018, 1959.641
251.9839, 1705.000
252.4660, 1485.128
252.9481, 1296.961
253.4302, 1130.146
253.9123, 984.8975
254.3945, 858.8734
254.8766, 749.3104
255.3587, 656.6505
255.8408, 576.2629
256.3229, 505.1845
256.8051, 442.0602
257.2872, 385.5215
257.7693, 335.6987
258.2514, 291.8436
258.7335, 252.9044
259.2156, 219.2750
259.6978, 189.3622
260.1799, 162.6426
260.6620, 138.4074
261.1441, 116.3169
261.6262, 96.21338
262.1083, 78.10956
262.5905, 61.86969
263.0726, 47.69913
263.5547, 35.06033
264.0368, 24.08823
264.5189, 14.43787
265.0010, 5.949829
265.4832, 0.9175110
265.9653, 6.847412
266.4474, 12.85388
266.9295, 18.95355
267.4116, 24.96048
267.8937, 31.34729
268.3759, 37.45630
268.8580, 42.21225
269.3401, 44.82275
269.8222, 46.28415
270.3043, 48.01456
270.7864, 50.10361
271.2686, 52.07330
271.7507, 54.01880
272.2328, 55.64917
272.7149, 56.49969
273.1970, 56.34714
273.6791, 55.65591
274.1613, 55.09927
274.6434, 54.85107
275.1255, 54.01578
275.6076, 51.40662
276.0897, 48.48050
276.5718, 46.47183
277.0540, 45.73328
277.5361, 45.46680
278.0182, 44.83365
278.5003, 43.79492
278.9824, 42.58542
279.4645, 41.45203
279.9467, 40.00122
280.4288, 37.96606
280.9109, 35.30499
281.3930, 32.07233
281.8751, 27.99609
282.3572, 22.94482
282.8394, 18.61951
283.3215, 16.13745
283.8036, 13.77377
284.2857, 10.37793
284.7678, 6.005341
285.2499, 1.646393
285.7321, 1.478271
286.2142, 3.304688
286.6963, 6.255554
287.1784, 11.49420
287.6605, 16.90005
288.1426, 21.34827
288.6248, 25.05740
289.1069, 28.88297
289.5890, 33.61328
290.0711, 39.13025
290.5532, 44.04712
291.0353, 47.94298
291.5175, 51.74101
291.9996, 55.87503
292.4817, 60.17471
292.9638, 64.22519
293.4459, 67.58035
293.9280, 70.58487
294.4102, 74.86526
294.8923, 81.60623
295.3744, 87.74805
295.8565, 92.15625
296.3386, 95.57437
296.8207, 99.02267
297.3029, 103.0662
297.7850, 107.1965
298.2671, 109.9188
298.7492, 110.0674
299.2313, 111.1982
299.7134, 114.9958
300.1956, 119.5487
300.6777, 123.1845
301.1598, 125.3343
301.6419, 126.4235
302.1240, 126.9637
302.6061, 126.5121
303.0883, 126.8225
303.5704, 128.8137
304.0525, 131.1200
304.5346, 133.0571
305.0167, 134.4198
305.4988, 135.0837
305.9810, 134.5733
306.4631, 132.4443
306.9452, 131.2336
307.4273, 131.9734
307.9094, 132.9872
308.3915, 133.5978
308.8737, 133.7619
309.3558, 133.6901
309.8379, 133.3766
310.3200, 132.7529
310.8021, 133.1347
311.2842, 135.9048
311.7664, 138.3146
312.2485, 139.4322
312.7306, 139.4357
313.2127, 138.7461
313.6948, 137.3957
314.1769, 135.6383
314.6591, 135.0755
315.1412, 136.6865
315.6233, 138.2020
316.1054, 138.6706
316.5875, 138.7406
317.0696, 139.3358
317.5518, 140.9531
318.0339, 143.1798
318.5160, 145.0284
318.9981, 146.5241
319.4802, 147.5496
319.9623, 147.8143
320.4445, 147.8142
320.9266, 147.9225
321.4087, 148.2529
321.8908, 148.8483
322.3729, 149.9107
322.8550, 151.6926
323.3372, 152.9957
323.8193, 152.6870
324.3014, 152.3737
324.7835, 153.3015
325.2656, 155.3846
325.7477, 157.1761
326.2299, 157.1669
326.7120, 155.2743
327.1941, 153.1801
327.6762, 150.8659
328.1583, 148.5378
328.6404, 146.3211
329.1226, 144.1389
329.6047, 141.7883
330.0868, 139.2213
330.5689, 136.4473
331.0510, 133.2480
331.5331, 129.5698
332.0153, 125.5954
332.4974, 121.1745
332.9795, 116.6107
333.4616, 112.4579
333.9437, 109.0516
334.4258, 105.9487
334.9080, 102.2087
335.3901, 97.69278
335.8722, 92.80583
336.3543, 87.38162
336.8365, 81.85338
337.3186, 76.49722
337.8007, 71.40555
338.2828, 66.75449
338.7649, 62.92844
339.2470, 60.10667
339.7292, 57.16321
340.2113, 53.82727
340.6934, 50.37447
341.1755, 46.80133
341.6576, 43.13875
342.1397, 39.58365
342.6219, 36.06670
343.1040, 32.67024
343.5861, 30.30219
344.0682, 29.48656
344.5503, 28.97237
345.0324, 28.23599
345.5146, 27.28645
345.9967, 26.10365
346.4788, 24.29430
346.9609, 22.33609
347.4430, 21.57393
347.9251, 22.41216
348.4073, 23.33615
348.8894, 23.37292
349.3715, 23.09157
349.8536, 23.27138
350.3357, 24.33914
350.8178, 25.46619
351.3000, 25.40175
351.7821, 24.05881
352.2642, 23.23692
352.7463, 23.88902
353.2284, 25.09657
353.7105, 25.89876
354.1927, 26.20117
354.6748, 26.41643
355.1569, 26.86539
355.6390, 27.47879
356.1211, 27.91481
356.6032, 28.01091
357.0854, 28.09586
357.5675, 28.34021
358.0496, 28.76842
358.5317, 29.63608
359.0138, 31.71071
359.4959, 34.05188
359.9781, 34.80959
360.4602, 33.60577
360.9423, 32.67026
361.4244, 33.85300
361.9065, 36.46370
362.3886, 38.79137
362.8708, 40.73001
363.3529, 42.19815
363.8350, 42.87675
364.3171, 42.88330
364.7992, 43.01361
365.2813, 43.57007
365.7635, 44.50024
366.2456, 45.70511
366.7277, 47.25053
367.2098, 48.79276
367.6919, 50.21288
368.1740, 51.52811
368.6562, 52.62778
369.1383, 53.39906
369.6204, 54.44753
370.1025, 56.68756
370.5846, 60.18092
371.0667, 63.54240
371.5489, 66.73302
372.0310, 69.64409
372.5131, 71.90623
372.9952, 73.62021
373.4773, 75.66054
373.9594, 78.77373
374.4416, 82.85416
374.9237, 86.35597
375.4058, 88.00330
375.8879, 90.49287
376.3700, 95.31276
376.8521, 101.7442
377.3343, 108.3233
377.8164, 114.4445
378.2985, 120.1846
378.7806, 125.6211
379.2627, 129.8706
379.7448, 135.3504
380.2270, 143.1071
380.7091, 151.7155
381.1912, 159.4280
381.6733, 166.0857
382.1554, 173.2599
382.6375, 182.9147
383.1197, 195.6600
383.6018, 208.0600
384.0839, 218.2242
384.5660, 229.8208
385.0481, 245.1389
385.5302, 263.3303
386.0124, 281.6747
386.4945, 298.1797
386.9766, 313.7989
387.4587, 333.9128
387.9408, 361.4846
388.4229, 390.5936
388.9051, 419.6356
389.3872, 450.3259
389.8693, 484.0850
390.3514, 521.4201
390.8335, 563.1265
391.3156, 610.1824
391.7978, 663.0070
392.2799, 720.7761
392.7620, 782.4475
393.2441, 849.8624
393.7262, 925.2859
394.2083, 1008.158
394.6905, 1095.389
395.1726, 1184.773
395.6547, 1276.597
396.1368, 1374.821
396.6189, 1486.699
397.1010, 1593.743
397.5832, 1694.484
398.0653, 1786.728
398.5474, 1869.666
399.0295, 1945.030
399.5116, 2003.613
399.9937, 2031.201
400.4759, 2026.835
400.9580, 1996.497
401.4401, 1933.311
401.9222, 1848.351
402.4043, 1743.810
402.8864, 1621.285
403.3686, 1493.085
403.8507, 1363.651
404.3328, 1234.965
404.8149, 1115.433
405.2970, 1006.191
405.7791, 906.7982
406.2613, 816.9365
406.7434, 736.0792
407.2255, 663.3125
407.7076, 599.6849
408.1897, 543.2549
408.6718, 493.2299
409.1540, 449.3981
409.6361, 409.2290
410.1182, 371.8292
410.6003, 337.9713
411.0824, 308.4086
411.5645, 283.4078
412.0467, 260.7045
412.5288, 239.0649
413.0109, 219.1182
413.4930, 202.3943
413.9751, 189.3889
414.4572, 178.0048
414.9394, 166.2654
415.4215, 154.1603
415.9036, 143.0400
416.3857, 133.7034
416.8678, 124.7935
417.3499, 115.0958
417.8321, 105.0284
418.3142, 96.00081
418.7963, 88.89005
419.2784, 83.34599
419.7605, 78.26889
420.2426, 74.25781
420.7248, 69.85880
421.2069, 64.58536
421.6890, 59.02039
422.1711, 53.57777
422.6532, 48.43816
423.1353, 43.86964
423.6175, 40.26744
424.0996, 37.87711
424.5817, 35.22310
425.0638, 31.69620
425.5459, 28.55907
426.0280, 26.66515
426.5102, 25.51814
426.9923, 24.10034
427.4744, 21.81410
427.9565, 18.86464
428.4386, 15.87730
428.9207, 12.14523
429.4029, 9.723282
429.8850, 9.569931
430.3671, 10.15147
430.8492, 10.44072
431.3313, 10.18837
431.8134, 9.519760
432.2956, 8.468994
432.7777, 7.023117
433.2598, 5.625320
433.7419, 4.362381
434.2241, 3.050110
434.7062, 1.327972
435.1883, 0.4766690
435.6704, 1.650970
436.1525, 1.583206
436.6346, 1.158875
437.1168, 2.190048
437.5989, 4.925430
438.0810, 6.390640
438.5631, 4.423660
439.0452, 1.546158
439.5273, 0.7431180
440.0095, 2.257858
440.4916, 3.986465
440.9737, 4.912933
441.4558, 5.254364
441.9379, 5.383423
442.4200, 5.318436
442.9022, 5.245880
443.3843, 5.408707
443.8664, 5.718536
444.3485, 5.677979
444.8306, 4.734421
445.3127, 3.941544
445.7949, 4.093445
446.2770, 4.882294
446.7591, 5.583664
447.2412, 5.962372
447.7233, 5.863602
448.2054, 4.890640
448.6876, 2.298798
449.1697, 0.5281830
449.6518, 0.3560790
450.1339, 0.5466610
450.6160, 0.2138370
451.0981, 0.6941530
451.5803, 1.851013
452.0624, 3.042038
452.5445, 4.234772
453.0266, 4.962112
453.5087, 3.872604
453.9908, 3.895370
454.4730, 6.192184
454.9551, 9.479370
455.4372, 12.30664
455.9193, 14.22408
456.4014, 15.83876
456.8835, 17.94618
457.3657, 20.56413
457.8478, 23.57837
458.3299, 27.23753
458.8120, 31.07375
459.2941, 35.12863
459.7762, 39.20453
460.2584, 42.85918
460.7405, 45.65654
461.2226, 48.10814
461.7047, 51.31184
462.1868, 55.35837
462.6689, 59.77571
463.1511, 64.23230
463.6332, 69.14966
464.1153, 75.08302
464.5974, 82.16116
465.0795, 89.41934
465.5616, 96.12805
466.0438, 102.6400
466.5259, 109.9096
467.0080, 118.0880
467.4901, 126.5603
467.9722, 134.6738
468.4543, 142.7063
468.9365, 151.8019
469.4186, 162.5230
469.9007, 173.7330
470.3828, 184.8508
470.8649, 196.0220
471.3470, 207.3563
471.8292, 218.8165
472.3113, 230.7117
472.7934, 243.8413
473.2755, 259.1270
473.7576, 272.6093
474.2397, 282.6583
474.7219, 292.4572
475.2040, 304.4803
475.6861, 317.9456
476.1682, 330.3408
476.6503, 339.9683
477.1324, 347.4221
477.6146, 354.8933
478.0967, 363.4166
478.5788, 370.2537
479.0609, 375.6447
479.5430, 379.0623
480.0251, 379.6569
480.5073, 377.6625
480.9894, 374.7141
481.4715, 372.5645
481.9536, 371.0247
482.4357, 367.4897
482.9178, 360.8297
483.4000, 354.0796
483.8821, 349.3858
484.3642, 345.0637
484.8463, 338.6752
485.3284, 329.1366
485.8105, 318.7401
486.2927, 309.4427
486.7748, 301.1295
487.2569, 293.2943
487.7390, 285.9266
488.2211, 278.7643
488.7032, 271.6604
489.1854, 264.5789
489.6675, 257.5440
490.1496, 250.3550
490.6317, 243.3797
491.1138, 237.2082
491.5959, 231.7385
492.0781, 226.3372
492.5602, 220.7068
493.0423, 214.9959
493.5244, 209.5483
494.0065, 204.7918
494.4886, 199.5879
494.9708, 193.2101
495.4529, 186.7829
495.9350, 181.1452
496.4171, 176.4518
496.8992, 172.2960
497.3813, 168.3229
497.8635, 164.4200
498.3456, 160.3933
498.8277, 156.9440
499.3098, 152.4647
499.7919, 145.7351
500.2740, 138.6745
500.7562, 132.8917
501.2383, 128.6282
501.7204, 124.9586
502.2025, 121.2038
502.6846, 117.4070
503.1667, 113.3854
503.6489, 109.3060
504.1310, 104.6555
504.6131, 98.26270
505.0952, 91.40424
505.5773, 86.19559
506.0594, 83.75372
506.5416, 81.66487
507.0237, 77.62106
507.5058, 72.18855
507.9879, 67.37555
508.4700, 63.62886
508.9521, 60.61984
509.4343, 58.24634
509.9164, 56.48135
510.3985, 54.03038
510.8806, 49.92580
511.3627, 46.07950
511.8448, 43.89311
512.3270, 42.80025
512.8091, 41.34529
513.2912, 38.86296
513.7733, 35.90062
514.2554, 33.54768
514.7375, 32.09782
515.2197, 31.02553
515.7018, 30.82277
516.1839, 30.33521
516.6660, 28.70828
517.1481, 26.27780
517.6302, 23.90221
518.1124, 22.06854
518.5945, 20.79366
519.0766, 20.18192
519.5587, 20.45129
520.0408, 20.36981
520.5229, 19.68056
521.0051, 18.69113
521.4872, 17.36678
521.9693, 15.83206
522.4514, 14.64745
522.9335, 14.25549
523.4156, 14.27304
523.8978, 14.24794
524.3799, 14.21953
524.8620, 13.65309
525.3441, 11.97971
525.8262, 9.935471
526.3083, 9.146011
526.7905, 10.02916
527.2726, 10.31642
527.7547, 8.609116
528.2368, 6.536240
528.7189, 6.069565
529.2010, 7.250977
529.6832, 8.702896
530.1653, 9.482910
530.6474, 9.598190
531.1295, 9.198929
531.6116, 7.541489
532.0938, 6.280060
532.5759, 5.704178
533.0580, 5.471603
533.5401, 5.367599
534.0222, 5.298080
534.5043, 5.113037
534.9865, 4.490311
535.4686, 3.540680
535.9507, 3.761780
536.4328, 6.252808
536.9149, 7.833496
537.3970, 6.607040
537.8792, 4.307114
538.3613, 2.714218
538.8434, 2.211395
539.3255, 1.958862
539.8076, 1.246857
540.2897, 0.3102570
540.7719, 0.2238160
541.2540, 0.2626950
541.7361, 8.1789996E-03
542.2182, 0.5939940
542.7003, 1.387527
543.1824, 1.877670
543.6646, 1.762222
544.1467, 1.740906
544.6288, 2.259872
545.1109, 2.924820
545.5930, 3.074509
546.0751, 2.624878
546.5573, 2.289688
547.0394, 2.975540
547.5215, 4.743423
548.0036, 4.940079
548.4857, 1.394730
548.9678, 1.286179
549.4500, 1.887054
549.9321, 1.407684
550.4142, 0.8295440
550.8963, 0.4493870
551.3784, 0.2362060
551.8605, 0.3511510
552.3427, 0.7344820
552.8248, 0.3019260
553.3069, 1.627655
553.7890, 3.041916
554.2711, 1.875717
554.7532, 0.2718960
555.2354, 0.8772580
555.7175, 1.132004
556.1996, 2.926590
556.6817, 2.182648
557.1638, 4.8904002E-02
557.6459, 1.133469
558.1281, 0.9282380
558.6102, 0.1454320
559.0923, 0.6369630
559.5744, 1.405273
560.0565, 1.823669
560.5386, 1.916595
561.0208, 1.694229
561.5029, 0.7028960
561.9850, 0.3677830
562.4671, 0.5549620
562.9492, 0.2359920
563.4313, 1.102814
563.9135, 1.078629
564.3956, 0.1822360
564.8777, 0.6937410
565.3598, 1.684067
565.8419, 2.426331
566.3240, 2.912903
566.8062, 3.078079
567.2883, 2.651688
567.7704, 1.565109
568.2525, 0.6948090
568.7346, 0.8211060
569.2167, 1.685181
569.6989, 2.752731
570.1810, 4.064774
570.6631, 4.825317
571.1452, 4.082794
571.6273, 2.542419
572.1094, 2.692505
572.5916, 5.851898
573.0737, 8.202652
573.5558, 8.331924
574.0379, 7.373016
574.5200, 6.207932
575.0021, 5.119919
575.4843, 4.532562
575.9664, 4.903442
576.4485, 5.973572
576.9306, 6.050095
577.4127, 3.955719
577.8948, 2.780167
578.3770, 3.329590
578.8591, 4.556778
579.3412, 6.121841
579.8233, 7.729019
580.3054, 8.522461
580.7875, 7.581436
581.2697, 5.490082
581.7518, 3.437210
582.2339, 1.300751
582.7161, 0.4205470
583.1982, 2.322998
583.6803, 4.887238
584.1624, 4.624191
584.6445, 1.202530
585.1266, 1.810379
585.6088, 3.812622
586.0909, 4.675064
586.5730, 3.342316
587.0551, 0.7339940
587.5372, 0.2600560
588.0193, 1.911514
588.5015, 6.025192
588.9836, 9.492569
589.4657, 12.40611
589.9478, 14.30783
590.4299, 14.32817
590.9120, 14.35370
591.3942, 15.14761
591.8763, 16.66982
592.3584, 18.69702
592.8405, 21.15811
593.3226, 23.86269
593.8047, 26.80724
594.2869, 30.07727
594.7690, 32.57367
595.2511, 33.43709
595.7332, 34.42566
596.2153, 37.69455
596.6974, 42.56219
597.1796, 46.55179
597.6617, 48.54727
598.1438, 50.34866
598.6259, 53.23746
599.1080, 56.57767
599.5901, 59.04333
600.0723, 60.36932
600.5544, 61.66806
601.0365, 64.15945
601.5186, 67.85706
602.0007, 71.05643
602.4828, 74.12091
602.9650, 76.26489
603.4471, 75.47086
603.9292, 74.73434
604.4113, 77.82306
604.8934, 85.05389
605.3755, 92.43628
605.8577, 96.02338
606.3398, 96.66736
606.8219, 98.11142
607.3040, 100.6131
607.7861, 103.4533
608.2682, 106.7333
608.7504, 109.8180
609.2325, 111.5329
609.7146, 111.5725
610.1967, 111.8260
610.6788, 113.2658
611.1609, 114.9447
611.6431, 115.6767
612.1252, 115.6231
612.6073, 115.7786
613.0894, 116.7773
613.5715, 118.5146
614.0536, 120.4628
614.5358, 122.7278
615.0179, 124.5192
615.5000, 126.0168
615.9821, 127.0090
616.4642, 127.0856
616.9464, 126.6559
617.4285, 126.6238
617.9106, 127.5103
618.3927, 128.1312
618.8748, 126.7014
619.3569, 123.6469
619.8391, 121.5175
620.3212, 120.9776
620.8033, 120.6080
621.2854, 119.2619
621.7675, 117.0218
622.2496, 114.7585
622.7318, 112.1841
623.2139, 109.9265
623.6960, 108.2087
624.1781, 106.9029
624.6602, 106.0922
625.1423, 105.6660
625.6245, 105.1702
626.1066, 104.2322
626.5887, 102.8053
627.0708, 100.7736
627.5529, 97.86636
628.0350, 94.98038
628.5172, 91.58267
628.9993, 88.95102
629.4814, 88.42865
629.9635, 89.55759
630.4456, 90.15302
630.9277, 89.10016
631.4099, 87.43994
631.8920, 86.20895
632.3741, 85.32755
632.8562, 84.31845
633.3383, 82.95502
633.8204, 81.75885
634.3026, 81.50760
634.7847, 82.44412
635.2668, 82.57242
635.7489, 81.64600
636.2310, 80.18195
636.7131, 77.51895
637.1953, 74.76950
637.6774, 73.49347
638.1595, 73.89380
638.6416, 74.52728
639.1237, 73.71530
639.6058, 71.88437
640.0880, 71.48505
640.5701, 72.86096
641.0522, 74.06897
641.5343, 74.27908
642.0164, 74.03412
642.4985, 73.86118
642.9807, 73.64816
643.4628, 74.17795
643.9449, 76.23511
644.4270, 78.65765
644.9091, 80.43954
645.3912, 81.80350
645.8734, 83.61008
646.3555, 86.18985
646.8376, 88.83832
647.3197, 90.30548
647.8018, 90.24719
648.2839, 90.99585
648.7661, 93.02563
649.2482, 95.32220
649.7303, 97.34213
650.2124, 99.55441
650.6945, 102.8316
651.1766, 107.3763
651.6588, 111.6292
652.1409, 113.6947
652.6230, 114.8131
653.1051, 117.5827
653.5872, 122.1202
654.0693, 127.4097
654.5515, 133.1893
655.0336, 138.9448
655.5157, 143.5492
655.9978, 146.0771
656.4799, 149.6419
656.9620, 154.2781
657.4442, 159.8902
657.9263, 167.1176
658.4084, 175.0895
658.8905, 182.3763
659.3726, 188.3452
659.8547, 193.9434
660.3369, 200.3287
660.8190, 207.4500
661.3011, 214.7190
661.7832, 222.0179
662.2653, 229.7364
662.7474, 237.9217
663.2296, 246.7941
663.7117, 256.7335
664.1938, 268.1946
664.6759, 279.3564
665.1580, 289.1909
665.6401, 298.8597
666.1223, 309.4702
666.6044, 320.8881
667.0865, 331.9556
667.5686, 342.0494
668.0507, 352.3414
668.5328, 365.1169
669.0150, 380.5714
669.4971, 397.7091
669.9792, 417.0851
670.4613, 437.5186
670.9434, 458.6269
671.4255, 480.3441
671.9077, 502.7221
672.3898, 525.8088
672.8719, 549.5695
673.3540, 572.6827
673.8361, 597.0858
674.3182, 625.5723
674.8004, 658.3829
675.2825, 695.1178
675.7646, 735.8323
676.2467, 779.2547
676.7288, 822.4957
677.2109, 863.1393
677.6931, 909.9147
678.1752, 963.6890
678.6573, 1022.264
679.1394, 1084.289
679.6215, 1150.506
680.1036, 1221.263
680.5858, 1296.280
681.0679, 1377.696
681.5500, 1467.058
682.0321, 1563.715
682.5142, 1667.197
682.9963, 1776.949
683.4785, 1894.993
683.9606, 2023.529
684.4427, 2160.508
684.9248, 2303.125
685.4069, 2452.722
685.8890, 2604.522
686.3712, 2757.571
686.8533, 2913.324
687.3354, 3077.532
687.8175, 3244.291
688.2996, 3407.080
688.7817, 3563.279
689.2639, 3705.405
689.7460, 3826.989
690.2281, 3927.542
690.7102, 3998.612
691.1923, 4040.012
691.6744, 4050.795
692.1566, 4031.950
692.6387, 3980.389
693.1208, 3887.787
693.6029, 3749.456
694.0850, 3597.843
694.5671, 3435.511
695.0493, 3264.193
695.5314, 3081.544
696.0135, 2891.533
696.4956, 2697.694
696.9777, 2502.376
697.4598, 2312.542
697.9420, 2138.626
698.4241, 1980.318
698.9062, 1828.889
699.3883, 1683.161
699.8704, 1547.784
700.3525, 1426.864
700.8347, 1317.915
701.3168, 1216.887
701.7989, 1124.324
702.2810, 1039.470
702.7631, 964.2953
703.2452, 895.5509
703.7274, 832.1849
704.2095, 773.5809
704.6916, 718.9189
705.1737, 668.2134
705.6558, 621.8121
706.1379, 580.8285
706.6201, 545.0119
707.1022, 510.4086
707.5843, 476.4749
708.0664, 444.7385
708.5485, 416.2087
709.0306, 389.9165
709.5128, 365.1682
709.9949, 341.8011
710.4770, 320.3357
710.9591, 301.8272
711.4412, 284.3791
711.9233, 266.3317
712.4055, 248.4972
712.8876, 232.8852
713.3697, 219.9256
713.8518, 208.0689
714.3339, 195.9372
714.8160, 183.7124
715.2982, 172.6431
715.7803, 162.6958
716.2624, 153.7438
716.7445, 146.8524
717.2266, 140.1548
717.7087, 132.0975
718.1909, 123.0041
718.6730, 114.4355
719.1551, 106.7321
719.6372, 99.91483
720.1193, 94.14453
720.6014, 89.15445
721.0836, 84.70569
721.5657, 80.67267
722.0478, 76.43663
722.5299, 71.51303
723.0120, 66.07230
723.4941, 60.74313
723.9763, 55.09811
724.4584, 50.71266
724.9405, 48.87430
725.4226, 47.14514
725.9047, 44.04706
726.3868, 40.15952
726.8690, 36.69337
727.3511, 34.02026
727.8332, 31.45013
728.3153, 28.52853
728.7974, 25.59990
729.2795, 23.08617
729.7617, 20.96855
730.2438, 18.96219
730.7259, 16.91403
731.2080, 15.03554
731.6901, 13.82751
732.1722, 13.58879
732.6544, 12.81926
733.1365, 11.14200
733.6186, 9.392181
734.1007, 8.023865
734.5828, 6.729187
735.0649, 5.020615
735.5471, 2.804611
736.0292, 1.017593
736.5113, 0.3216090
736.9934, 2.6138000E-02
737.4755, 0.4711300
737.9576, 1.124969
738.4398, 1.837097
738.9219, 2.601639
739.4040, 3.119614
739.8861, 2.905914
740.3682, 1.974579
740.8503, 1.373169
741.3325, 1.027023
741.8146, 1.130875
742.2967, 2.118179
742.7788, 3.330704
743.2609, 4.260513
743.7430, 4.896606
744.2252, 5.332275
744.7073, 5.505569
745.1894, 5.567398
745.6715, 5.591644
746.1536, 5.600067
746.6357, 5.554565
747.1179, 5.482941
747.6000, 5.529800
748.0821, 5.839645
748.5642, 6.276932
749.0463, 6.401611
749.5284, 6.127472
750.0106, 5.856995
750.4927, 5.664474
750.9748, 5.544739
751.4569, 5.527557
751.9390, 5.533508
752.4211, 5.390533
752.9033, 4.982224
753.3854, 4.674057
753.8675, 4.772339
754.3496, 4.905518
754.8317, 4.625702
755.3138, 4.063568
755.7960, 3.785583
756.2781, 4.054703
756.7602, 4.244583
757.2423, 3.070847
757.7244, 0.6154330
758.2065, 0.2569430
758.6887, 0.9337920
759.1708, 2.212280
759.6529, 3.005600
760.1350, 3.225998
760.6171, 2.546417
761.0992, 0.8984220
761.5814, 0.5387570
762.0635, 1.979004
762.5456, 2.768494
763.0277, 2.001144
763.5098, 0.7229920
763.9919, 0.3135070
764.4741, 0.9486850
764.9562, 1.829178
765.4383, 2.423233
765.9204, 2.731979
766.4025, 2.559677
766.8846, 1.939529
767.3668, 1.834473
767.8489, 2.539612
768.3310, 3.482803
768.8131, 4.320648
769.2952, 4.998390
769.7773, 5.195892
770.2595, 4.259193
770.7416, 3.810059
771.2237, 4.417976
771.7058, 5.103737
772.1879, 4.870056
772.6700, 4.308571
773.1522, 4.936935
773.6343, 7.431015
774.1164, 9.798180
774.5985, 9.776688
775.0806, 8.334587
775.5627, 7.680092
776.0449, 7.868385
776.5270, 7.902313
777.0091, 7.301338
777.4912, 6.570526
777.9733, 6.507072
778.4554, 7.214188
778.9376, 7.702293
779.4197, 7.829262
779.9019, 7.925957
780.3840, 8.016418
780.8661, 8.136612
781.3482, 8.394897
781.8303, 8.741165
782.3124, 8.901344
782.7946, 8.697906
783.2767, 8.339149
783.7588, 7.708130
784.2409, 7.143715
784.7230, 7.512619
785.2051, 8.766197
785.6873, 9.672569
786.1694, 9.309891
786.6515, 8.279381
787.1336, 8.189034
787.6157, 9.265678
788.0978, 10.02917
788.5800, 10.31953
789.0621, 10.40651
789.5442, 10.24908
790.0263, 10.06663
790.5084, 10.20436
790.9905, 10.72942
791.4727, 11.30397
791.9548, 12.32129
792.4369, 12.89303
792.9190, 12.00105
793.4011, 10.44628
793.8832, 9.596062
794.3654, 9.739174
794.8475, 10.03629
795.3296, 9.622955
795.8117, 8.900314
796.2938, 9.052399
796.7759, 10.06058
797.2581, 11.08159
797.7402, 11.98979
798.2223, 12.64716
798.7044, 12.82355
799.1865, 12.62590
799.6686, 12.70768
800.1508, 13.41557
800.6329, 13.83175
801.1150, 13.98528
801.5971, 13.87760
802.0792, 13.10722
802.5613, 12.11953
803.0435, 11.63728
803.5256, 11.88455
804.0077, 12.51223
804.4898, 13.60667
804.9719, 14.74416
805.4540, 15.42076
805.9362, 15.56808
806.4183, 14.87448
806.9004, 13.26334
807.3825, 11.85086
807.8646, 12.03072
808.3467, 13.66554
808.8289, 14.64390
809.3110, 14.68196
809.7931, 14.62086
810.2752, 14.55711
810.7573, 14.55977
811.2394, 14.76997
811.7216, 15.05705
812.2037, 15.04176
812.6858, 14.45689
813.1679, 14.00140
813.6500, 13.72609
814.1321, 13.84217
814.6143, 14.97675
815.0964, 16.66853
815.5785, 17.65343
816.0606, 17.36707
816.5427, 16.78961
817.0248, 17.46167
817.5070, 18.82060
817.9891, 18.59520
818.4712, 16.81464
818.9533, 15.58434
819.4354, 15.66763
819.9175, 16.34673
820.3997, 16.82551
820.8818, 17.06152
821.3639, 17.12997
821.8460, 16.63641
822.3281, 16.62672
822.8102, 17.98562
823.2924, 19.18805
823.7745, 19.01014
824.2566, 17.86304
824.7387, 16.94728
825.2208, 16.72534
825.7029, 16.53854
826.1851, 15.76076
826.6672, 14.93526
827.1493, 14.87712
827.6314, 15.33445
828.1135, 15.33884
828.5956, 14.56480
829.0778, 13.69021
829.5599, 13.59200
830.0420, 14.05836
830.5241, 13.59463
831.0062, 11.94515
831.4883, 11.69431
831.9705, 14.16143
832.4526, 16.80570
832.9347, 17.03971
833.4168, 15.16550
833.8989, 14.04591
834.3810, 14.08932
834.8632, 14.18525
835.3453, 14.25169
835.8274, 14.33680
836.3095, 14.61268
836.7916, 14.90227
837.2737, 14.88167
837.7559, 14.45239
838.2380, 13.80919
838.7201, 12.84594
839.2022, 11.92120
839.6843, 11.77125
840.1664, 12.08720
840.6486, 11.62456
841.1307, 10.07243
841.6128, 8.818016
842.0949, 9.443405
842.5770, 11.37261
843.0591, 11.63605
843.5413, 9.782280
844.0234, 8.429962
844.5055, 7.986534
844.9876, 8.125092
845.4697, 9.215820
845.9518, 10.60348
846.4340, 10.25900
846.9161, 7.135834
847.3982, 5.136261
847.8803, 5.346321
848.3624, 6.041954
848.8445, 6.808861
849.3267, 7.310310
849.8088, 6.943176
850.2909, 5.738129
850.7730, 4.833969
851.2551, 5.229507
851.7372, 6.038902
852.2194, 6.446037
852.7015, 6.403618
853.1836, 5.528366
853.6657, 3.859230
854.1478, 2.321892
854.6299, 1.515526
855.1121, 1.367531
855.5942, 1.859177
856.0763, 3.101631
856.5584, 4.016815
857.0405, 4.733856
857.5226, 4.607582
858.0048, 2.761009
858.4869, 0.4568860
858.9690, 0.3865590
859.4511, 0.3115840
859.9332, 0.8127980
860.4153, 1.182381
860.8975, 1.180550
861.3796, 0.4007720
861.8617, 0.4676900
862.3438, 0.8365330
862.8259, 0.7531050
863.3080, 0.5146330
863.7902, 0.1714550
864.2723, 1.0880000E-02
864.7544, 0.2390590
865.2365, 0.8309330
865.7186, 2.025658
866.2007, 3.537659
866.6829, 4.361038
867.1650, 4.137512
867.6471, 3.501671
868.1292, 3.172852
868.6113, 3.094742
869.0934, 2.961090
869.5756, 2.783264
870.0577, 2.394936
870.5398, 1.557602
871.0219, 1.034142
871.5040, 1.667961
871.9861, 3.025223
872.4683, 3.483261
872.9504, 2.317619
873.4325, 1.599800
873.9146, 1.756134
874.3967, 1.904816
874.8788, 1.623672
875.3610, 1.132133
875.8431, 0.6873930
876.3252, 0.3466720
876.8073, 0.1747510
877.2894, 0.1913830
877.7715, 0.3860630
878.2537, 1.173347
878.7358, 1.928726
879.2179, 1.556870
879.7000, 0.1205440
880.1821, 1.561752
880.6642, 3.076942
881.1464, 4.130341
881.6285, 3.812378
882.1106, 2.525940
882.5927, 2.796158
883.0748, 4.774826
883.5569, 6.641899
884.0391, 7.742363
884.5212, 8.324738
885.0033, 8.608932
885.4854, 8.625153
885.9675, 8.950478
886.4496, 9.408806
886.9318, 10.52542
887.4139, 13.26853
887.8960, 15.74551
888.3781, 16.62450
888.8602, 16.56954
889.3423, 16.93133
889.8245, 17.96582
890.3066, 18.96960
890.7887, 19.64991
891.2708, 20.35530
891.7529, 21.32940
892.2350, 22.43741
892.7172, 23.65927
893.1993, 24.85379
893.6814, 25.41972
894.1635, 24.54849
894.6456, 23.81385
895.1277, 25.48109
895.6099, 28.62124
896.0920, 31.14658
896.5741, 32.92017
897.0562, 34.73512
897.5383, 36.98639
898.0204, 39.21603
898.5026, 40.49194
898.9847, 40.99229
899.4668, 43.37411
899.9489, 48.10417
900.4310, 52.14618
900.9131, 54.34531
901.3953, 56.52350
901.8774, 60.20973
902.3595, 65.18710
902.8416, 70.33263
903.3237, 75.63041
903.8058, 81.16205
904.2880, 86.82161
904.7701, 92.82658
905.2522, 99.06059
905.7343, 105.8245
906.2164, 113.3175
906.6985, 121.6068
907.1807, 131.0016
907.6628, 141.8857
908.1449, 153.6076
908.6270, 165.5171
909.1091, 178.2695
909.5912, 192.5308
910.0734, 208.3129
910.5555, 225.2299
911.0376, 243.0418
911.5197, 262.7951
912.0018, 285.1054
912.4839, 310.2296
912.9661, 338.6195
913.4482, 370.3825
913.9303, 405.2632
914.4124, 443.4435
914.8945, 485.5135
915.3766, 532.0204
915.8588, 583.0131
916.3409, 639.2639
916.8230, 700.8088
917.3051, 767.5894
917.7872, 839.9938
918.2693, 915.7864
918.7515, 995.0693
919.2336, 1075.279
919.7157, 1153.581
920.1978, 1231.597
920.6799, 1294.484
921.1620, 1347.652
921.6442, 1377.489
922.1263, 1380.320
922.6084, 1360.765
923.0905, 1317.841
923.5726, 1255.747
924.0547, 1181.641
924.5369, 1095.350
925.0190, 1005.359
925.5011, 908.0705
925.9832, 815.1736
926.4653, 733.3395
926.9474, 660.3331
927.4296, 592.3263
927.9117, 529.1298
928.3938, 473.4409
928.8759, 427.5441
929.3580, 388.0574
929.8401, 352.1576
930.3223, 319.8717
930.8044, 291.3974
931.2865, 266.6342
931.7686, 245.2891
932.2507, 227.2928
932.7328, 211.5833
933.2150, 196.8860
933.6971, 183.5146
934.1792, 172.8452
934.6613, 164.8914
935.1434, 157.7007
935.6255, 150.9153
936.1077, 145.1635
936.5898, 141.0464
937.0719, 137.8792
937.5540, 133.8663
938.0361, 128.5470
938.5182, 124.8681
939.0004, 123.5003
939.4825, 122.4846
939.9646, 121.4998
940.4467, 120.4267
940.9288, 118.6834
941.4109, 116.6570
941.8931, 116.1912
942.3752, 118.1236
942.8573, 120.1823
943.3394, 121.7133
943.8215, 123.7382
944.3036, 127.0653
944.7858, 131.0273
945.2679, 134.6507
945.7500, 137.8778
946.2321, 141.5500
946.7142, 145.9950
947.1964, 151.0240
947.6785, 156.7809
948.1606, 162.9015
948.6427, 168.0601
949.1248, 173.3388
949.6069, 181.7766
950.0891, 194.3725
950.5712, 208.6241
951.0533, 221.4947
951.5354, 235.1100
952.0175, 252.9831
952.4996, 274.4666
952.9818, 297.1220
953.4639, 321.0152
953.9460, 349.2547
954.4281, 383.8408
954.9102, 423.6032
955.3923, 465.8772
955.8745, 511.1769
956.3566, 561.6486
956.8387, 617.2977
957.3208, 679.9291
957.8029, 749.2892
958.2850, 830.2941
958.7672, 925.5584
959.2493, 1038.222
959.7314, 1179.473
960.2135, 1345.433
960.6956, 1553.061
961.1777, 1789.625
961.6599, 2092.292
962.1420, 2460.435
962.6241, 2914.989
963.1062, 3469.642
963.5883, 4123.627
964.0704, 4957.805
964.5526, 5961.766
965.0347, 7151.925
965.5168, 8706.873
965.9989, 10260.73
966.4810, 11949.20
966.9631, 13358.34
967.4453, 13889.35
967.9274, 13465.91
968.4095, 12407.60
968.8916, 10323.22
969.3737, 8226.014
969.8558, 6405.996
970.3380, 4892.546
970.8201, 3756.677
971.3022, 2940.497
971.7843, 2324.825
972.2664, 1879.920
972.7485, 1537.439
973.2307, 1280.995
973.7128, 1081.725
974.1949, 922.2417
974.6770, 794.9238
975.1591, 691.9776
975.6412, 609.5106
976.1234, 541.7601
976.6055, 485.9376
977.0876, 438.1255
977.5698, 394.1589
978.0519, 354.4312
978.5340, 320.0300
979.0161, 290.7490
979.4982, 265.7497
979.9803, 244.5728
980.4625, 225.8199
980.9446, 208.3992
981.4267, 192.5272
981.9088, 179.2203
982.3909, 168.1545
982.8730, 155.6917
983.3552, 141.6029
983.8373, 127.6877
984.3194, 114.5672
984.8015, 102.1291
985.2836, 90.04285
985.7657, 78.61650
986.2479, 69.38223
986.7300, 62.59893
987.2121, 56.74184
987.6942, 51.89407
988.1763, 47.18913
988.6584, 42.10974
989.1406, 37.20797
989.6227, 33.31571
990.1048, 30.39404
990.5869, 27.53091
991.0690, 24.45996
991.5511, 21.98088
992.0333, 20.65939
992.5154, 19.33044
992.9975, 17.05025
993.4796, 14.52225
993.9617, 12.97076
994.4438, 12.50829
994.9260, 11.85872
995.4081, 10.79820
995.8902, 9.738586
996.3723, 8.642548
996.8544, 7.696297
997.3365, 7.088051
997.8187, 6.695488
998.3008, 6.339745
998.7829, 6.015305
999.2650, 5.470764
999.7471, 4.199928
1000.229, 3.223137
1000.711, 3.341713
1001.193, 3.697266
1001.676, 3.477036
1002.158, 2.771126
1002.640, 1.958961
1003.122, 1.118233
1003.604, 0.5702740
1004.086, 0.8492430
1004.568, 1.127327
1005.050, 0.6154100
1005.533, 0.2500920
1006.015, 0.9286960
1006.497, 1.325943
1006.979, 1.432121
1007.461, 1.210205
1007.943, 1.095955
1008.425, 1.751823
1008.907, 2.515274
1009.389, 2.361992
1009.872, 1.677841
1010.354, 1.302612
1010.836, 1.360962
1011.318, 1.548134
1011.800, 1.696907
1012.282, 1.839294
1012.764, 2.105888
1013.246, 2.350647
1013.729, 2.096306
1014.211, 1.522888
1014.693, 1.432877
1015.175, 1.946831
1015.657, 2.302155
1016.139, 1.930046
1016.621, 1.322685
1017.103, 1.448883
1017.585, 2.084373
1018.068, 2.076691
1018.550, 1.485725
1019.032, 1.348289
1019.514, 1.954575
1019.996, 2.752228
1020.478, 3.347984
1020.960, 3.627296
1021.442, 3.227394
1021.924, 2.183212
1022.407, 1.179695
1022.889, 0.2293550
1023.371, 0.4850540
1023.853, 0.9065250
1024.335, 1.091492
1024.817, 1.090866
1025.299, 0.8926850
1025.781, 0.3481900
1026.264, 0.6555250
1026.746, 1.022514
1027.228, 0.5928500
1027.710, 8.2038999E-02
1028.192, 0.3486630
1028.674, 0.5392230
1029.156, 0.2331850
1029.638, 0.3675310
1030.120, 0.3958280
1030.603, 0.3847730
1031.085, 0.8754200
1031.567, 1.072029
1032.049, 0.8609090
1032.531, 0.2334060
1033.013, 1.022125
1033.495, 4.2686000E-02
1033.977, 2.233795
1034.459, 3.419609
1034.942, 3.165161
1035.424, 2.604675
1035.906, 1.272614
1036.388, 0.4318470
1036.870, 0.6994780
1037.352, 1.449722
1037.834, 2.236771
1038.316, 2.996521
1038.799, 3.339447
1039.281, 2.989159
1039.763, 2.760483
1040.245, 2.576378
1040.727, 2.609970
1041.209, 3.194626
1041.691, 3.802292
1042.173, 3.820694
1042.656, 3.390480
1043.138, 3.273026
1043.620, 3.803528
1044.102, 4.028191
1044.584, 3.472702
1045.066, 3.123009
1045.548, 3.630699
1046.030, 4.279915
1046.512, 4.270874
1046.995, 3.752544
1047.477, 3.513325
1047.959, 3.700867
1048.441, 4.026638
1048.923, 4.818031
1049.405, 5.289955
1049.887, 4.634869
1050.369, 3.879025
1050.851, 4.285145
1051.334, 5.550819
1051.816, 6.200729
1052.298, 5.709892
1052.780, 5.379890
1053.262, 5.714840
1053.744, 6.018326
1054.226, 5.850410
1054.708, 5.585419
1055.191, 5.681892
1055.673, 6.037281
1056.155, 6.167786
1056.637, 5.891045
1057.119, 5.666317
1057.601, 5.510502
1058.083, 5.581673
1058.565, 6.269867
1059.047, 6.979786
1059.530, 6.981415
1060.012, 6.482239
1060.494, 6.290890
1060.976, 6.680046
1061.458, 7.008110
1061.940, 6.793983
1062.422, 6.769218
1062.904, 7.808781
1063.386, 8.827030
1063.869, 8.467987
1064.351, 7.172539
1064.833, 6.364193
1065.315, 6.438522
1065.797, 6.789932
1066.279, 7.454250
1066.761, 7.907963
1067.243, 7.804340
1067.726, 7.530952
1068.208, 7.246387
1068.690, 7.093727
1069.172, 7.399811
1069.654, 8.277447
1070.136, 9.115452
1070.618, 10.07327
1071.100, 10.38245
1071.583, 8.876778
1072.065, 7.258457
1072.547, 7.335278
1073.029, 8.419334
1073.511, 8.824951
1073.993, 8.219849
1074.475, 7.877148
1074.957, 8.737564
1075.439, 9.362701
1075.922, 8.913208
1076.404, 8.144928
1076.886, 7.639183
1077.368, 7.245651
1077.850, 6.426517
1078.332, 5.192699
1078.814, 4.804810
1079.296, 6.954018
1079.779, 8.595604
1080.261, 7.673653
1080.743, 6.189594
1081.225, 5.517487
1081.707, 5.512825
1082.189, 5.888935
1082.671, 6.524883
1083.153, 7.079918
1083.635, 7.427620
1084.118, 7.581676
1084.600, 7.807571
1085.082, 7.802692
1085.564, 6.905582
1086.046, 5.861996
1086.528, 5.931210
1087.010, 6.953682
1087.492, 7.332191
1087.974, 6.293839
1088.457, 5.456364
1088.939, 5.508389
1089.421, 5.860359
1089.903, 6.351360
1090.385, 6.756401
1090.867, 6.849041
1091.349, 6.660172
1091.831, 6.430450
1092.314, 6.073494
1092.796, 5.892269
1093.278, 6.274902
1093.760, 6.487141
1094.242, 5.964462
1094.724, 5.315334
1095.206, 5.067581
1095.688, 5.180656
1096.171, 5.435940
1096.653, 5.789238
1097.135, 6.074364
1097.617, 6.202011
1098.099, 6.321144
1098.581, 6.510891
1099.063, 6.716499
1099.545, 7.065510
1100.027, 7.320400
1100.510, 6.958378
1100.992, 5.914001
1101.474, 5.019997
1101.956, 4.314739
1102.438, 3.965008
1102.920, 4.129192
1103.402, 4.571793
1103.884, 5.516430
1104.366, 6.416492
1104.849, 6.409279
1105.331, 5.513172
1105.813, 4.816402
1106.295, 4.491440
1106.777, 4.359150
1107.259, 4.311916
1107.741, 4.539978
1108.223, 5.494450
1108.706, 6.486553
1109.188, 6.722710
1109.670, 6.316093
1110.152, 6.011948
1110.634, 6.015091
1111.116, 5.759163
1111.598, 5.001038
1112.080, 4.268837
1112.563, 3.454514
1113.045, 2.953175
1113.527, 3.315510
1114.009, 4.187592
1114.491, 4.625687
1114.973, 4.550056
1115.455, 4.359222
1115.937, 3.900356
1116.419, 3.609840
1116.901, 3.699703
1117.384, 3.767868
1117.866, 3.466694
1118.348, 3.086704
1118.830, 3.161457
1119.312, 3.707291
1119.794, 4.039120
1120.276, 4.031261
1120.758, 4.147926
1121.241, 4.510391
1121.723, 4.855171
1122.205, 5.191116
1122.687, 5.196159
1123.169, 4.355473
1123.651, 2.885666
1124.133, 2.070747
1124.615, 2.034344
1125.098, 2.053181
1125.580, 2.073231
1126.062, 2.323971
1126.544, 2.988518
1127.026, 3.508743
1127.508, 3.385368
1127.990, 2.846432
1128.472, 2.459805
1128.954, 2.231243
1129.437, 1.897041
1129.919, 1.438194
1130.401, 1.090214
1130.883, 0.8883820
1131.365, 1.002979
1131.847, 1.578079
1132.329, 2.231804
1132.811, 2.308926
1133.293, 2.006435
1133.776, 2.459225
1134.258, 3.515862
1134.740, 3.606781
1135.222, 2.637680
1135.704, 2.030079
1136.186, 2.351833
1136.668, 2.558601
1137.150, 1.466560
1137.633, 1.7036000E-02
1138.115, 0.4507410
1138.597, 2.043781
1139.079, 2.616703
1139.561, 2.191875
1140.043, 1.261196
1140.525, 9.0945996E-02
1141.007, 0.5429270
1141.490, 7.5874001E-02
1141.972, 0.6049080
1142.454, 0.2488250
1142.936, 0.4573940
1143.418, 0.4687920
1143.900, 7.5005002E-02
1144.382, 1.110516
1144.864, 2.352695
1145.346, 3.011761
1145.828, 2.782661
1146.311, 2.135475
1146.793, 1.214725
1147.275, 0.2817150
1147.757, 0.8237840
1148.239, 1.476414
1148.721, 0.3480680
1149.203, 1.600727
1149.685, 2.376270
1150.168, 1.698322
1150.650, 0.9308620
1151.132, 0.6441080
1151.614, 0.4433480
1152.096, 7.4669003E-02
1152.578, 0.2253230
1153.060, 0.4824980
1153.542, 0.4442140
1154.025, 0.5082470
1154.507, 1.991699
1154.989, 2.661331
1155.471, 2.061401
1155.953, 1.605431
1156.435, 2.007160
1156.917, 2.076508
1157.399, 0.9957770
1157.881, 9.3658000E-02
1158.364, 0.5859030
1158.846, 0.4788210
1159.328, 0.4812890
1159.810, 2.326576
1160.292, 3.176022
1160.774, 2.204620
1161.256, 1.732445
1161.738, 2.268173
1162.220, 2.623371
1162.703, 2.222363
1163.185, 1.684723
1163.667, 1.680878
1164.149, 1.952927
1164.631, 1.515396
1165.113, 7.4963003E-02
1165.595, 0.1336170
1166.077, 1.251877
1166.560, 2.257805
1167.042, 2.420914
1167.524, 2.459938
1168.006, 2.859406
1168.488, 3.089455
1168.970, 2.170349
1169.452, 0.5089040
1169.934, 0.4931870
1170.417, 1.955414
1170.899, 2.354752
1171.381, 1.529655
1171.863, 0.8174360
1172.345, 0.6806260
1172.827, 0.9746630
1173.309, 1.620270
1173.791, 2.453407
1174.273, 3.444374
1174.755, 4.311760
1175.238, 4.132126
1175.720, 3.303543
1176.202, 2.962868
1176.684, 3.240715
1177.166, 3.756531
1177.648, 4.339424
1178.130, 4.732780
1178.612, 4.634216
1179.095, 4.348747
1179.577, 4.062096
1180.059, 3.864838
1180.541, 3.822464
1181.023, 3.976494
1181.505, 4.543777
1181.987, 5.427299
1182.469, 6.024628
1182.952, 5.934891
1183.434, 5.547432
1183.916, 4.981049
1184.398, 4.409592
1184.880, 3.655693
1185.362, 3.152901
1185.844, 3.574654
1186.326, 4.505806
1186.808, 4.878426
1187.291, 4.508507
1187.773, 4.300980
1188.255, 4.733635
1188.737, 4.712036
1189.219, 3.630569
1189.701, 2.792686
1190.183, 2.854614
1190.665, 3.248482
1191.147, 3.333939
1191.630, 3.253601
1192.112, 3.669968
1192.594, 4.801674
1193.076, 5.276329
1193.558, 4.967979
1194.040, 4.625175
1194.522, 4.410873
1195.004, 4.168068
1195.487, 3.779358
1195.969, 3.440910
1196.451, 3.419624
1196.933, 3.651756
1197.415, 3.860107
1197.897, 4.098274
1198.379, 5.016014
1198.861, 6.390366
1199.344, 6.480644
1199.826, 4.905777
1200.308, 3.459793
1200.790, 3.376442
1201.272, 3.741974
1201.754, 3.300629
1202.236, 2.740402
1202.718, 3.370613
1203.200, 4.421959
1203.682, 4.333420
1204.165, 3.446648
1204.647, 3.402115
1205.129, 4.566757
1205.611, 5.107201
1206.093, 3.426773
1206.575, 2.099754
1207.057, 2.940872
1207.539, 3.836975
1208.022, 2.800346
1208.504, 1.404121
1208.986, 1.799446
1209.468, 3.583855
1209.950, 4.910057
1210.432, 5.688087
1210.914, 5.498795
1211.396, 3.184380
1211.879, 1.720261
1212.361, 1.856377
1212.843, 2.344147
1213.325, 2.624260
1213.807, 2.867455
1214.289, 3.298393
1214.771, 3.871765
1215.253, 4.484024
1215.735, 5.223473
1216.218, 4.871864
1216.700, 3.297173
1217.182, 2.618851
1217.664, 3.348366
1218.146, 3.997719
1218.628, 3.674881
1219.110, 3.073677
1219.592, 3.150505
1220.074, 3.554062
1220.557, 3.358452
1221.039, 2.839645
1221.521, 2.835487
1222.003, 3.188019
1222.485, 3.171181
1222.967, 2.650391
1223.449, 1.972519
1223.931, 1.252457
1224.414, 0.7908780
1224.896, 0.9556050
1225.378, 1.346909
1225.860, 1.750099
1226.342, 2.055405
1226.824, 2.139977
1227.306, 2.081749
1227.788, 2.133682
1228.271, 2.310356
1228.753, 2.166542
1229.235, 1.334885
1229.717, 0.6808470
1230.199, 0.2418980
1230.681, 0.1172940
1231.163, 0.5573810
1231.645, 1.032890
1232.127, 1.111160
1232.609, 1.006851
1233.092, 1.130249
1233.574, 1.479393
1234.056, 1.936630
1234.538, 2.553139
1235.020, 2.870232
1235.502, 2.851097
1235.984, 2.294464
1236.466, 1.108284
1236.949, 0.1190720
1237.431, 1.3130000E-02
1237.913, 0.3351900
1238.395, 0.8778530
1238.877, 1.278221
1239.359, 0.2446060
1239.841, 1.401459
1240.323, 1.586037
1240.806, 0.4782870
1241.288, 0.6552430
1241.770, 1.399719
1242.252, 1.840813
1242.734, 1.934311
1243.216, 1.991112
1243.698, 2.372765
1244.180, 2.601753
1244.662, 2.231186
1245.145, 1.638321
1245.627, 1.161537
1246.109, 0.8018720
1246.591, 0.3584370
1247.073, 0.2244030
1247.555, 3.6949001E-02
1248.037, 1.831741
1248.519, 2.801804
1249.001, 2.409744
1249.484, 1.791389
1249.966, 1.093590
1250.448, 0.8358310
1250.930, 1.569954
1251.412, 2.682159
1251.894, 2.949547
1252.376, 2.497528
1252.858, 2.303207
1253.341, 2.307747
1253.823, 1.851067
1254.305, 0.9769290
1254.787, 0.4401470
1255.269, 0.4693680
1255.751, 0.8483350
1256.233, 1.479378
1256.715, 2.070557
1257.198, 2.384560
1257.680, 2.471046
1258.162, 2.146362
1258.644, 1.821770
1259.126, 2.285385
1259.608, 3.065544
1260.090, 2.898804
1260.572, 1.770515
1261.054, 1.236572
1261.536, 1.640213
1262.019, 2.155441
1262.501, 1.792000
1262.983, 1.556503
1263.465, 1.997452
1263.947, 2.367783
1264.429, 2.113571
1264.911, 1.580917
1265.393, 1.485382
1265.876, 1.708153
1266.358, 1.373260
1266.840, 0.4158630
1267.322, 0.2175980
1267.804, 0.8280260
1268.286, 1.408432
1268.768, 1.740410
1269.250, 1.830399
1269.733, 1.693031
1270.215, 1.455818
1270.697, 1.130089
1271.179, 0.9928820
1271.661, 1.787361
1272.143, 2.766495
1272.625, 2.664131
1273.107, 2.001968
1273.589, 1.927773
1274.072, 2.412247
1274.554, 2.625351
1275.036, 2.298843
1275.518, 1.846626
1276.000, 0.9838410
1276.482, 0.5553740
1276.964, 1.117592
1277.446, 1.778511
1277.929, 2.169472
1278.411, 2.380043
1278.893, 2.568382
1279.375, 2.580650
1279.857, 1.810791
1280.339, 0.2531510
1280.821, 3.6612999E-02
1281.303, 0.9748000
1281.786, 0.6514740
1282.268, 0.0000000E+00
##END=



