##NAMES=Raydemarkite
##RRUFFID=R210023
##IDEAL CHEMISTRY=Mo^6+^O_3_&#183;H_2_O
##LOCALITY=Cookes Peak, Cookes Range, Luna County, New Mexico, USA
##OWNER=RRUFF
##SOURCE=Ron Gibbs
##DESCRIPTION=Sprays of while acicular crystals, associated with blueish scorodite
##STATUS=The identification of this mineral has been confirmed by X-ray diffraction and chemical analysis
##URL=rruff.info/R210023
##MEASURED CHEMISTRY=MoO_3_Â·H_2_O ;    Based on 4 O atoms. H2O added as the ideal value.
88.13672, 0.0000000E+00
88.61884, 4.468079
89.10095, 10.48621
89.58307, 18.80626
90.06519, 28.13599
90.54730, 37.11867
91.02942, 44.33868
91.51154, 52.30212
91.99365, 64.53629
92.47577, 77.51840
92.95789, 86.96539
93.44000, 92.34161
93.92212, 96.00081
94.40424, 103.0548
94.88635, 118.0596
95.36847, 135.5758
95.85059, 144.6932
96.33270, 140.9746
96.81482, 123.5000
97.29694, 103.9540
97.77905, 86.06151
98.26117, 69.43591
98.74329, 54.09296
99.22540, 39.79904
99.70752, 26.18384
100.1896, 13.15372
100.6718, 0.7611690
101.1539, 11.61105
101.6360, 24.65344
102.1181, 34.54233
102.6002, 41.02939
103.0823, 44.17258
103.5645, 44.25241
104.0466, 42.14594
104.5287, 35.93979
105.0108, 23.45230
105.4929, 3.349854
105.9750, 20.01373
106.4572, 47.11346
106.9393, 78.81995
107.4214, 106.4215
107.9035, 126.3235
108.3856, 144.2757
108.8677, 165.9329
109.3499, 193.2841
109.8320, 222.9753
110.3141, 253.7656
110.7962, 285.1476
111.2783, 321.2941
111.7604, 361.6683
112.2426, 407.6149
112.7247, 460.2833
113.2068, 518.1707
113.6889, 584.3466
114.1710, 658.8523
114.6531, 739.4399
115.1353, 833.1603
115.6174, 937.7847
116.0995, 1057.556
116.5816, 1203.897
117.0637, 1368.881
117.5458, 1568.327
118.0280, 1811.760
118.5101, 2073.852
118.9922, 2417.988
119.4743, 2841.323
119.9564, 3361.293
120.4385, 4046.674
120.9207, 4877.298
121.4028, 5917.863
121.8849, 7241.759
122.3670, 9034.179
122.8491, 11031.97
123.3312, 13404.19
123.8134, 16092.61
124.2955, 17906.71
124.7776, 17539.85
125.2597, 15585.10
125.7418, 13251.11
126.2239, 10588.70
126.7061, 7947.944
127.1882, 5994.616
127.6703, 4738.722
128.1524, 3916.229
128.6345, 3348.651
129.1166, 3013.996
129.5988, 2804.287
130.0809, 2697.425
130.5630, 2682.023
131.0451, 2720.537
131.5272, 2814.781
132.0093, 2957.801
132.4915, 3142.531
132.9736, 3369.606
133.4557, 3639.212
133.9378, 3957.242
134.4199, 4323.181
134.9020, 4708.414
135.3842, 5124.098
135.8663, 5541.761
136.3484, 5937.835
136.8305, 6322.601
137.3126, 6628.969
137.7947, 6821.709
138.2769, 6903.680
138.7590, 6840.649
139.2411, 6608.231
139.7232, 6228.815
140.2053, 5799.639
140.6874, 5298.585
141.1696, 4782.409
141.6517, 4290.576
142.1338, 3812.010
142.6159, 3379.901
143.0980, 2995.353
143.5801, 2660.032
144.0623, 2368.111
144.5444, 2126.365
145.0265, 1921.197
145.5086, 1745.909
145.9907, 1601.077
146.4728, 1479.206
146.9550, 1380.384
147.4371, 1305.825
147.9192, 1242.623
148.4013, 1189.537
148.8834, 1148.576
149.3655, 1121.293
149.8477, 1110.238
150.3298, 1110.305
150.8119, 1120.575
151.2940, 1140.677
151.7761, 1172.099
152.2583, 1213.930
152.7404, 1266.659
153.2225, 1331.480
153.7046, 1409.324
154.1867, 1498.050
154.6688, 1597.216
155.1510, 1708.372
155.6331, 1828.313
156.1152, 1954.743
156.5973, 2089.314
157.0794, 2232.899
157.5615, 2393.132
158.0437, 2558.192
158.5258, 2724.722
159.0079, 2893.698
159.4900, 3059.796
159.9721, 3230.918
160.4542, 3397.874
160.9364, 3544.355
161.4185, 3671.747
161.9006, 3772.560
162.3827, 3841.628
162.8648, 3874.879
163.3469, 3884.164
163.8291, 3862.232
164.3112, 3818.744
164.7933, 3776.070
165.2754, 3724.882
165.7575, 3689.196
166.2396, 3682.606
166.7218, 3695.283
167.2039, 3761.542
167.6860, 3895.000
168.1681, 4096.927
168.6502, 4376.416
169.1323, 4742.967
169.6145, 5184.597
170.0966, 5700.501
170.5787, 6338.991
171.0608, 6977.952
171.5429, 7618.103
172.0250, 8218.198
172.5072, 8560.055
172.9893, 8486.918
173.4714, 8088.418
173.9535, 7464.276
174.4356, 6532.855
174.9177, 5513.922
175.3999, 4588.479
175.8820, 3751.959
176.3641, 3034.952
176.8462, 2460.140
177.3283, 2004.209
177.8104, 1624.268
178.2926, 1324.646
178.7747, 1085.183
179.2568, 886.9299
179.7389, 730.8699
180.2210, 601.7404
180.7031, 495.0581
181.1853, 407.9487
181.6674, 335.9073
182.1495, 280.3447
182.6316, 237.9177
183.1137, 204.7461
183.5958, 180.5684
184.0780, 163.5691
184.5601, 152.7000
185.0422, 147.7100
185.5243, 146.6400
186.0064, 148.2966
186.4885, 153.6859
186.9707, 165.5612
187.4528, 184.1577
187.9349, 207.9437
188.4170, 235.4276
188.8991, 266.7212
189.3812, 302.5703
189.8634, 344.6021
190.3455, 391.5691
190.8276, 438.0006
191.3097, 483.5040
191.7918, 532.9708
192.2739, 591.5015
192.7561, 659.8469
193.2382, 735.0330
193.7203, 816.4646
194.2024, 903.9211
194.6845, 999.8870
195.1666, 1104.504
195.6488, 1215.149
196.1309, 1327.859
196.6130, 1443.837
197.0951, 1565.035
197.5772, 1694.345
198.0593, 1831.030
198.5415, 1969.474
199.0236, 2111.351
199.5057, 2249.780
199.9878, 2374.405
200.4699, 2484.981
200.9520, 2585.229
201.4342, 2676.358
201.9163, 2758.825
202.3984, 2826.860
202.8805, 2879.775
203.3626, 2920.140
203.8447, 2950.317
204.3269, 2969.638
204.8090, 2981.935
205.2911, 2984.797
205.7732, 2977.707
206.2553, 2981.397
206.7374, 2996.567
207.2196, 3021.152
207.7017, 3051.062
208.1838, 3083.985
208.6659, 3130.281
209.1480, 3194.168
209.6301, 3276.985
210.1123, 3365.267
210.5944, 3458.719
211.0765, 3559.237
211.5586, 3669.329
212.0407, 3789.174
212.5228, 3918.696
213.0050, 4061.570
213.4871, 4220.106
213.9692, 4363.638
214.4513, 4493.158
214.9334, 4606.683
215.4155, 4705.247
215.8977, 4793.950
216.3798, 4854.818
216.8619, 4882.419
217.3440, 4876.695
217.8261, 4840.629
218.3082, 4775.142
218.7904, 4679.325
219.2725, 4548.649
219.7546, 4375.390
220.2367, 4187.065
220.7188, 3991.424
221.2009, 3785.410
221.6831, 3579.116
222.1652, 3370.272
222.6473, 3163.335
223.1294, 2967.706
223.6115, 2779.564
224.0936, 2606.739
224.5758, 2449.812
225.0579, 2310.173
225.5400, 2181.546
226.0221, 2063.203
226.5042, 1956.326
226.9863, 1865.344
227.4685, 1792.642
227.9506, 1729.240
228.4327, 1672.612
228.9148, 1621.598
229.3969, 1581.241
229.8790, 1551.264
230.3612, 1531.934
230.8433, 1524.268
231.3254, 1531.176
231.8075, 1544.298
232.2896, 1561.331
232.7717, 1581.797
233.2539, 1610.041
233.7360, 1646.674
234.2181, 1690.148
234.7002, 1738.799
235.1823, 1790.771
235.6644, 1850.631
236.1466, 1918.469
236.6287, 1993.566
237.1108, 2082.958
237.5929, 2187.026
238.0750, 2303.489
238.5571, 2428.772
239.0393, 2557.990
239.5214, 2705.108
240.0035, 2871.485
240.4856, 3058.534
240.9677, 3266.639
241.4498, 3496.197
241.9320, 3746.537
242.4141, 4019.875
242.8962, 4316.832
243.3783, 4636.060
243.8604, 4981.640
244.3425, 5353.429
244.8247, 5728.996
245.3068, 6124.686
245.7889, 6506.307
246.2710, 6856.173
246.7531, 7202.207
247.2352, 7462.628
247.7174, 7637.449
248.1995, 7723.169
248.6816, 7667.395
249.1637, 7449.334
249.6458, 7113.727
250.1279, 6689.778
250.6101, 6139.100
251.0922, 5574.013
251.5743, 4999.723
252.0564, 4420.330
252.5385, 3889.578
253.0206, 3407.118
253.5028, 2969.794
253.9849, 2586.249
254.4670, 2257.379
254.9491, 1967.376
255.4312, 1717.594
255.9133, 1506.995
256.3955, 1319.197
256.8776, 1155.772
257.3597, 1011.753
257.8418, 884.8867
258.3239, 775.8152
258.8061, 679.3900
259.2882, 596.0128
259.7703, 524.0350
260.2524, 459.5860
260.7345, 403.2776
261.2166, 352.3534
261.6988, 304.3448
262.1809, 259.8813
262.6630, 219.6605
263.1451, 184.3986
263.6272, 153.3566
264.1093, 126.1161
264.5915, 103.1592
265.0736, 82.28943
265.5557, 61.75708
266.0378, 41.41040
266.5199, 24.17334
267.0020, 10.92816
267.4842, 0.3081670
267.9663, 10.13892
268.4484, 20.68756
268.9305, 30.20740
269.4126, 37.87799
269.8947, 43.64362
270.3769, 48.95190
270.8590, 53.64203
271.3411, 58.23248
271.8232, 63.75885
272.3053, 70.81836
272.7874, 76.52899
273.2696, 79.62805
273.7517, 79.95630
274.2338, 80.54175
274.7159, 81.59747
275.1980, 82.58606
275.6801, 82.57263
276.1623, 81.42444
276.6444, 80.06638
277.1265, 78.88965
277.6086, 77.88461
278.0907, 75.84454
278.5728, 72.54349
279.0550, 68.88977
279.5371, 65.89670
280.0192, 63.59204
280.5013, 61.35605
280.9834, 59.23825
281.4655, 57.03879
281.9477, 53.60849
282.4298, 48.79153
282.9119, 43.47601
283.3940, 38.42218
283.8761, 33.61569
284.3582, 28.78406
284.8404, 23.95697
285.3225, 19.04898
285.8046, 13.88922
286.2867, 8.509125
286.7688, 2.571289
287.2509, 4.410950
287.7331, 12.32568
288.2152, 20.15207
288.6973, 27.63431
289.1794, 35.05173
289.6615, 43.38022
290.1436, 52.62689
290.6258, 61.09970
291.1079, 66.70856
291.5900, 70.36035
292.0721, 76.33746
292.5542, 85.70578
293.0363, 96.14999
293.5185, 103.6033
294.0006, 108.4199
294.4827, 113.7915
294.9648, 122.4828
295.4469, 133.1157
295.9290, 141.7351
296.4112, 147.8762
296.8933, 153.1510
297.3754, 159.2867
297.8575, 166.1205
298.3396, 173.1223
298.8217, 180.7240
299.3039, 188.1685
299.7860, 193.9418
300.2681, 197.9727
300.7502, 201.0926
301.2323, 203.9503
301.7144, 206.4942
302.1966, 208.6556
302.6787, 209.8397
303.1608, 210.9599
303.6429, 213.6579
304.1250, 217.8321
304.6071, 221.2456
305.0893, 221.7912
305.5714, 220.4588
306.0535, 218.8753
306.5356, 217.0182
307.0177, 215.6123
307.4998, 215.8818
307.9820, 217.4748
308.4641, 218.7054
308.9462, 218.4893
309.4283, 217.3471
309.9104, 215.7280
310.3925, 213.2840
310.8747, 211.2949
311.3568, 211.2702
311.8389, 212.5514
312.3210, 213.3171
312.8031, 211.7108
313.2852, 209.7766
313.7674, 209.2687
314.2495, 211.0378
314.7316, 212.6048
315.2137, 212.3416
315.6958, 211.1208
316.1779, 210.4320
316.6601, 211.0509
317.1422, 212.1748
317.6243, 213.4661
318.1064, 214.9172
318.5885, 216.4597
319.0706, 218.1121
319.5528, 219.8327
320.0349, 221.5738
320.5170, 223.4866
320.9991, 225.2629
321.4812, 226.4148
321.9633, 226.9244
322.4455, 228.5386
322.9276, 232.6812
323.4097, 237.4577
323.8918, 241.4490
324.3739, 243.9685
324.8560, 246.2227
325.3382, 247.9026
325.8203, 248.9967
326.3024, 250.6324
326.7845, 254.7992
327.2666, 258.0446
327.7487, 258.6913
328.2309, 253.9301
328.7130, 250.4251
329.1951, 249.3151
329.6772, 249.3759
330.1593, 247.5016
330.6414, 242.2528
331.1236, 237.0736
331.6057, 233.6432
332.0878, 233.4862
332.5699, 230.2804
333.0520, 222.8475
333.5341, 213.2128
334.0163, 204.1853
334.4984, 195.9211
334.9805, 188.0881
335.4626, 180.8380
335.9447, 174.2901
336.4268, 166.8421
336.9090, 158.3625
337.3911, 149.1613
337.8732, 139.1746
338.3553, 127.8310
338.8374, 118.1655
339.3195, 111.2514
339.8017, 106.4220
340.2838, 100.0538
340.7659, 91.73640
341.2480, 83.39929
341.7301, 76.31078
342.2122, 70.52042
342.6944, 65.25754
343.1765, 60.56223
343.6586, 56.21255
344.1407, 51.68494
344.6228, 47.01492
345.1049, 42.82922
345.5871, 39.33002
346.0692, 36.51498
346.5513, 34.92023
347.0334, 34.69946
347.5155, 34.91824
347.9977, 34.44812
348.4798, 33.32019
348.9619, 31.86481
349.4440, 29.74246
349.9261, 27.55472
350.4082, 26.53842
350.8904, 26.67224
351.3725, 27.35776
351.8546, 28.43597
352.3367, 29.64938
352.8188, 30.48972
353.3009, 30.80670
353.7831, 30.68726
354.2652, 29.50995
354.7473, 27.68369
355.2294, 27.09250
355.7115, 29.99808
356.1936, 34.28354
356.6758, 37.68903
357.1579, 39.77164
357.6400, 41.17459
358.1221, 41.84064
358.6042, 42.18115
359.0863, 43.01447
359.5685, 45.65994
360.0506, 48.21237
360.5327, 49.26840
361.0148, 48.55493
361.4969, 47.92590
361.9790, 47.76352
362.4612, 48.23511
362.9433, 49.51035
363.4254, 52.69736
363.9075, 55.63388
364.3896, 57.30499
364.8717, 57.84729
365.3539, 59.03360
365.8360, 62.07205
366.3181, 65.28751
366.8002, 67.71069
367.2823, 67.94910
367.7644, 69.02219
368.2466, 71.41776
368.7287, 74.81500
369.2108, 78.25986
369.6929, 82.18683
370.1750, 85.74899
370.6571, 88.54877
371.1393, 90.32053
371.6214, 92.31775
372.1035, 94.59256
372.5856, 97.10233
373.0677, 99.65952
373.5498, 101.9395
374.0320, 105.0090
374.5141, 109.2292
374.9962, 114.5439
375.4783, 120.2442
375.9604, 126.4980
376.4425, 132.5249
376.9247, 137.2760
377.4068, 140.3448
377.8889, 145.1416
378.3710, 152.5984
378.8531, 161.6078
379.3352, 169.0537
379.8174, 174.5662
380.2995, 181.0293
380.7816, 190.3736
381.2637, 202.3347
381.7458, 214.2706
382.2279, 226.1182
382.7101, 238.4073
383.1922, 251.9231
383.6743, 266.6629
384.1564, 282.0907
384.6385, 297.7526
385.1206, 314.3120
385.6028, 333.3207
386.0849, 354.7010
386.5670, 377.0304
387.0491, 398.7889
387.5312, 421.0666
388.0133, 445.7743
388.4955, 473.4265
388.9776, 503.5477
389.4597, 535.5353
389.9418, 569.3555
390.4239, 604.9787
390.9060, 640.7957
391.3882, 679.4357
391.8703, 722.6787
392.3524, 771.2086
392.8345, 824.0419
393.3166, 879.2406
393.7987, 939.2378
394.2809, 1006.279
394.7630, 1082.371
395.2451, 1164.555
395.7272, 1251.998
396.2093, 1344.521
396.6914, 1445.149
397.1736, 1559.206
397.6557, 1678.508
398.1378, 1798.588
398.6199, 1922.583
399.1020, 2040.926
399.5841, 2160.044
400.0663, 2273.145
400.5484, 2364.824
401.0305, 2442.668
401.5126, 2489.632
401.9947, 2500.593
402.4768, 2475.394
402.9590, 2413.402
403.4411, 2306.753
403.9232, 2172.371
404.4053, 2025.971
404.8874, 1863.235
405.3695, 1701.301
405.8517, 1539.113
406.3338, 1380.518
406.8159, 1235.408
407.2980, 1103.803
407.7801, 984.9883
408.2622, 880.6075
408.7444, 789.9352
409.2265, 710.2732
409.7086, 642.0267
410.1907, 582.4096
410.6728, 527.3690
411.1549, 476.7446
411.6371, 431.1051
412.1192, 391.6696
412.6013, 357.4576
413.0834, 327.6550
413.5655, 302.4642
414.0476, 279.5850
414.5298, 257.2606
415.0119, 235.7637
415.4940, 214.9812
415.9761, 194.5314
416.4582, 175.6742
416.9403, 159.8680
417.4225, 146.7523
417.9046, 135.3425
418.3867, 126.6848
418.8688, 118.7063
419.3509, 109.9748
419.8330, 99.98886
420.3152, 90.68164
420.7973, 82.62878
421.2794, 75.66245
421.7615, 69.52173
422.2436, 65.06805
422.7257, 60.46045
423.2079, 55.00504
423.6900, 48.80557
424.1721, 43.05365
424.6542, 37.57394
425.1363, 32.71643
425.6184, 28.63898
426.1006, 25.95465
426.5827, 23.03171
427.0648, 19.57211
427.5469, 15.99112
428.0290, 13.21167
428.5111, 11.67923
428.9933, 9.908142
429.4754, 7.090118
429.9575, 3.292419
430.4396, 1.787354
430.9217, 3.302032
431.4038, 4.954987
431.8860, 3.666840
432.3681, 0.5997010
432.8502, 3.704346
433.3323, 4.855621
433.8144, 4.792511
434.2965, 4.556580
434.7787, 4.205719
435.2608, 4.476593
435.7429, 6.672546
436.2250, 9.647980
436.7071, 10.48950
437.1892, 8.976624
437.6714, 7.099487
438.1535, 6.627563
438.6356, 7.095551
439.1177, 7.755829
439.5998, 8.768127
440.0819, 9.415009
440.5641, 8.829803
441.0462, 7.306793
441.5283, 5.902161
442.0104, 5.285950
442.4925, 4.894165
442.9746, 4.311340
443.4568, 3.374969
443.9389, 2.660339
444.4210, 2.378723
444.9031, 2.414886
445.3852, 2.632233
445.8673, 4.466217
446.3495, 4.937927
446.8316, 2.781555
447.3137, 1.789856
447.7958, 5.500549
448.2779, 8.048279
448.7600, 9.993164
449.2422, 11.46860
449.7243, 11.88757
450.2064, 13.35959
450.6885, 16.38342
451.1706, 20.04089
451.6527, 22.60641
452.1349, 23.71631
452.6170, 25.38904
453.0991, 28.28061
453.5812, 32.27682
454.0633, 36.29883
454.5454, 40.31845
455.0276, 44.93594
455.5097, 50.84189
455.9918, 57.84363
456.4739, 64.81793
456.9560, 71.79462
457.4381, 78.36090
457.9203, 82.96915
458.4024, 86.49115
458.8845, 91.84552
459.3666, 101.3046
459.8488, 112.7999
460.3309, 124.4219
460.8130, 136.0234
461.2951, 147.0188
461.7772, 154.8616
462.2593, 162.7336
462.7415, 173.7873
463.2236, 190.2780
463.7057, 207.2590
464.1878, 222.3170
464.6699, 236.3871
465.1520, 251.5842
465.6342, 268.1399
466.1163, 285.7791
466.5984, 304.4211
467.0805, 323.9018
467.5626, 345.1904
468.0447, 368.4408
468.5269, 393.2200
469.0090, 419.5235
469.4911, 447.3504
469.9732, 476.4634
470.4553, 506.7970
470.9374, 538.4798
471.4196, 572.7365
471.9017, 609.9926
472.3838, 647.5685
472.8659, 684.0674
473.3480, 719.9044
473.8301, 757.9389
474.3123, 798.5975
474.7944, 839.8189
475.2765, 879.7600
475.7586, 918.6415
476.2407, 957.8115
476.7228, 998.3436
477.2050, 1037.606
477.6871, 1071.389
478.1692, 1100.557
478.6513, 1127.358
479.1334, 1154.622
479.6155, 1179.046
480.0977, 1197.534
480.5798, 1209.971
481.0619, 1217.480
481.5440, 1219.629
482.0261, 1217.639
482.5082, 1212.611
482.9904, 1205.014
483.4725, 1193.927
483.9546, 1177.857
484.4367, 1158.199
484.9188, 1138.151
485.4009, 1120.438
485.8831, 1099.916
486.3652, 1073.908
486.8473, 1042.125
487.3294, 1012.437
487.8115, 985.0967
488.2936, 959.5241
488.7758, 935.3375
489.2579, 912.9777
489.7400, 889.5118
490.2221, 864.4438
490.7042, 838.7169
491.1863, 814.5867
491.6685, 791.9070
492.1506, 769.7672
492.6327, 747.9688
493.1148, 726.5622
493.5969, 706.7646
494.0790, 688.1772
494.5612, 669.9255
495.0433, 651.0375
495.5254, 632.0183
496.0075, 613.1724
496.4896, 594.5690
496.9717, 576.4572
497.4539, 559.7623
497.9360, 544.1031
498.4181, 529.1472
498.9002, 514.0692
499.3823, 499.7381
499.8644, 487.4031
500.3466, 476.6508
500.8287, 464.5897
501.3108, 449.5014
501.7929, 433.6883
502.2750, 418.3433
502.7571, 402.8349
503.2393, 388.6878
503.7214, 376.9646
504.2035, 366.2595
504.6856, 354.4682
505.1677, 340.9246
505.6498, 327.2356
506.1320, 313.4624
506.6141, 299.8404
507.0962, 287.9769
507.5783, 278.1068
508.0604, 268.4727
508.5425, 258.1620
509.0247, 247.2649
509.5068, 235.8911
509.9889, 223.8569
510.4710, 212.1866
510.9531, 202.2752
511.4352, 193.7328
511.9174, 185.3660
512.3995, 176.6719
512.8816, 168.1295
513.3637, 159.9947
513.8458, 152.3317
514.3279, 145.3414
514.8101, 139.7024
515.2922, 134.4231
515.7743, 128.5439
516.2564, 121.8353
516.7385, 115.9357
517.2206, 112.3940
517.7028, 109.4111
518.1849, 105.5712
518.6670, 99.37973
519.1491, 94.05869
519.6312, 89.95978
520.1133, 86.69174
520.5955, 83.38770
521.0776, 79.83295
521.5597, 76.75131
522.0418, 74.63910
522.5239, 73.48105
523.0060, 71.52383
523.4882, 68.35660
523.9703, 65.23300
524.4524, 63.62268
524.9345, 63.32535
525.4166, 61.73621
525.8987, 58.35983
526.3809, 54.38464
526.8630, 50.92090
527.3451, 48.02429
527.8272, 45.95352
528.3093, 45.59396
528.7914, 45.41510
529.2736, 43.66708
529.7557, 40.63074
530.2378, 37.60516
530.7199, 34.91351
531.2020, 32.71103
531.6841, 31.31146
532.1663, 30.97235
532.6484, 30.31662
533.1305, 28.64355
533.6126, 26.65540
534.0947, 24.99756
534.5768, 23.75580
535.0590, 22.81805
535.5411, 22.31454
536.0232, 22.08282
536.5053, 21.70773
536.9874, 21.20233
537.4695, 20.49875
537.9517, 19.58786
538.4338, 18.45673
538.9159, 16.80914
539.3980, 14.50211
539.8801, 12.53528
540.3622, 12.23828
540.8444, 13.11615
541.3265, 13.12262
541.8086, 11.89380
542.2907, 10.13046
542.7728, 8.311249
543.2549, 6.572449
543.7371, 5.232452
544.2192, 4.543365
544.7013, 4.202362
545.1834, 3.892059
545.6655, 3.720428
546.1476, 4.102142
546.6298, 6.491180
547.1119, 8.452942
547.5940, 8.372955
548.0761, 5.365265
548.5582, 3.319794
549.0403, 3.513275
549.5225, 4.108551
550.0046, 3.507294
550.4867, 0.7202450
550.9688, 1.075500
551.4509, 1.369202
551.9330, 0.7172550
552.4152, 0.2929990
552.8973, 0.1179200
553.3794, 4.7210999E-02
553.8615, 0.5161440
554.3436, 0.9888610
554.8257, 1.1414000E-02
555.3079, 2.372284
555.7900, 4.363129
556.2721, 4.363007
556.7542, 3.146149
557.2363, 1.713837
557.7184, 6.3079998E-02
558.2006, 0.9263920
558.6827, 2.8076001E-02
559.1648, 1.821838
559.6469, 3.053711
560.1290, 2.540222
560.6111, 2.187012
561.0933, 3.050751
561.5754, 4.570221
562.0575, 5.210938
562.5396, 3.358765
563.0217, 2.075317
563.5038, 2.493164
563.9860, 4.710297
564.4681, 5.795441
564.9502, 5.238983
565.4323, 4.500702
565.9144, 4.723846
566.3965, 5.983490
566.8787, 6.943024
567.3608, 7.486755
567.8429, 7.825378
568.3250, 8.319305
568.8071, 8.890228
569.2892, 9.196350
569.7714, 9.035553
570.2535, 8.691620
570.7356, 8.413025
571.2177, 8.231201
571.6998, 8.325287
572.1819, 9.177490
572.6641, 10.01028
573.1462, 10.23901
573.6283, 9.814789
574.1104, 9.344849
574.5925, 8.578827
575.0746, 8.113007
575.5568, 8.408020
576.0389, 10.55319
576.5210, 11.53189
577.0031, 10.88324
577.4852, 9.389801
577.9673, 7.831421
578.4495, 5.775543
578.9316, 5.317322
579.4137, 7.685547
579.8958, 11.27380
580.3779, 11.23462
580.8600, 7.596558
581.3422, 4.066345
581.8243, 3.196960
582.3064, 3.691956
582.7885, 2.867065
583.2706, 0.7059330
583.7527, 1.935699
584.2349, 4.759216
584.7170, 7.596344
585.1991, 10.29147
585.6812, 12.90607
586.1633, 15.18600
586.6454, 16.55331
587.1276, 17.70609
587.6097, 19.45984
588.0918, 22.97870
588.5739, 25.86407
589.0560, 26.86218
589.5381, 27.08954
590.0203, 30.27264
590.5024, 38.38635
590.9845, 45.00604
591.4666, 47.15240
591.9487, 45.47333
592.4308, 45.29886
592.9130, 46.59259
593.3951, 49.76901
593.8772, 56.48721
594.3593, 65.31757
594.8414, 71.60123
595.3235, 74.51767
595.8057, 77.16394
596.2878, 82.48346
596.7699, 89.33789
597.2520, 95.97144
597.7341, 102.2312
598.2162, 107.7733
598.6984, 111.4742
599.1805, 114.3535
599.6626, 118.8146
600.1447, 127.4619
600.6268, 135.5191
601.1089, 141.6918
601.5911, 146.1342
602.0732, 149.6699
602.5553, 151.1642
603.0374, 153.8469
603.5195, 160.0742
604.0016, 170.0515
604.4838, 177.7957
604.9659, 182.8684
605.4480, 187.1509
605.9301, 192.3893
606.4122, 198.3640
606.8943, 204.3985
607.3765, 210.2848
607.8586, 216.3354
608.3407, 223.6134
608.8228, 231.0802
609.3049, 236.6581
609.7870, 238.1352
610.2692, 239.0590
610.7513, 240.6408
611.2334, 242.9370
611.7155, 246.1026
612.1976, 251.7932
612.6797, 256.6725
613.1619, 259.3671
613.6440, 259.8169
614.1261, 260.6499
614.6082, 262.1613
615.0903, 263.7919
615.5724, 265.4207
616.0546, 267.0124
616.5367, 267.3410
617.0188, 266.1609
617.5009, 264.2619
617.9830, 262.6252
618.4651, 261.0842
618.9473, 259.0220
619.4294, 256.0229
619.9115, 253.0109
620.3936, 251.4213
620.8757, 250.4864
621.3578, 248.6074
621.8400, 243.7659
622.3221, 239.1026
622.8042, 236.5667
623.2863, 235.7512
623.7684, 233.7057
624.2505, 228.9944
624.7327, 224.1867
625.2148, 220.3713
625.6969, 217.7166
626.1790, 214.1152
626.6611, 209.4975
627.1432, 204.1600
627.6254, 197.7473
628.1075, 190.4896
628.5896, 185.0709
629.0717, 181.9020
629.5538, 179.8076
630.0359, 178.5911
630.5181, 177.3516
631.0002, 173.9243
631.4823, 166.0997
631.9644, 158.6903
632.4465, 155.6773
632.9286, 155.4431
633.4108, 154.7847
633.8929, 151.8847
634.3750, 149.1433
634.8571, 147.5599
635.3392, 146.9786
635.8214, 145.9999
636.3035, 144.6337
636.7856, 142.7166
637.2677, 139.6434
637.7498, 135.3557
638.2319, 133.3977
638.7141, 134.2989
639.1962, 135.3907
639.6783, 133.8665
640.1604, 130.6125
640.6425, 128.9063
641.1246, 129.2427
641.6068, 130.1531
642.0889, 130.7869
642.5710, 131.0081
643.0531, 130.4285
643.5352, 127.6553
644.0173, 126.2470
644.4995, 128.2088
644.9816, 132.3743
645.4637, 136.7698
645.9458, 142.3126
646.4279, 146.3970
646.9100, 147.9132
647.3922, 147.6218
647.8743, 148.3782
648.3564, 150.1209
648.8385, 153.1124
649.3206, 157.7140
649.8027, 163.7012
650.2849, 170.1134
650.7670, 176.9265
651.2491, 182.7445
651.7312, 184.9813
652.2133, 186.1216
652.6954, 190.0934
653.1776, 197.4827
653.6597, 205.2952
654.1418, 212.1878
654.6239, 218.6097
655.1060, 224.8950
655.5881, 230.3868
656.0703, 237.0337
656.5524, 245.4246
657.0345, 254.9193
657.5166, 264.7859
657.9987, 275.2451
658.4808, 285.3769
658.9630, 294.7089
659.4451, 304.0950
659.9272, 316.2226
660.4093, 330.9558
660.8914, 344.4936
661.3735, 354.4653
661.8557, 363.1044
662.3378, 373.4992
662.8199, 385.7657
663.3020, 400.3414
663.7841, 420.3174
664.2662, 440.5316
664.7484, 456.4241
665.2305, 467.6627
665.7126, 481.2550
666.1947, 498.6140
666.6768, 519.1477
667.1589, 542.7676
667.6411, 570.2529
668.1232, 597.6227
668.6053, 625.0173
669.0874, 652.0940
669.5695, 677.8640
670.0516, 702.4813
670.5338, 729.1053
671.0159, 757.9454
671.4980, 789.3618
671.9801, 823.3423
672.4622, 860.1254
672.9443, 899.3978
673.4265, 941.5298
673.9086, 986.0291
674.3907, 1031.380
674.8728, 1079.646
675.3549, 1133.923
675.8370, 1199.042
676.3192, 1267.090
676.8013, 1333.391
677.2834, 1400.295
677.7655, 1474.939
678.2476, 1556.653
678.7297, 1646.506
679.2119, 1744.049
679.6940, 1849.534
680.1761, 1962.098
680.6582, 2081.258
681.1403, 2209.596
681.6224, 2348.378
682.1046, 2497.925
682.5867, 2655.328
683.0688, 2821.701
683.5509, 2997.629
684.0330, 3186.038
684.5151, 3384.746
684.9973, 3593.037
685.4794, 3810.727
685.9615, 4042.793
686.4436, 4300.164
686.9257, 4568.322
687.4078, 4835.833
687.8900, 5104.233
688.3721, 5377.566
688.8542, 5656.483
689.3363, 5934.155
689.8184, 6200.351
690.3005, 6452.378
690.7827, 6678.369
691.2648, 6878.860
691.7469, 7041.035
692.2290, 7154.583
692.7111, 7216.351
693.1932, 7214.640
693.6754, 7134.956
694.1575, 6999.885
694.6396, 6811.707
695.1217, 6576.382
695.6038, 6308.379
696.0859, 6000.744
696.5681, 5675.912
697.0502, 5333.961
697.5323, 4977.459
698.0144, 4629.233
698.4965, 4287.368
698.9786, 3962.799
699.4608, 3662.516
699.9429, 3383.760
700.4250, 3121.932
700.9071, 2875.825
701.3892, 2647.050
701.8713, 2437.135
702.3535, 2245.163
702.8356, 2071.383
703.3177, 1915.844
703.7998, 1772.997
704.2819, 1639.076
704.7640, 1516.175
705.2462, 1406.593
705.7283, 1315.105
706.2104, 1227.894
706.6925, 1144.394
707.1746, 1065.544
707.6567, 992.5029
708.1389, 925.7419
708.6210, 863.7956
709.1031, 806.1735
709.5852, 752.8521
710.0673, 704.0323
710.5494, 659.7177
711.0316, 618.7134
711.5137, 582.1734
711.9958, 547.3201
712.4779, 510.7943
712.9600, 474.5372
713.4421, 442.7103
713.9243, 418.3766
714.4064, 395.8166
714.8885, 374.4637
715.3706, 353.8841
715.8527, 333.2890
716.3348, 312.3932
716.8170, 292.9363
717.2991, 275.7849
717.7812, 260.2576
718.2633, 245.3879
718.7454, 231.0336
719.2275, 217.3079
719.7097, 203.4002
720.1918, 190.1801
720.6739, 178.5559
721.1560, 168.5928
721.6381, 159.2370
722.1202, 150.5212
722.6024, 141.9122
723.0845, 132.7696
723.5666, 122.7831
724.0487, 114.9201
724.5308, 110.5357
725.0129, 106.1390
725.4951, 99.16968
725.9772, 89.39490
726.4593, 81.36130
726.9414, 75.24210
727.4235, 70.14722
727.9056, 65.76141
728.3878, 61.50418
728.8699, 56.01645
729.3520, 48.76105
729.8341, 42.56302
730.3162, 40.42108
730.7983, 39.64844
731.2805, 37.51880
731.7626, 32.44785
732.2447, 27.80008
732.7268, 23.56952
733.2089, 20.07718
733.6910, 17.96466
734.1732, 17.68036
734.6553, 16.35391
735.1374, 13.31082
735.6195, 10.03388
736.1016, 9.445892
736.5837, 10.54758
737.0659, 9.818298
737.5480, 5.223480
738.0301, 0.3983460
738.5122, 1.041382
738.9943, 0.6229550
739.4764, 0.8640750
739.9586, 3.820343
740.4407, 5.949158
740.9228, 5.419830
741.4049, 3.747009
741.8870, 4.384521
742.3691, 8.273926
742.8513, 11.13867
743.3334, 11.55933
743.8155, 10.62268
744.2976, 11.36810
744.7797, 13.56180
745.2618, 15.20847
745.7440, 14.90686
746.2261, 13.84012
746.7082, 13.30212
747.1903, 13.20901
747.6724, 13.07181
748.1545, 12.81223
748.6367, 12.30569
749.1188, 11.17355
749.6009, 9.563538
750.0830, 9.114868
750.5651, 10.41098
751.0472, 11.60678
751.5294, 11.87231
752.0115, 11.40176
752.4936, 11.19534
752.9757, 11.21875
753.4578, 11.18039
753.9399, 11.20682
754.4221, 10.89020
754.9042, 9.245972
755.3863, 6.331818
755.8684, 3.893188
756.3505, 2.778503
756.8326, 2.417664
757.3148, 2.821808
757.7969, 4.319946
758.2790, 4.326355
758.7611, 1.919769
759.2432, 0.4951780
759.7253, 1.209167
760.2075, 0.2123410
760.6896, 0.3540950
761.1717, 0.4856870
761.6538, 5.4901000E-02
762.1359, 1.756241
762.6180, 3.885147
763.1002, 4.219421
763.5823, 2.268799
764.0644, 1.118027
764.5465, 3.510330
765.0286, 6.651688
765.5107, 8.175949
765.9929, 7.015793
766.4750, 6.264847
766.9571, 6.015198
767.4392, 6.057556
767.9213, 6.207184
768.4034, 6.456772
768.8856, 6.689178
769.3677, 6.929550
769.8498, 7.105911
770.3319, 6.978302
770.8140, 6.760040
771.2961, 6.822754
771.7783, 7.268478
772.2604, 7.949097
772.7425, 9.305893
773.2246, 10.58461
773.7067, 10.96123
774.1888, 8.725693
774.6710, 8.390747
775.1531, 11.06030
775.6352, 14.34175
776.1173, 14.95905
776.5994, 12.91852
777.0815, 11.86238
777.5637, 12.49294
778.0458, 13.48492
778.5279, 13.00772
779.0100, 11.80499
779.4921, 11.20482
779.9742, 11.68842
780.4564, 12.65184
780.9385, 14.36601
781.4206, 16.21452
781.9027, 17.27727
782.3848, 16.98288
782.8669, 16.91685
783.3491, 17.44885
783.8312, 17.95145
784.3133, 16.95299
784.7954, 14.59703
785.2775, 13.68770
785.7596, 15.23279
786.2418, 17.50703
786.7239, 18.76414
787.2060, 19.16809
787.6881, 18.97232
788.1702, 17.47667
788.6523, 16.51115
789.1345, 17.04744
789.6166, 18.44505
790.0987, 19.60985
790.5808, 20.60660
791.0629, 21.18819
791.5450, 21.29924
792.0272, 21.01595
792.5093, 20.15883
792.9914, 18.87498
793.4735, 18.56056
793.9556, 19.95966
794.4377, 21.76395
794.9199, 22.47066
795.4020, 22.56236
795.8841, 22.92818
796.3662, 24.60149
796.8483, 25.68877
797.3304, 24.79517
797.8126, 23.19713
798.2947, 23.44058
798.7768, 26.66425
799.2589, 28.33466
799.7410, 27.01727
800.2231, 24.43506
800.7053, 24.13710
801.1874, 25.72627
801.6695, 27.29721
802.1516, 28.35370
802.6337, 28.63696
803.1158, 27.24997
803.5980, 25.26562
804.0801, 24.38460
804.5622, 26.35164
805.0443, 27.81255
805.5264, 28.04787
806.0085, 27.58356
806.4907, 27.48564
806.9728, 27.92999
807.4549, 27.59068
807.9370, 25.68198
808.4191, 23.61342
808.9012, 24.45854
809.3834, 27.15067
809.8655, 28.69450
810.3476, 27.22638
810.8297, 25.40202
811.3118, 24.93091
811.7939, 25.16524
812.2761, 25.02802
812.7582, 24.12755
813.2403, 23.40173
813.7224, 22.83438
814.2045, 22.50967
814.6866, 22.68396
815.1688, 23.26102
815.6509, 23.72897
816.1330, 24.04147
816.6151, 24.41393
817.0972, 25.27029
817.5793, 26.09837
818.0615, 26.00832
818.5436, 23.86510
819.0257, 22.11128
819.5078, 21.82281
819.9899, 22.45947
820.4720, 23.07059
820.9542, 23.56226
821.4363, 23.78812
821.9184, 23.75687
822.4005, 23.71692
822.8826, 23.93353
823.3647, 24.18961
823.8469, 23.60297
824.3290, 21.52809
824.8111, 19.84908
825.2932, 20.81221
825.7753, 22.95598
826.2574, 24.24622
826.7396, 23.46646
827.2217, 22.89365
827.7038, 23.05040
828.1859, 23.25172
828.6681, 22.51201
829.1502, 20.66679
829.6323, 19.51959
830.1144, 19.38458
830.5966, 19.76016
831.0787, 20.05345
831.5608, 20.32674
832.0429, 20.83823
832.5250, 22.05235
833.0071, 22.65305
833.4893, 20.92061
833.9714, 18.64944
834.4535, 17.84586
834.9356, 19.89365
835.4177, 20.61525
835.8998, 19.51291
836.3820, 17.96687
836.8641, 17.83031
837.3462, 18.76637
837.8283, 18.04292
838.3104, 15.17926
838.7925, 12.53648
839.2747, 12.34386
839.7568, 13.34308
840.2389, 14.19029
840.7210, 14.65166
841.2031, 15.02061
841.6852, 15.43765
842.1674, 15.63120
842.6495, 15.39310
843.1316, 14.73471
843.6137, 13.85426
844.0958, 12.70137
844.5779, 11.68697
845.0601, 11.37836
845.5422, 11.38087
846.0243, 10.87062
846.5064, 9.794617
846.9885, 8.914322
847.4706, 8.959503
847.9528, 9.093857
848.4349, 8.662460
848.9170, 7.518372
849.3991, 6.915924
849.8812, 7.077240
850.3633, 7.213959
850.8455, 6.820892
851.3276, 6.014862
851.8097, 5.358749
852.2918, 4.839142
852.7739, 4.177734
853.2560, 2.717239
853.7382, 1.395248
854.2203, 1.280243
854.7024, 2.260483
855.1845, 2.678543
855.6666, 1.747559
856.1487, 0.7559970
856.6309, 9.3902998E-02
857.1130, 0.2879790
857.5951, 0.4298860
858.0772, 0.3442990
858.5593, 0.2950900
859.0414, 0.3538210
859.5236, 0.5115200
860.0057, 0.7874910
860.4878, 1.178406
860.9699, 1.675049
861.4520, 2.301285
861.9341, 2.994095
862.4163, 3.826859
862.8984, 4.662628
863.3805, 5.109299
863.8626, 5.118286
864.3447, 4.936981
864.8268, 4.516846
865.3090, 4.117264
865.7911, 4.547211
866.2732, 5.446899
866.7553, 5.682663
867.2374, 4.447800
867.7195, 2.998703
868.2017, 1.735352
868.6838, 0.8504490
869.1659, 0.7594600
869.6480, 1.979126
870.1301, 2.855515
870.6122, 3.047653
871.0944, 3.197540
871.5765, 4.599899
872.0586, 6.911270
872.5407, 8.091980
873.0228, 7.653381
873.5049, 6.581772
873.9871, 5.507004
874.4692, 4.374924
874.9513, 3.021988
875.4334, 0.9817200
875.9155, 0.1299900
876.3976, 0.2250670
876.8798, 1.012802
877.3619, 1.553299
877.8440, 1.843796
878.3261, 1.570679
878.8082, 0.7056730
879.2903, 0.5391540
879.7725, 2.543747
880.2546, 4.533356
880.7367, 5.157272
881.2188, 4.270325
881.7009, 4.242630
882.1830, 6.744980
882.6652, 9.481903
883.1473, 11.37863
883.6294, 12.48271
884.1115, 13.65503
884.5936, 14.91719
885.0757, 15.98303
885.5579, 16.13823
886.0400, 16.26834
886.5221, 18.45912
887.0042, 22.19917
887.4863, 25.50243
887.9684, 26.70554
888.4506, 28.01385
888.9327, 30.56439
889.4148, 34.00616
889.8969, 37.23430
890.3790, 40.31163
890.8611, 42.88208
891.3433, 44.88303
891.8254, 46.29933
892.3075, 46.73874
892.7896, 46.61435
893.2717, 47.06609
893.7538, 48.51236
894.2360, 50.64076
894.7181, 53.78316
895.2002, 57.29558
895.6823, 60.19516
896.1644, 62.28876
896.6465, 63.83563
897.1287, 64.32968
897.6108, 65.39319
898.0929, 69.70694
898.5750, 76.36188
899.0571, 81.86673
899.5392, 85.67645
900.0214, 88.99411
900.5035, 91.67075
900.9856, 94.98111
901.4677, 100.1676
901.9498, 107.6777
902.4319, 116.0403
902.9141, 125.6008
903.3962, 135.4551
903.8783, 145.0683
904.3604, 154.4994
904.8425, 164.2433
905.3246, 174.4743
905.8068, 185.8717
906.2889, 199.7407
906.7710, 214.3766
907.2531, 227.7449
907.7352, 240.2632
908.2173, 256.1466
908.6995, 276.5863
909.1816, 299.3226
909.6637, 323.3274
910.1458, 349.0579
910.6279, 377.7154
911.1100, 409.1986
911.5922, 442.5850
912.0743, 477.4703
912.5564, 515.0165
913.0385, 556.8743
913.5206, 601.9276
914.0027, 649.0294
914.4849, 695.9880
914.9670, 747.8425
915.4491, 804.7618
915.9312, 866.7036
916.4133, 933.2811
916.8954, 1004.870
917.3776, 1082.965
917.8597, 1168.408
918.3418, 1258.235
918.8239, 1349.505
919.3060, 1443.702
919.7881, 1544.086
920.2703, 1653.844
920.7524, 1758.139
921.2345, 1859.993
921.7166, 1949.856
922.1987, 2026.449
922.6808, 2088.667
923.1630, 2116.722
923.6451, 2110.504
924.1272, 2066.909
924.6093, 1971.884
925.0914, 1848.351
925.5735, 1711.291
926.0557, 1565.055
926.5378, 1420.390
927.0199, 1273.474
927.5020, 1136.744
927.9841, 1010.736
928.4662, 896.5874
928.9484, 796.6895
929.4305, 710.3528
929.9126, 634.6391
930.3947, 570.4767
930.8768, 514.3867
931.3589, 464.1698
931.8411, 419.8354
932.3232, 382.3204
932.8053, 354.4128
933.2874, 329.5321
933.7695, 307.6045
934.2516, 287.8199
934.7338, 269.3514
935.2159, 252.1469
935.6980, 239.2545
936.1801, 230.9868
936.6622, 224.5844
937.1443, 218.3292
937.6265, 212.3387
938.1086, 206.6068
938.5907, 201.0753
939.0728, 196.8420
939.5549, 193.8614
940.0370, 192.5165
940.5192, 193.3428
941.0013, 195.8872
941.4834, 197.7906
941.9655, 199.2293
942.4476, 201.9413
942.9297, 207.3335
943.4119, 213.7583
943.8940, 220.2365
944.3761, 226.6299
944.8582, 232.6185
945.3403, 236.2277
945.8224, 242.4112
946.3046, 251.9713
946.7867, 263.7648
947.2688, 276.1292
947.7509, 289.1773
948.2330, 303.2373
948.7151, 318.3151
949.1973, 334.7313
949.6794, 351.6192
950.1615, 370.6951
950.6436, 393.7159
951.1257, 421.2126
951.6078, 450.6999
952.0900, 481.2505
952.5721, 515.3860
953.0542, 553.0860
953.5363, 595.6559
954.0184, 647.4077
954.5005, 708.3228
954.9827, 781.4300
955.4648, 865.7990
955.9469, 965.5917
956.4290, 1080.751
956.9111, 1214.521
957.3932, 1372.396
957.8754, 1558.655
958.3575, 1757.575
958.8396, 1961.678
959.3217, 2183.553
959.8038, 2430.188
960.2859, 2708.217
960.7681, 3028.330
961.2502, 3387.983
961.7323, 3817.361
962.2144, 4290.870
962.6965, 4872.155
963.1786, 5601.957
963.6608, 6452.342
964.1429, 7515.015
964.6250, 8751.019
965.1071, 10332.41
965.5892, 12274.01
966.0714, 14677.68
966.5535, 17904.41
967.0356, 21863.37
967.5177, 26211.66
967.9998, 32702.75
968.4819, 37417.43
968.9641, 38990.96
969.4462, 37810.20
969.9283, 34072.94
970.4104, 27500.51
970.8925, 21409.25
971.3746, 16419.04
971.8568, 12452.57
972.3389, 9557.161
972.8210, 7492.071
973.3031, 5907.824
973.7852, 4820.274
974.2673, 3956.632
974.7495, 3312.395
975.2316, 2804.139
975.7137, 2393.734
976.1958, 2077.963
976.6779, 1813.037
977.1600, 1597.989
977.6422, 1417.443
978.1243, 1265.742
978.6064, 1134.254
979.0885, 1016.131
979.5706, 911.4236
980.0527, 819.9833
980.5349, 746.1989
981.0170, 678.3367
981.4991, 613.4171
981.9812, 553.4043
982.4633, 503.1190
982.9454, 461.2620
983.4276, 422.8564
983.9097, 386.2374
984.3918, 352.5357
984.8739, 322.9728
985.3560, 295.8177
985.8381, 269.2463
986.3203, 242.2776
986.8024, 219.4060
987.2845, 201.1786
987.7666, 185.1410
988.2487, 169.4936
988.7308, 154.8826
989.2130, 142.6513
989.6951, 132.5638
990.1772, 123.0685
990.6593, 113.1342
991.1414, 104.1018
991.6235, 96.59785
992.1057, 90.25171
992.5878, 84.38640
993.0699, 79.09528
993.5520, 73.83499
994.0341, 68.40004
994.5162, 62.74884
994.9984, 56.36559
995.4805, 49.98026
995.9626, 44.48114
996.4447, 39.96173
996.9268, 36.54422
997.4089, 34.93202
997.8911, 33.45583
998.3732, 30.99585
998.8553, 27.80956
999.3374, 26.09715
999.8195, 25.66600
1000.302, 24.43808
1000.784, 19.55377
1001.266, 15.02496
1001.748, 14.52150
1002.230, 16.39861
1002.712, 16.21568
1003.194, 12.89803
1003.676, 9.619751
1004.159, 6.583603
1004.641, 4.099518
1005.123, 2.586716
1005.605, 1.897644
1006.087, 1.847168
1006.569, 2.477310
1007.051, 2.843109
1007.533, 2.279480
1008.016, 1.495056
1008.498, 0.8139340
1008.980, 0.2572020
1009.462, 0.2543790
1009.944, 0.8649750
1010.426, 0.8533020
1010.908, 1.061768
1011.390, 3.094666
1011.872, 2.449158
1012.355, 0.4357150
1012.837, 0.3002930
1013.319, 2.481140
1013.801, 4.429871
1014.283, 5.026611
1014.765, 4.974228
1015.247, 5.060684
1015.729, 5.209946
1016.211, 4.794678
1016.694, 3.774094
1017.176, 3.064117
1017.658, 3.458374
1018.140, 4.242218
1018.622, 4.931198
1019.104, 5.553314
1019.586, 6.727661
1020.068, 8.861206
1020.551, 9.736877
1021.033, 8.258865
1021.515, 5.879288
1021.997, 4.879059
1022.479, 4.761414
1022.961, 4.571518
1023.443, 3.831055
1023.925, 3.468170
1024.407, 4.271317
1024.890, 4.978882
1025.372, 4.406342
1025.854, 2.558502
1026.336, 2.159149
1026.818, 3.178360
1027.300, 3.949417
1027.782, 3.028503
1028.264, 1.688278
1028.746, 0.7168730
1029.229, 0.1732940
1029.711, 0.1837310
1030.193, 1.138641
1030.675, 1.575928
1031.157, 1.127625
1031.639, 0.3484040
1032.121, 7.6964997E-02
1032.603, 8.7402001E-02
1033.086, 9.8557003E-02
1033.568, 0.5464940
1034.050, 1.297440
1034.532, 3.027740
1035.014, 4.399399
1035.496, 4.542877
1035.978, 3.609360
1036.460, 3.219894
1036.943, 3.383301
1037.425, 3.800278
1037.907, 4.748764
1038.389, 5.378876
1038.871, 4.470474
1039.353, 2.774551
1039.835, 1.616165
1040.317, 1.355927
1040.799, 1.385345
1041.281, 1.673096
1041.764, 2.284698
1042.246, 3.678345
1042.728, 5.371994
1043.210, 5.932846
1043.692, 5.357895
1044.174, 4.673523
1044.656, 4.393845
1045.138, 4.097839
1045.621, 3.364487
1046.103, 2.560333
1046.585, 2.970245
1047.067, 4.627014
1047.549, 5.582092
1048.031, 5.182953
1048.513, 4.536270
1048.995, 5.064041
1049.478, 5.809479
1049.960, 5.444992
1050.442, 3.072113
1050.924, 2.565186
1051.406, 4.669037
1051.888, 6.953934
1052.370, 8.031952
1052.852, 8.340729
1053.334, 9.035599
1053.817, 9.966522
1054.299, 10.64128
1054.781, 10.50140
1055.263, 10.48697
1055.745, 11.13564
1056.227, 11.85133
1056.709, 11.90080
1057.191, 11.27303
1057.673, 10.64716
1058.156, 10.05757
1058.638, 9.762512
1059.120, 10.08717
1059.602, 10.69588
1060.084, 11.44893
1060.566, 12.28345
1061.048, 12.79234
1061.530, 12.94856
1062.013, 12.83815
1062.495, 12.41336
1062.977, 11.87807
1063.459, 11.10100
1063.941, 10.57184
1064.423, 11.53719
1064.905, 14.94466
1065.387, 17.28717
1065.870, 16.45285
1066.352, 15.29881
1066.834, 15.27939
1067.316, 16.22296
1067.798, 16.91139
1068.280, 17.33466
1068.762, 17.40359
1069.244, 16.64816
1069.726, 16.00171
1070.208, 15.97676
1070.691, 16.43642
1071.173, 17.26599
1071.655, 18.82318
1072.137, 19.30376
1072.619, 18.53259
1073.101, 17.38783
1073.583, 16.24023
1074.065, 15.51396
1074.548, 16.05144
1075.030, 17.67973
1075.512, 18.94258
1075.994, 19.56953
1076.476, 19.57494
1076.958, 18.84235
1077.440, 17.60057
1077.922, 15.96548
1078.405, 14.24861
1078.887, 13.55963
1079.369, 14.35196
1079.851, 14.81412
1080.333, 13.34193
1080.815, 11.78052
1081.297, 11.41348
1081.779, 12.07411
1082.261, 12.33063
1082.744, 12.19266
1083.226, 11.53587
1083.708, 9.719040
1084.190, 8.205460
1084.672, 8.952957
1085.154, 10.71794
1085.636, 11.69904
1086.118, 11.28226
1086.601, 11.14809
1087.083, 11.28787
1087.565, 11.56114
1088.047, 12.03902
1088.529, 12.47168
1089.011, 12.25499
1089.493, 11.52399
1089.975, 11.01920
1090.458, 11.60007
1090.940, 11.50288
1091.422, 9.831879
1091.904, 8.129807
1092.386, 9.533508
1092.868, 13.02357
1093.350, 13.72018
1093.832, 10.90791
1094.314, 8.675247
1094.797, 10.56346
1095.279, 12.83025
1095.761, 13.11435
1096.243, 11.91824
1096.725, 11.46211
1097.207, 11.73099
1097.689, 11.82585
1098.171, 11.44521
1098.653, 11.04596
1099.136, 11.27119
1099.618, 11.64436
1100.100, 11.50909
1100.582, 10.51619
1101.064, 10.35727
1101.546, 11.21521
1102.028, 12.22910
1102.510, 12.99020
1102.993, 13.41763
1103.475, 13.11017
1103.957, 12.32935
1104.439, 11.73145
1104.921, 12.07217
1105.403, 11.83212
1105.885, 10.66194
1106.367, 9.184235
1106.849, 7.693451
1107.332, 6.441238
1107.814, 6.842712
1108.296, 8.618454
1108.778, 9.824615
1109.260, 9.041183
1109.742, 8.091492
1110.224, 7.609802
1110.706, 7.431747
1111.188, 7.314835
1111.671, 7.263916
1112.153, 7.300690
1112.635, 7.415604
1113.117, 7.715454
1113.599, 8.358185
1114.081, 9.178589
1114.563, 10.37172
1115.045, 11.73160
1115.528, 11.56410
1116.010, 9.557663
1116.492, 7.889496
1116.974, 7.226532
1117.456, 7.082581
1117.938, 7.020630
1118.420, 7.010361
1118.902, 6.979385
1119.385, 6.843384
1119.867, 7.023422
1120.349, 7.652542
1120.831, 8.244812
1121.313, 8.587753
1121.795, 8.680969
1122.277, 8.552582
1122.759, 8.214874
1123.241, 7.631424
1123.724, 6.424774
1124.206, 5.599579
1124.688, 5.517258
1125.170, 5.550232
1125.652, 5.236084
1126.134, 4.605576
1126.616, 3.442322
1127.098, 1.943344
1127.580, 1.287933
1128.063, 3.125702
1128.545, 4.754883
1129.027, 4.834442
1129.509, 4.228424
1129.991, 3.958237
1130.473, 4.014053
1130.955, 4.234024
1131.437, 4.606125
1131.920, 4.701996
1132.402, 3.686203
1132.884, 2.764923
1133.366, 3.051880
1133.848, 4.132919
1134.330, 4.338989
1134.812, 3.489532
1135.294, 3.440903
1135.776, 4.792313
1136.259, 5.950668
1136.741, 4.900436
1137.223, 3.071747
1137.705, 1.692123
1138.187, 0.9502110
1138.669, 1.520782
1139.151, 4.202271
1139.633, 5.200073
1140.115, 2.539276
1140.598, 1.093658
1141.080, 1.906555
1141.562, 0.9237820
1142.044, 0.4229130
1142.526, 2.167953
1143.008, 2.952927
1143.490, 2.206467
1143.972, 1.635559
1144.455, 2.598892
1144.937, 4.048508
1145.419, 2.750153
1145.901, 8.4305003E-02
1146.383, 1.303558
1146.865, 2.165787
1147.347, 4.064590
1147.829, 2.707458
1148.312, 0.7601620
1148.794, 0.4161530
1149.276, 1.310776
1149.758, 1.759033
1150.240, 1.804062
1150.722, 1.661453
1151.204, 0.9030300
1151.686, 0.6836400
1152.168, 1.902740
1152.651, 3.376266
1153.133, 3.648956
1153.615, 2.829712
1154.097, 1.971390
1154.579, 1.171906
1155.061, 0.6805270
1155.543, 0.6435700
1156.025, 0.9777530
1156.507, 1.997330
1156.990, 3.220856
1157.472, 3.890106
1157.954, 4.007004
1158.436, 2.767792
1158.918, 0.1184540
1159.400, 2.123459
1159.882, 0.3719790
1160.364, 2.349075
1160.847, 4.151382
1161.329, 5.038437
1161.811, 5.347198
1162.293, 5.004532
1162.775, 4.846375
1163.257, 5.037186
1163.739, 5.633301
1164.221, 7.346512
1164.703, 9.058365
1165.186, 9.534988
1165.668, 8.625092
1166.150, 7.492508
1166.632, 5.958740
1167.114, 5.332733
1167.596, 6.251678
1168.078, 7.963882
1168.560, 9.908234
1169.042, 11.86073
1169.525, 13.58076
1170.007, 15.18501
1170.489, 15.61659
1170.971, 14.58253
1171.453, 13.41887
1171.935, 12.65964
1172.417, 12.32983
1172.899, 12.47267
1173.382, 13.06070
1173.864, 14.07278
1174.346, 15.93797
1174.828, 17.37387
1175.310, 18.37535
1175.792, 18.93428
1176.274, 19.00087
1176.756, 18.65460
1177.239, 17.62102
1177.721, 16.32751
1178.203, 15.87088
1178.685, 17.98450
1179.167, 18.74898
1179.649, 17.48622
1180.131, 15.86397
1180.613, 15.60005
1181.095, 16.03726
1181.578, 15.39069
1182.060, 13.97867
1182.542, 13.38261
1183.024, 15.18806
1183.506, 16.45901
1183.988, 16.74492
1184.470, 16.51686
1184.952, 15.89632
1185.434, 15.06508
1185.917, 14.96983
1186.399, 15.57443
1186.881, 15.95616
1187.363, 15.47919
1187.845, 15.09462
1188.327, 15.14531
1188.809, 15.19229
1189.291, 14.52222
1189.774, 13.28177
1190.256, 11.62888
1190.738, 9.608032
1191.220, 8.597000
1191.702, 10.13516
1192.184, 11.67619
1192.666, 12.64597
1193.148, 12.90910
1193.630, 11.62714
1194.113, 9.432938
1194.595, 8.622101
1195.077, 9.697769
1195.559, 10.64351
1196.041, 10.16539
1196.523, 9.984192
1197.005, 10.95103
1197.487, 12.27794
1197.969, 11.75885
1198.452, 9.843842
1198.934, 8.289917
1199.416, 7.567078
1199.898, 7.390625
1200.380, 8.527451
1200.862, 9.126663
1201.344, 8.039551
1201.826, 5.894897
1202.309, 4.802521
1202.791, 4.667923
1203.273, 5.354553
1203.755, 7.242783
1204.237, 8.594635
1204.719, 8.377792
1205.201, 7.609055
1205.683, 6.813934
1206.166, 5.966354
1206.648, 4.515366
1207.130, 2.742325
1207.612, 1.958221
1208.094, 3.142120
1208.576, 4.311493
1209.058, 5.005829
1209.540, 4.977768
1210.022, 3.564941
1210.505, 1.216644
1210.987, 1.301437
1211.469, 3.295532
1211.951, 4.718338
1212.433, 4.266144
1212.915, 3.415771
1213.397, 2.049988
1213.879, 1.183197
1214.361, 1.920883
1214.844, 3.936569
1215.326, 4.879303
1215.808, 4.893707
1216.290, 4.721085
1216.772, 4.462158
1217.254, 4.332367
1217.736, 4.479294
1218.218, 4.983475
1218.701, 6.122086
1219.183, 7.659607
1219.665, 7.008621
1220.147, 4.596451
1220.629, 2.843765
1221.111, 3.283447
1221.593, 4.119888
1222.075, 5.150223
1222.557, 5.988480
1223.040, 6.387054
1223.522, 6.268661
1224.004, 4.730453
1224.486, 2.094086
1224.968, 0.3553010
1225.450, 1.177078
1225.932, 2.132828
1226.414, 2.652756
1226.896, 2.990021
1227.379, 3.292084
1227.861, 3.664886
1228.343, 4.886719
1228.825, 6.754272
1229.307, 7.732681
1229.789, 6.264099
1230.271, 4.965561
1230.753, 4.374634
1231.236, 4.248505
1231.718, 4.532471
1232.200, 5.034225
1232.682, 4.921829
1233.164, 4.263168
1233.646, 3.665482
1234.128, 3.179077
1234.610, 3.133896
1235.093, 3.753311
1235.575, 4.525574
1236.057, 4.902573
1236.539, 4.857452
1237.021, 4.069504
1237.503, 2.633179
1237.985, 1.601089
1238.467, 1.395386
1238.949, 1.656708
1239.432, 2.591568
1239.914, 3.412247
1240.396, 2.858353
1240.878, 1.485870
1241.360, 7.9500005E-03
1241.842, 1.437668
1242.324, 1.801498
1242.806, 0.4517670
1243.288, 1.062546
1243.771, 2.670349
1244.253, 4.053085
1244.735, 5.183975
1245.217, 5.771729
1245.699, 4.919434
1246.181, 2.703827
1246.663, 1.828720
1247.145, 2.972382
1247.628, 4.151306
1248.110, 5.098328
1248.592, 5.442474
1249.074, 4.015747
1249.556, 2.160828
1250.038, 1.738846
1250.520, 2.789246
1251.002, 2.709549
1251.484, 1.027466
1251.967, 8.2886003E-02
1252.449, 0.5944670
1252.931, 1.201202
1253.413, 4.2725001E-02
1253.895, 1.511002
1254.377, 2.057449
1254.859, 1.537964
1255.341, 0.8940120
1255.823, 0.1173550
1256.306, 0.6693730
1256.788, 1.459229
1257.270, 2.112045
1257.752, 2.663101
1258.234, 2.899796
1258.716, 2.349091
1259.198, 1.245056
1259.680, 0.7607880
1260.163, 0.9005890
1260.645, 0.8253020
1261.127, 0.2628170
1261.609, 2.3666000E-02
1262.091, 1.150085
1262.573, 2.212799
1263.055, 1.865860
1263.537, 0.6135250
1264.020, 0.1294400
1264.502, 0.3349910
1264.984, 0.8165280
1265.466, 1.548431
1265.948, 2.040939
1266.430, 1.510757
1266.912, 1.251022
1267.394, 2.160339
1267.876, 3.582733
1268.359, 3.464081
1268.841, 2.303162
1269.323, 2.109512
1269.805, 3.442734
1270.287, 4.440826
1270.769, 3.722336
1271.251, 3.273438
1271.733, 3.743515
1272.215, 4.904800
1272.698, 4.194061
1273.180, 2.468323
1273.662, 2.113037
1274.144, 3.819626
1274.626, 4.088425
1275.108, 0.8142090
1275.590, 0.7914580
1276.072, 1.611755
1276.555, 5.324844
1277.037, 6.249802
1277.519, 5.210831
1278.001, 3.543289
1278.483, 2.146881
1278.965, 2.123459
1279.447, 3.654907
1279.929, 5.013290
1280.411, 5.558350
1280.894, 5.848862
1281.376, 6.912704
1281.858, 7.902618
1282.340, 7.052841
1282.822, 4.239197
1283.304, 2.537262
1283.786, 1.896133
1284.268, 2.021286
1284.750, 3.138290
1285.233, 4.062729
1285.715, 3.362549
1286.197, 2.558640
1286.679, 3.437408
1287.161, 5.357071
1287.643, 5.778564
1288.125, 4.719940
1288.607, 2.619858
1289.090, 0.6455990
1289.572, 0.4275820
1290.054, 0.9346010
1290.536, 2.853455
1291.018, 4.324356
1291.500, 5.347717
1291.982, 6.021622
1292.464, 6.159470
1292.947, 5.466644
1293.429, 3.793854
1293.911, 2.470169
1294.393, 2.531754
1294.875, 2.692947
1295.357, 1.788498
1295.839, 1.407990
1296.321, 1.406937
1296.803, 1.479279
1297.286, 1.245255
1297.768, 0.5986330
1298.250, 0.1686250
1298.732, 1.5720000E-03
1299.214, 0.1259310
1299.696, 0.4063420
1300.178, 0.3219150
1300.660, 0.0000000E+00
##END=



