##NAMES=Ribbeite
##RRUFFID=R150125
##IDEAL CHEMISTRY=Mn^2+^_5_(SiO_4_)_2_(OH)_2_
##LOCALITY=Parker Shaft, Franklin, Sussex County, New Jersey, USA
##OWNER=RRUFF
##SOURCE=Michael Scott
##DESCRIPTION=Pink gemmy anhedral fragment found as an inclusion in leucophoenicite (R060308)
##STATUS=The identification of this mineral has been confirmed by single-crystal X-ray diffraction.
##URL=rruff.info/R150125
9.059570e+001, 2.172074e+003
9.107782e+001, 2.148130e+003
9.155994e+001, 2.139722e+003
9.204205e+001, 2.157807e+003
9.252417e+001, 2.184020e+003
9.300629e+001, 2.212617e+003
9.348840e+001, 2.229920e+003
9.397052e+001, 2.221623e+003
9.445264e+001, 2.182952e+003
9.493475e+001, 2.142758e+003
9.541687e+001, 2.104269e+003
9.589898e+001, 2.069267e+003
9.638110e+001, 2.037004e+003
9.686321e+001, 2.006768e+003
9.734533e+001, 1.976816e+003
9.782745e+001, 1.943604e+003
9.830956e+001, 1.913824e+003
9.879168e+001, 1.888157e+003
9.927380e+001, 1.864508e+003
9.975591e+001, 1.841849e+003
1.002380e+002, 1.820101e+003
1.007201e+002, 1.799927e+003
1.012023e+002, 1.781643e+003
1.016844e+002, 1.765217e+003
1.021665e+002, 1.749733e+003
1.026486e+002, 1.734896e+003
1.031307e+002, 1.720783e+003
1.036128e+002, 1.707327e+003
1.040950e+002, 1.694210e+003
1.045771e+002, 1.682404e+003
1.050592e+002, 1.672609e+003
1.055413e+002, 1.663971e+003
1.060234e+002, 1.655510e+003
1.065055e+002, 1.646014e+003
1.069877e+002, 1.636105e+003
1.074698e+002, 1.628778e+003
1.079519e+002, 1.626682e+003
1.084340e+002, 1.623763e+003
1.089161e+002, 1.617680e+003
1.093982e+002, 1.608763e+003
1.098804e+002, 1.598096e+003
1.103625e+002, 1.585852e+003
1.108446e+002, 1.571114e+003
1.113267e+002, 1.559881e+003
1.118088e+002, 1.553972e+003
1.122909e+002, 1.549661e+003
1.127731e+002, 1.545722e+003
1.132552e+002, 1.541758e+003
1.137373e+002, 1.537665e+003
1.142194e+002, 1.533327e+003
1.147015e+002, 1.528384e+003
1.151836e+002, 1.523762e+003
1.156658e+002, 1.520011e+003
1.161479e+002, 1.516303e+003
1.166300e+002, 1.511688e+003
1.171121e+002, 1.505771e+003
1.175942e+002, 1.499164e+003
1.180763e+002, 1.493419e+003
1.185584e+002, 1.489014e+003
1.190406e+002, 1.484255e+003
1.195227e+002, 1.477937e+003
1.200048e+002, 1.470769e+003
1.204869e+002, 1.464777e+003
1.209690e+002, 1.461307e+003
1.214511e+002, 1.459311e+003
1.219333e+002, 1.456340e+003
1.224154e+002, 1.451876e+003
1.228975e+002, 1.447297e+003
1.233796e+002, 1.443887e+003
1.238617e+002, 1.441740e+003
1.243438e+002, 1.439823e+003
1.248260e+002, 1.438741e+003
1.253081e+002, 1.437244e+003
1.257902e+002, 1.433686e+003
1.262723e+002, 1.426820e+003
1.267544e+002, 1.418458e+003
1.272365e+002, 1.412900e+003
1.277187e+002, 1.411686e+003
1.282008e+002, 1.410896e+003
1.286829e+002, 1.409523e+003
1.291650e+002, 1.407725e+003
1.296471e+002, 1.405759e+003
1.301292e+002, 1.403813e+003
1.306114e+002, 1.401861e+003
1.310935e+002, 1.399469e+003
1.315756e+002, 1.396221e+003
1.320577e+002, 1.392906e+003
1.325398e+002, 1.389594e+003
1.330219e+002, 1.386364e+003
1.335041e+002, 1.383329e+003
1.339862e+002, 1.380554e+003
1.344683e+002, 1.378013e+003
1.349504e+002, 1.375993e+003
1.354325e+002, 1.374807e+003
1.359146e+002, 1.373774e+003
1.363968e+002, 1.372418e+003
1.368789e+002, 1.370728e+003
1.373610e+002, 1.369149e+003
1.378431e+002, 1.368352e+003
1.383252e+002, 1.368609e+003
1.388073e+002, 1.368029e+003
1.392895e+002, 1.365858e+003
1.397716e+002, 1.363043e+003
1.402537e+002, 1.360812e+003
1.407358e+002, 1.359570e+003
1.412179e+002, 1.358399e+003
1.417000e+002, 1.356138e+003
1.421821e+002, 1.352933e+003
1.426643e+002, 1.349159e+003
1.431464e+002, 1.344562e+003
1.436285e+002, 1.339424e+003
1.441106e+002, 1.334788e+003
1.445927e+002, 1.331240e+003
1.450748e+002, 1.327873e+003
1.455570e+002, 1.323810e+003
1.460391e+002, 1.319052e+003
1.465212e+002, 1.314179e+003
1.470033e+002, 1.309516e+003
1.474854e+002, 1.305014e+003
1.479675e+002, 1.301156e+003
1.484497e+002, 1.298873e+003
1.489318e+002, 1.296715e+003
1.494139e+002, 1.293798e+003
1.498960e+002, 1.289971e+003
1.503781e+002, 1.285801e+003
1.508602e+002, 1.282193e+003
1.513424e+002, 1.279421e+003
1.518245e+002, 1.276570e+003
1.523066e+002, 1.273683e+003
1.527887e+002, 1.270626e+003
1.532708e+002, 1.267148e+003
1.537529e+002, 1.263197e+003
1.542351e+002, 1.259047e+003
1.547172e+002, 1.255407e+003
1.551993e+002, 1.252954e+003
1.556814e+002, 1.250257e+003
1.561635e+002, 1.246915e+003
1.566456e+002, 1.243387e+003
1.571278e+002, 1.240412e+003
1.576099e+002, 1.238411e+003
1.580920e+002, 1.236959e+003
1.585741e+002, 1.234192e+003
1.590562e+002, 1.228740e+003
1.595383e+002, 1.223697e+003
1.600205e+002, 1.219826e+003
1.605026e+002, 1.216925e+003
1.609847e+002, 1.214497e+003
1.614668e+002, 1.212270e+003
1.619489e+002, 1.210348e+003
1.624310e+002, 1.209069e+003
1.629131e+002, 1.209521e+003
1.633953e+002, 1.209556e+003
1.638774e+002, 1.207618e+003
1.643595e+002, 1.203880e+003
1.648416e+002, 1.200052e+003
1.653237e+002, 1.197042e+003
1.658058e+002, 1.194744e+003
1.662880e+002, 1.192833e+003
1.667701e+002, 1.191735e+003
1.672522e+002, 1.190639e+003
1.677343e+002, 1.188358e+003
1.682164e+002, 1.184575e+003
1.686985e+002, 1.181137e+003
1.691807e+002, 1.179703e+003
1.696628e+002, 1.179141e+003
1.701449e+002, 1.178072e+003
1.706270e+002, 1.175800e+003
1.711091e+002, 1.172814e+003
1.715912e+002, 1.170195e+003
1.720734e+002, 1.167943e+003
1.725555e+002, 1.166118e+003
1.730376e+002, 1.164998e+003
1.735197e+002, 1.164181e+003
1.740018e+002, 1.163045e+003
1.744839e+002, 1.161111e+003
1.749661e+002, 1.158582e+003
1.754482e+002, 1.156719e+003
1.759303e+002, 1.156349e+003
1.764124e+002, 1.155764e+003
1.768945e+002, 1.154344e+003
1.773766e+002, 1.152400e+003
1.778588e+002, 1.150525e+003
1.783409e+002, 1.149154e+003
1.788230e+002, 1.148289e+003
1.793051e+002, 1.147346e+003
1.797872e+002, 1.146433e+003
1.802693e+002, 1.145334e+003
1.807515e+002, 1.143912e+003
1.812336e+002, 1.142227e+003
1.817157e+002, 1.140404e+003
1.821978e+002, 1.138484e+003
1.826799e+002, 1.136382e+003
1.831620e+002, 1.135082e+003
1.836441e+002, 1.135367e+003
1.841263e+002, 1.135565e+003
1.846084e+002, 1.134690e+003
1.850905e+002, 1.132838e+003
1.855726e+002, 1.130851e+003
1.860547e+002, 1.129483e+003
1.865368e+002, 1.128832e+003
1.870190e+002, 1.128391e+003
1.875011e+002, 1.128470e+003
1.879832e+002, 1.128543e+003
1.884653e+002, 1.128342e+003
1.889474e+002, 1.127823e+003
1.894296e+002, 1.126811e+003
1.899117e+002, 1.124895e+003
1.903938e+002, 1.122117e+003
1.908759e+002, 1.119765e+003
1.913580e+002, 1.118198e+003
1.918401e+002, 1.117035e+003
1.923223e+002, 1.115821e+003
1.928044e+002, 1.114466e+003
1.932865e+002, 1.113246e+003
1.937686e+002, 1.112404e+003
1.942507e+002, 1.111888e+003
1.947328e+002, 1.111721e+003
1.952150e+002, 1.112334e+003
1.956971e+002, 1.113229e+003
1.961792e+002, 1.113383e+003
1.966613e+002, 1.112531e+003
1.971434e+002, 1.111293e+003
1.976255e+002, 1.110227e+003
1.981077e+002, 1.109187e+003
1.985898e+002, 1.107768e+003
1.990719e+002, 1.105221e+003
1.995540e+002, 1.101974e+003
2.000361e+002, 1.100036e+003
2.005182e+002, 1.100345e+003
2.010004e+002, 1.100764e+003
2.014825e+002, 1.100163e+003
2.019646e+002, 1.098766e+003
2.024467e+002, 1.097147e+003
2.029288e+002, 1.095469e+003
2.034109e+002, 1.093774e+003
2.038930e+002, 1.092875e+003
2.043752e+002, 1.093181e+003
2.048573e+002, 1.093981e+003
2.053394e+002, 1.095539e+003
2.058215e+002, 1.097422e+003
2.063036e+002, 1.098731e+003
2.067857e+002, 1.098646e+003
2.072679e+002, 1.097100e+003
2.077500e+002, 1.095440e+003
2.082321e+002, 1.093156e+003
2.087142e+002, 1.091220e+003
2.091963e+002, 1.090186e+003
2.096784e+002, 1.089823e+003
2.101606e+002, 1.089451e+003
2.106427e+002, 1.088372e+003
2.111248e+002, 1.086416e+003
2.116069e+002, 1.085346e+003
2.120890e+002, 1.086182e+003
2.125711e+002, 1.086871e+003
2.130533e+002, 1.086434e+003
2.135354e+002, 1.085052e+003
2.140175e+002, 1.083491e+003
2.144996e+002, 1.082380e+003
2.149817e+002, 1.081663e+003
2.154638e+002, 1.081973e+003
2.159460e+002, 1.084845e+003
2.164281e+002, 1.087171e+003
2.169102e+002, 1.087105e+003
2.173923e+002, 1.084874e+003
2.178744e+002, 1.082043e+003
2.183565e+002, 1.079960e+003
2.188387e+002, 1.078709e+003
2.193208e+002, 1.077883e+003
2.198029e+002, 1.077899e+003
2.202850e+002, 1.077945e+003
2.207671e+002, 1.077560e+003
2.212492e+002, 1.076721e+003
2.217314e+002, 1.075570e+003
2.222135e+002, 1.074083e+003
2.226956e+002, 1.072259e+003
2.231777e+002, 1.071172e+003
2.236598e+002, 1.071406e+003
2.241419e+002, 1.071936e+003
2.246240e+002, 1.072068e+003
2.251062e+002, 1.071759e+003
2.255883e+002, 1.071217e+003
2.260704e+002, 1.070555e+003
2.265525e+002, 1.069783e+003
2.270346e+002, 1.068994e+003
2.275167e+002, 1.068020e+003
2.279989e+002, 1.067143e+003
2.284810e+002, 1.066788e+003
2.289631e+002, 1.066997e+003
2.294452e+002, 1.067055e+003
2.299273e+002, 1.066102e+003
2.304094e+002, 1.064607e+003
2.308916e+002, 1.063871e+003
2.313737e+002, 1.064737e+003
2.318558e+002, 1.066112e+003
2.323379e+002, 1.066908e+003
2.328200e+002, 1.067132e+003
2.333021e+002, 1.066718e+003
2.337843e+002, 1.065018e+003
2.342664e+002, 1.062735e+003
2.347485e+002, 1.060915e+003
2.352306e+002, 1.059770e+003
2.357127e+002, 1.059242e+003
2.361948e+002, 1.059413e+003
2.366770e+002, 1.060457e+003
2.371591e+002, 1.061482e+003
2.376412e+002, 1.062164e+003
2.381233e+002, 1.062530e+003
2.386054e+002, 1.062541e+003
2.390875e+002, 1.062129e+003
2.395697e+002, 1.061435e+003
2.400518e+002, 1.060570e+003
2.405339e+002, 1.059369e+003
2.410160e+002, 1.058537e+003
2.414981e+002, 1.058474e+003
2.419802e+002, 1.058837e+003
2.424624e+002, 1.059386e+003
2.429445e+002, 1.060070e+003
2.434266e+002, 1.060799e+003
2.439087e+002, 1.061528e+003
2.443908e+002, 1.062480e+003
2.448729e+002, 1.062770e+003
2.453550e+002, 1.061699e+003
2.458372e+002, 1.060151e+003
2.463193e+002, 1.058805e+003
2.468014e+002, 1.057879e+003
2.472835e+002, 1.057288e+003
2.477656e+002, 1.056997e+003
2.482477e+002, 1.057359e+003
2.487299e+002, 1.057130e+003
2.492120e+002, 1.055814e+003
2.496941e+002, 1.054076e+003
2.501762e+002, 1.052312e+003
2.506583e+002, 1.050658e+003
2.511404e+002, 1.049186e+003
2.516226e+002, 1.048010e+003
2.521047e+002, 1.047201e+003
2.525868e+002, 1.046578e+003
2.530689e+002, 1.046204e+003
2.535510e+002, 1.045929e+003
2.540331e+002, 1.045688e+003
2.545153e+002, 1.045452e+003
2.549974e+002, 1.045173e+003
2.554795e+002, 1.044786e+003
2.559616e+002, 1.044339e+003
2.564437e+002, 1.043665e+003
2.569258e+002, 1.042790e+003
2.574080e+002, 1.041728e+003
2.578901e+002, 1.040303e+003
2.583722e+002, 1.038576e+003
2.588543e+002, 1.036950e+003
2.593364e+002, 1.035988e+003
2.598185e+002, 1.035932e+003
2.603007e+002, 1.035975e+003
2.607828e+002, 1.036269e+003
2.612649e+002, 1.036521e+003
2.617470e+002, 1.036587e+003
2.622291e+002, 1.036432e+003
2.627112e+002, 1.036057e+003
2.631934e+002, 1.035436e+003
2.636755e+002, 1.034464e+003
2.641576e+002, 1.033618e+003
2.646397e+002, 1.032795e+003
2.651218e+002, 1.032148e+003
2.656039e+002, 1.031912e+003
2.660861e+002, 1.031998e+003
2.665682e+002, 1.032017e+003
2.670503e+002, 1.031563e+003
2.675324e+002, 1.030526e+003
2.680145e+002, 1.029715e+003
2.684966e+002, 1.029160e+003
2.689788e+002, 1.028749e+003
2.694609e+002, 1.028706e+003
2.699430e+002, 1.028836e+003
2.704251e+002, 1.028501e+003
2.709072e+002, 1.027072e+003
2.713893e+002, 1.024495e+003
2.718715e+002, 1.022717e+003
2.723536e+002, 1.022284e+003
2.728357e+002, 1.021933e+003
2.733178e+002, 1.020961e+003
2.737999e+002, 1.019600e+003
2.742820e+002, 1.018670e+003
2.747642e+002, 1.018852e+003
2.752463e+002, 1.019974e+003
2.757284e+002, 1.019857e+003
2.762105e+002, 1.017141e+003
2.766926e+002, 1.014953e+003
2.771747e+002, 1.014681e+003
2.776568e+002, 1.015735e+003
2.781389e+002, 1.016845e+003
2.786211e+002, 1.017402e+003
2.791032e+002, 1.017387e+003
2.795853e+002, 1.016633e+003
2.800674e+002, 1.014556e+003
2.805495e+002, 1.012590e+003
2.810316e+002, 1.010933e+003
2.815138e+002, 1.009647e+003
2.819959e+002, 1.008946e+003
2.824780e+002, 1.008997e+003
2.829601e+002, 1.009460e+003
2.834422e+002, 1.009430e+003
2.839243e+002, 1.008636e+003
2.844065e+002, 1.007961e+003
2.848886e+002, 1.007996e+003
2.853707e+002, 1.008152e+003
2.858528e+002, 1.007382e+003
2.863349e+002, 1.005255e+003
2.868170e+002, 1.002648e+003
2.872992e+002, 1.001078e+003
2.877813e+002, 1.000841e+003
2.882634e+002, 1.000546e+003
2.887455e+002, 9.997630e+002
2.892276e+002, 9.989033e+002
2.897097e+002, 9.986193e+002
2.901919e+002, 9.990826e+002
2.906740e+002, 9.995990e+002
2.911561e+002, 9.992102e+002
2.916382e+002, 9.977574e+002
2.921203e+002, 9.966454e+002
2.926024e+002, 9.961942e+002
2.930846e+002, 9.960390e+002
2.935667e+002, 9.959084e+002
2.940488e+002, 9.957584e+002
2.945309e+002, 9.954776e+002
2.950130e+002, 9.949088e+002
2.954951e+002, 9.940455e+002
2.959773e+002, 9.933197e+002
2.964594e+002, 9.930513e+002
2.969415e+002, 9.926991e+002
2.974236e+002, 9.915495e+002
2.979057e+002, 9.896896e+002
2.983878e+002, 9.882367e+002
2.988700e+002, 9.880789e+002
2.993521e+002, 9.890612e+002
2.998342e+002, 9.897729e+002
3.003163e+002, 9.903355e+002
3.007984e+002, 9.905203e+002
3.012805e+002, 9.899991e+002
3.017627e+002, 9.889076e+002
3.022448e+002, 9.878381e+002
3.027269e+002, 9.870471e+002
3.032090e+002, 9.865367e+002
3.036911e+002, 9.863110e+002
3.041732e+002, 9.868298e+002
3.046554e+002, 9.868964e+002
3.051375e+002, 9.855496e+002
3.056196e+002, 9.833201e+002
3.061017e+002, 9.815694e+002
3.065838e+002, 9.808277e+002
3.070659e+002, 9.807853e+002
3.075481e+002, 9.809594e+002
3.080302e+002, 9.814379e+002
3.085123e+002, 9.817771e+002
3.089944e+002, 9.819423e+002
3.094765e+002, 9.818564e+002
3.099586e+002, 9.812258e+002
3.104408e+002, 9.798657e+002
3.109229e+002, 9.784355e+002
3.114050e+002, 9.779835e+002
3.118871e+002, 9.785369e+002
3.123692e+002, 9.787830e+002
3.128513e+002, 9.782560e+002
3.133335e+002, 9.773785e+002
3.138156e+002, 9.766192e+002
3.142977e+002, 9.760439e+002
3.147798e+002, 9.755321e+002
3.152619e+002, 9.748904e+002
3.157440e+002, 9.741578e+002
3.162262e+002, 9.738304e+002
3.167083e+002, 9.749188e+002
3.171904e+002, 9.757362e+002
3.176725e+002, 9.744128e+002
3.181546e+002, 9.710663e+002
3.186367e+002, 9.679437e+002
3.191188e+002, 9.665304e+002
3.196010e+002, 9.666282e+002
3.200831e+002, 9.667256e+002
3.205652e+002, 9.670280e+002
3.210473e+002, 9.671335e+002
3.215294e+002, 9.668807e+002
3.220115e+002, 9.662661e+002
3.224937e+002, 9.651201e+002
3.229758e+002, 9.631049e+002
3.234579e+002, 9.608349e+002
3.239400e+002, 9.600449e+002
3.244221e+002, 9.615365e+002
3.249042e+002, 9.625112e+002
3.253864e+002, 9.615931e+002
3.258685e+002, 9.595472e+002
3.263506e+002, 9.577703e+002
3.268327e+002, 9.566918e+002
3.273148e+002, 9.560305e+002
3.277969e+002, 9.554340e+002
3.282791e+002, 9.549439e+002
3.287612e+002, 9.543073e+002
3.292433e+002, 9.531983e+002
3.297254e+002, 9.520521e+002
3.302075e+002, 9.514830e+002
3.306896e+002, 9.515974e+002
3.311718e+002, 9.518262e+002
3.316539e+002, 9.516391e+002
3.321360e+002, 9.509920e+002
3.326181e+002, 9.501469e+002
3.331002e+002, 9.488069e+002
3.335823e+002, 9.475067e+002
3.340645e+002, 9.466644e+002
3.345466e+002, 9.462655e+002
3.350287e+002, 9.459499e+002
3.355108e+002, 9.453687e+002
3.359929e+002, 9.446725e+002
3.364750e+002, 9.448324e+002
3.369572e+002, 9.468876e+002
3.374393e+002, 9.486036e+002
3.379214e+002, 9.490222e+002
3.384035e+002, 9.483828e+002
3.388856e+002, 9.471674e+002
3.393677e+002, 9.455043e+002
3.398499e+002, 9.436190e+002
3.403320e+002, 9.421175e+002
3.408141e+002, 9.408211e+002
3.412962e+002, 9.401286e+002
3.417783e+002, 9.405372e+002
3.422604e+002, 9.414409e+002
3.427426e+002, 9.421913e+002
3.432247e+002, 9.426041e+002
3.437068e+002, 9.425347e+002
3.441889e+002, 9.416786e+002
3.446710e+002, 9.395576e+002
3.451531e+002, 9.380720e+002
3.456353e+002, 9.373691e+002
3.461174e+002, 9.372273e+002
3.465995e+002, 9.379803e+002
3.470816e+002, 9.393978e+002
3.475637e+002, 9.401945e+002
3.480458e+002, 9.390427e+002
3.485280e+002, 9.357987e+002
3.490101e+002, 9.336625e+002
3.494922e+002, 9.333569e+002
3.499743e+002, 9.332310e+002
3.504564e+002, 9.326422e+002
3.509385e+002, 9.316891e+002
3.514207e+002, 9.306251e+002
3.519028e+002, 9.295539e+002
3.523849e+002, 9.285945e+002
3.528670e+002, 9.282748e+002
3.533491e+002, 9.295350e+002
3.538312e+002, 9.302715e+002
3.543134e+002, 9.299069e+002
3.547955e+002, 9.290175e+002
3.552776e+002, 9.282084e+002
3.557597e+002, 9.277011e+002
3.562418e+002, 9.274492e+002
3.567239e+002, 9.273870e+002
3.572061e+002, 9.276563e+002
3.576882e+002, 9.278303e+002
3.581703e+002, 9.279659e+002
3.586524e+002, 9.279703e+002
3.591345e+002, 9.276634e+002
3.596166e+002, 9.271010e+002
3.600987e+002, 9.266053e+002
3.605808e+002, 9.265273e+002
3.610630e+002, 9.269396e+002
3.615451e+002, 9.270273e+002
3.620272e+002, 9.265205e+002
3.625093e+002, 9.259887e+002
3.629914e+002, 9.257646e+002
3.634735e+002, 9.256424e+002
3.639557e+002, 9.251580e+002
3.644378e+002, 9.239887e+002
3.649199e+002, 9.223681e+002
3.654020e+002, 9.212944e+002
3.658841e+002, 9.211185e+002
3.663662e+002, 9.210671e+002
3.668484e+002, 9.209141e+002
3.673305e+002, 9.209040e+002
3.678126e+002, 9.214704e+002
3.682947e+002, 9.226955e+002
3.687768e+002, 9.239743e+002
3.692589e+002, 9.242543e+002
3.697411e+002, 9.230080e+002
3.702232e+002, 9.221972e+002
3.707053e+002, 9.221813e+002
3.711874e+002, 9.223343e+002
3.716695e+002, 9.226503e+002
3.721516e+002, 9.229116e+002
3.726338e+002, 9.225215e+002
3.731159e+002, 9.206486e+002
3.735980e+002, 9.173693e+002
3.740801e+002, 9.152244e+002
3.745622e+002, 9.146824e+002
3.750443e+002, 9.148196e+002
3.755265e+002, 9.156407e+002
3.760086e+002, 9.168152e+002
3.764907e+002, 9.179083e+002
3.769728e+002, 9.187537e+002
3.774549e+002, 9.193071e+002
3.779370e+002, 9.193252e+002
3.784192e+002, 9.184478e+002
3.789013e+002, 9.180700e+002
3.793834e+002, 9.191576e+002
3.798655e+002, 9.205373e+002
3.803476e+002, 9.213331e+002
3.808297e+002, 9.213715e+002
3.813119e+002, 9.210132e+002
3.817940e+002, 9.204106e+002
3.822761e+002, 9.195775e+002
3.827582e+002, 9.192203e+002
3.832403e+002, 9.194830e+002
3.837224e+002, 9.202402e+002
3.842046e+002, 9.216770e+002
3.846867e+002, 9.235496e+002
3.851688e+002, 9.250284e+002
3.856509e+002, 9.256464e+002
3.861330e+002, 9.255517e+002
3.866151e+002, 9.248528e+002
3.870973e+002, 9.232705e+002
3.875794e+002, 9.220863e+002
3.880615e+002, 9.222359e+002
3.885436e+002, 9.231965e+002
3.890257e+002, 9.243677e+002
3.895078e+002, 9.258397e+002
3.899900e+002, 9.271183e+002
3.904721e+002, 9.277399e+002
3.909542e+002, 9.277495e+002
3.914363e+002, 9.274826e+002
3.919184e+002, 9.269865e+002
3.924005e+002, 9.263218e+002
3.928827e+002, 9.254444e+002
3.933648e+002, 9.242972e+002
3.938469e+002, 9.235781e+002
3.943290e+002, 9.240090e+002
3.948111e+002, 9.249025e+002
3.952932e+002, 9.251279e+002
3.957754e+002, 9.244963e+002
3.962575e+002, 9.235676e+002
3.967396e+002, 9.227864e+002
3.972217e+002, 9.221426e+002
3.977038e+002, 9.214327e+002
3.981859e+002, 9.208734e+002
3.986681e+002, 9.200456e+002
3.991501e+002, 9.182254e+002
3.996323e+002, 9.157927e+002
4.001144e+002, 9.142096e+002
4.005965e+002, 9.143732e+002
4.010786e+002, 9.155847e+002
4.015607e+002, 9.157975e+002
4.020428e+002, 9.145090e+002
4.025250e+002, 9.132730e+002
4.030071e+002, 9.123581e+002
4.034892e+002, 9.116257e+002
4.039713e+002, 9.109042e+002
4.044534e+002, 9.101609e+002
4.049355e+002, 9.095462e+002
4.054177e+002, 9.093434e+002
4.058998e+002, 9.098215e+002
4.063819e+002, 9.092407e+002
4.068640e+002, 9.068262e+002
4.073461e+002, 9.042433e+002
4.078282e+002, 9.018217e+002
4.083104e+002, 8.998912e+002
4.087925e+002, 8.991768e+002
4.092746e+002, 9.002621e+002
4.097567e+002, 9.025891e+002
4.102388e+002, 9.035822e+002
4.107209e+002, 9.020363e+002
4.112031e+002, 9.006285e+002
4.116852e+002, 8.995078e+002
4.121673e+002, 8.986578e+002
4.126494e+002, 8.980894e+002
4.131315e+002, 8.977870e+002
4.136136e+002, 8.976534e+002
4.140958e+002, 8.976636e+002
4.145779e+002, 8.980053e+002
4.150600e+002, 8.977288e+002
4.155421e+002, 8.962902e+002
4.160242e+002, 8.947258e+002
4.165063e+002, 8.932870e+002
4.169885e+002, 8.920395e+002
4.174706e+002, 8.910497e+002
4.179527e+002, 8.903539e+002
4.184348e+002, 8.899429e+002
4.189169e+002, 8.898259e+002
4.193990e+002, 8.901928e+002
4.198812e+002, 8.904367e+002
4.203633e+002, 8.900939e+002
4.208454e+002, 8.896962e+002
4.213275e+002, 8.900146e+002
4.218096e+002, 8.912716e+002
4.222917e+002, 8.921423e+002
4.227739e+002, 8.906164e+002
4.232560e+002, 8.868737e+002
4.237381e+002, 8.848050e+002
4.242202e+002, 8.858104e+002
4.247023e+002, 8.875098e+002
4.251844e+002, 8.883442e+002
4.256666e+002, 8.883644e+002
4.261487e+002, 8.877153e+002
4.266308e+002, 8.858493e+002
4.271129e+002, 8.836189e+002
4.275950e+002, 8.822426e+002
4.280771e+002, 8.817322e+002
4.285593e+002, 8.819342e+002
4.290414e+002, 8.834184e+002
4.295235e+002, 8.852316e+002
4.300056e+002, 8.852963e+002
4.304877e+002, 8.828845e+002
4.309698e+002, 8.803830e+002
4.314520e+002, 8.789889e+002
4.319341e+002, 8.783452e+002
4.324162e+002, 8.778021e+002
4.328983e+002, 8.772295e+002
4.333804e+002, 8.765491e+002
4.338625e+002, 8.755771e+002
4.343447e+002, 8.742390e+002
4.348268e+002, 8.733477e+002
4.353089e+002, 8.732596e+002
4.357910e+002, 8.733399e+002
4.362731e+002, 8.733054e+002
4.367552e+002, 8.730931e+002
4.372374e+002, 8.725543e+002
4.377195e+002, 8.715446e+002
4.382016e+002, 8.702564e+002
4.386837e+002, 8.694485e+002
4.391658e+002, 8.695568e+002
4.396479e+002, 8.695956e+002
4.401301e+002, 8.696141e+002
4.406122e+002, 8.694766e+002
4.410943e+002, 8.690104e+002
4.415764e+002, 8.682098e+002
4.420585e+002, 8.672440e+002
4.425406e+002, 8.662752e+002
4.430227e+002, 8.652692e+002
4.435049e+002, 8.645219e+002
4.439870e+002, 8.645133e+002
4.444691e+002, 8.642738e+002
4.449512e+002, 8.631844e+002
4.454333e+002, 8.617289e+002
4.459154e+002, 8.608235e+002
4.463976e+002, 8.610212e+002
4.468797e+002, 8.616202e+002
4.473618e+002, 8.608120e+002
4.478439e+002, 8.577753e+002
4.483260e+002, 8.557834e+002
4.488081e+002, 8.561414e+002
4.492903e+002, 8.572194e+002
4.497724e+002, 8.583738e+002
4.502545e+002, 8.594068e+002
4.507366e+002, 8.598848e+002
4.512187e+002, 8.589719e+002
4.517008e+002, 8.571259e+002
4.521830e+002, 8.565598e+002
4.526651e+002, 8.579258e+002
4.531472e+002, 8.590333e+002
4.536293e+002, 8.579150e+002
4.541114e+002, 8.558777e+002
4.545935e+002, 8.548588e+002
4.550757e+002, 8.556679e+002
4.555578e+002, 8.567858e+002
4.560399e+002, 8.571573e+002
4.565220e+002, 8.568146e+002
4.570041e+002, 8.557269e+002
4.574862e+002, 8.535709e+002
4.579684e+002, 8.513327e+002
4.584505e+002, 8.504084e+002
4.589326e+002, 8.507548e+002
4.594147e+002, 8.512704e+002
4.598968e+002, 8.521635e+002
4.603789e+002, 8.528658e+002
4.608611e+002, 8.528568e+002
4.613432e+002, 8.521694e+002
4.618253e+002, 8.510406e+002
4.623074e+002, 8.494554e+002
4.627895e+002, 8.476979e+002
4.632716e+002, 8.469372e+002
4.637538e+002, 8.485430e+002
4.642359e+002, 8.492893e+002
4.647180e+002, 8.480690e+002
4.652001e+002, 8.462209e+002
4.656822e+002, 8.450218e+002
4.661643e+002, 8.447519e+002
4.666465e+002, 8.450769e+002
4.671286e+002, 8.457120e+002
4.676107e+002, 8.467324e+002
4.680928e+002, 8.473334e+002
4.685749e+002, 8.473255e+002
4.690570e+002, 8.470745e+002
4.695392e+002, 8.463863e+002
4.700213e+002, 8.455857e+002
4.705034e+002, 8.452332e+002
4.709855e+002, 8.455975e+002
4.714676e+002, 8.461505e+002
4.719497e+002, 8.459388e+002
4.724319e+002, 8.448306e+002
4.729140e+002, 8.435447e+002
4.733961e+002, 8.417933e+002
4.738782e+002, 8.402422e+002
4.743603e+002, 8.394174e+002
4.748424e+002, 8.391894e+002
4.753246e+002, 8.389270e+002
4.758067e+002, 8.380212e+002
4.762888e+002, 8.369217e+002
4.767709e+002, 8.367328e+002
4.772530e+002, 8.376044e+002
4.777351e+002, 8.384794e+002
4.782173e+002, 8.390286e+002
4.786994e+002, 8.391803e+002
4.791815e+002, 8.388066e+002
4.796636e+002, 8.377722e+002
4.801457e+002, 8.366920e+002
4.806278e+002, 8.357571e+002
4.811100e+002, 8.350098e+002
4.815920e+002, 8.345313e+002
4.820742e+002, 8.343357e+002
4.825563e+002, 8.344031e+002
4.830384e+002, 8.349050e+002
4.835205e+002, 8.357864e+002
4.840026e+002, 8.357217e+002
4.844847e+002, 8.334352e+002
4.849669e+002, 8.316371e+002
4.854490e+002, 8.318942e+002
4.859311e+002, 8.332854e+002
4.864132e+002, 8.342314e+002
4.868953e+002, 8.341418e+002
4.873774e+002, 8.333550e+002
4.878596e+002, 8.324022e+002
4.883417e+002, 8.312170e+002
4.888238e+002, 8.300211e+002
4.893059e+002, 8.284921e+002
4.897880e+002, 8.272642e+002
4.902701e+002, 8.267236e+002
4.907523e+002, 8.267389e+002
4.912344e+002, 8.270228e+002
4.917165e+002, 8.274498e+002
4.921986e+002, 8.279042e+002
4.926807e+002, 8.280727e+002
4.931628e+002, 8.279402e+002
4.936450e+002, 8.275694e+002
4.941271e+002, 8.266758e+002
4.946092e+002, 8.257664e+002
4.950913e+002, 8.250820e+002
4.955734e+002, 8.246778e+002
4.960555e+002, 8.246508e+002
4.965377e+002, 8.256172e+002
4.970198e+002, 8.269694e+002
4.975019e+002, 8.267670e+002
4.979840e+002, 8.246188e+002
4.984661e+002, 8.225830e+002
4.989482e+002, 8.218325e+002
4.994304e+002, 8.219026e+002
4.999125e+002, 8.218723e+002
5.003946e+002, 8.216623e+002
5.008767e+002, 8.214335e+002
5.013588e+002, 8.214152e+002
5.018409e+002, 8.213941e+002
5.023231e+002, 8.209661e+002
5.028052e+002, 8.200487e+002
5.032873e+002, 8.188271e+002
5.037694e+002, 8.173521e+002
5.042515e+002, 8.156008e+002
5.047336e+002, 8.145960e+002
5.052158e+002, 8.150316e+002
5.056979e+002, 8.153508e+002
5.061800e+002, 8.148274e+002
5.066621e+002, 8.138825e+002
5.071442e+002, 8.131755e+002
5.076263e+002, 8.129430e+002
5.081085e+002, 8.129711e+002
5.085906e+002, 8.129525e+002
5.090727e+002, 8.128909e+002
5.095548e+002, 8.127558e+002
5.100369e+002, 8.123831e+002
5.105190e+002, 8.120942e+002
5.110012e+002, 8.122233e+002
5.114833e+002, 8.124944e+002
5.119654e+002, 8.122825e+002
5.124475e+002, 8.111500e+002
5.129296e+002, 8.098071e+002
5.134117e+002, 8.098319e+002
5.138939e+002, 8.115198e+002
5.143760e+002, 8.122399e+002
5.148581e+002, 8.105905e+002
5.153402e+002, 8.086262e+002
5.158223e+002, 8.082305e+002
5.163044e+002, 8.091820e+002
5.167866e+002, 8.098880e+002
5.172687e+002, 8.094390e+002
5.177508e+002, 8.085254e+002
5.182329e+002, 8.081971e+002
5.187150e+002, 8.083920e+002
5.191971e+002, 8.079786e+002
5.196793e+002, 8.061550e+002
5.201614e+002, 8.037216e+002
5.206435e+002, 8.027004e+002
5.211256e+002, 8.037089e+002
5.216077e+002, 8.040040e+002
5.220898e+002, 8.024995e+002
5.225720e+002, 8.005352e+002
5.230541e+002, 7.993258e+002
5.235362e+002, 7.988712e+002
5.240183e+002, 7.983947e+002
5.245004e+002, 7.972867e+002
5.249825e+002, 7.957748e+002
5.254647e+002, 7.950676e+002
5.259468e+002, 7.964357e+002
5.264289e+002, 7.967785e+002
5.269110e+002, 7.949882e+002
5.273931e+002, 7.927099e+002
5.278752e+002, 7.912621e+002
5.283574e+002, 7.907930e+002
5.288395e+002, 7.906560e+002
5.293216e+002, 7.903367e+002
5.298037e+002, 7.898663e+002
5.302858e+002, 7.894138e+002
5.307679e+002, 7.889717e+002
5.312501e+002, 7.885700e+002
5.317322e+002, 7.882661e+002
5.322143e+002, 7.879874e+002
5.326964e+002, 7.876811e+002
5.331785e+002, 7.873528e+002
5.336606e+002, 7.868927e+002
5.341428e+002, 7.858729e+002
5.346249e+002, 7.847340e+002
5.351070e+002, 7.847015e+002
5.355891e+002, 7.860294e+002
5.360712e+002, 7.870983e+002
5.365533e+002, 7.865195e+002
5.370355e+002, 7.846057e+002
5.375176e+002, 7.834290e+002
5.379997e+002, 7.834100e+002
5.384818e+002, 7.835351e+002
5.389639e+002, 7.834264e+002
5.394460e+002, 7.833461e+002
5.399282e+002, 7.838342e+002
5.404103e+002, 7.849008e+002
5.408924e+002, 7.857763e+002
5.413745e+002, 7.856285e+002
5.418566e+002, 7.844321e+002
5.423387e+002, 7.830799e+002
5.428209e+002, 7.809152e+002
5.433029e+002, 7.794169e+002
5.437850e+002, 7.793017e+002
5.442672e+002, 7.798037e+002
5.447493e+002, 7.801100e+002
5.452314e+002, 7.799944e+002
5.457135e+002, 7.796791e+002
5.461956e+002, 7.793818e+002
5.466777e+002, 7.790974e+002
5.471599e+002, 7.788654e+002
5.476420e+002, 7.789401e+002
5.481241e+002, 7.785372e+002
5.486062e+002, 7.764742e+002
5.490883e+002, 7.737559e+002
5.495704e+002, 7.720674e+002
5.500526e+002, 7.720488e+002
5.505347e+002, 7.723290e+002
5.510168e+002, 7.720875e+002
5.514989e+002, 7.715179e+002
5.519810e+002, 7.709227e+002
5.524631e+002, 7.703555e+002
5.529453e+002, 7.701271e+002
5.534274e+002, 7.707048e+002
5.539095e+002, 7.720914e+002
5.543916e+002, 7.724006e+002
5.548737e+002, 7.706440e+002
5.553558e+002, 7.691583e+002
5.558380e+002, 7.687201e+002
5.563201e+002, 7.688376e+002
5.568022e+002, 7.690293e+002
5.572843e+002, 7.691080e+002
5.577664e+002, 7.689177e+002
5.582485e+002, 7.682374e+002
5.587307e+002, 7.670560e+002
5.592128e+002, 7.657975e+002
5.596949e+002, 7.641902e+002
5.601770e+002, 7.629333e+002
5.606591e+002, 7.624655e+002
5.611412e+002, 7.623407e+002
5.616234e+002, 7.619033e+002
5.621055e+002, 7.609401e+002
5.625876e+002, 7.602413e+002
5.630697e+002, 7.608750e+002
5.635518e+002, 7.623546e+002
5.640339e+002, 7.629418e+002
5.645161e+002, 7.623047e+002
5.649982e+002, 7.614716e+002
5.654803e+002, 7.612513e+002
5.659624e+002, 7.614304e+002
5.664445e+002, 7.610469e+002
5.669266e+002, 7.593486e+002
5.674088e+002, 7.581573e+002
5.678909e+002, 7.583818e+002
5.683730e+002, 7.593195e+002
5.688551e+002, 7.603351e+002
5.693372e+002, 7.611964e+002
5.698193e+002, 7.614813e+002
5.703015e+002, 7.606473e+002
5.707836e+002, 7.587930e+002
5.712657e+002, 7.579349e+002
5.717478e+002, 7.592588e+002
5.722299e+002, 7.599923e+002
5.727120e+002, 7.592686e+002
5.731942e+002, 7.580660e+002
5.736763e+002, 7.571163e+002
5.741584e+002, 7.566136e+002
5.746405e+002, 7.566455e+002
5.751226e+002, 7.576864e+002
5.756047e+002, 7.593736e+002
5.760869e+002, 7.601340e+002
5.765690e+002, 7.598131e+002
5.770511e+002, 7.592059e+002
5.775332e+002, 7.586914e+002
5.780153e+002, 7.580875e+002
5.784974e+002, 7.570229e+002
5.789796e+002, 7.553187e+002
5.794617e+002, 7.539451e+002
5.799438e+002, 7.535560e+002
5.804259e+002, 7.535209e+002
5.809080e+002, 7.531432e+002
5.813901e+002, 7.523863e+002
5.818723e+002, 7.515035e+002
5.823544e+002, 7.506497e+002
5.828365e+002, 7.497987e+002
5.833186e+002, 7.488435e+002
5.838007e+002, 7.475209e+002
5.842828e+002, 7.465123e+002
5.847650e+002, 7.463793e+002
5.852471e+002, 7.460859e+002
5.857292e+002, 7.445906e+002
5.862113e+002, 7.422762e+002
5.866934e+002, 7.405153e+002
5.871755e+002, 7.403353e+002
5.876577e+002, 7.409252e+002
5.881398e+002, 7.401954e+002
5.886219e+002, 7.378356e+002
5.891040e+002, 7.363235e+002
5.895861e+002, 7.367469e+002
5.900682e+002, 7.376752e+002
5.905504e+002, 7.378914e+002
5.910325e+002, 7.374465e+002
5.915146e+002, 7.366237e+002
5.919967e+002, 7.351259e+002
5.924788e+002, 7.336050e+002
5.929609e+002, 7.326672e+002
5.934431e+002, 7.321810e+002
5.939252e+002, 7.317078e+002
5.944073e+002, 7.310831e+002
5.948894e+002, 7.305183e+002
5.953715e+002, 7.303521e+002
5.958536e+002, 7.307523e+002
5.963358e+002, 7.307844e+002
5.968179e+002, 7.304654e+002
5.973000e+002, 7.298227e+002
5.977821e+002, 7.285049e+002
5.982642e+002, 7.269975e+002
5.987463e+002, 7.259774e+002
5.992285e+002, 7.256691e+002
5.997106e+002, 7.257315e+002
6.001927e+002, 7.257936e+002
6.006748e+002, 7.258553e+002
6.011569e+002, 7.260178e+002
6.016390e+002, 7.264915e+002
6.021212e+002, 7.266176e+002
6.026033e+002, 7.256931e+002
6.030854e+002, 7.242706e+002
6.035675e+002, 7.231818e+002
6.040496e+002, 7.225632e+002
6.045317e+002, 7.221469e+002
6.050139e+002, 7.218127e+002
6.054960e+002, 7.215881e+002
6.059781e+002, 7.216342e+002
6.064602e+002, 7.219181e+002
6.069423e+002, 7.219850e+002
6.074244e+002, 7.214505e+002
6.079066e+002, 7.205034e+002
6.083887e+002, 7.199953e+002
6.088708e+002, 7.205916e+002
6.093529e+002, 7.206824e+002
6.098350e+002, 7.194783e+002
6.103171e+002, 7.183641e+002
6.107993e+002, 7.186323e+002
6.112814e+002, 7.199528e+002
6.117635e+002, 7.209550e+002
6.122456e+002, 7.207952e+002
6.127277e+002, 7.197520e+002
6.132098e+002, 7.180571e+002
6.136920e+002, 7.155618e+002
6.141741e+002, 7.141689e+002
6.146562e+002, 7.149111e+002
6.151383e+002, 7.161453e+002
6.156204e+002, 7.161455e+002
6.161025e+002, 7.151185e+002
6.165847e+002, 7.142540e+002
6.170668e+002, 7.136774e+002
6.175489e+002, 7.134449e+002
6.180310e+002, 7.140721e+002
6.185131e+002, 7.149834e+002
6.189952e+002, 7.149158e+002
6.194774e+002, 7.135170e+002
6.199595e+002, 7.116080e+002
6.204416e+002, 7.101094e+002
6.209237e+002, 7.090262e+002
6.214058e+002, 7.082190e+002
6.218879e+002, 7.078137e+002
6.223701e+002, 7.075557e+002
6.228522e+002, 7.077298e+002
6.233343e+002, 7.078387e+002
6.238164e+002, 7.072210e+002
6.242985e+002, 7.058155e+002
6.247806e+002, 7.044290e+002
6.252628e+002, 7.036475e+002
6.257448e+002, 7.033968e+002
6.262269e+002, 7.037025e+002
6.267090e+002, 7.046454e+002
6.271912e+002, 7.051279e+002
6.276733e+002, 7.045222e+002
6.281554e+002, 7.032905e+002
6.286375e+002, 7.021635e+002
6.291196e+002, 7.010082e+002
6.296017e+002, 7.004729e+002
6.300839e+002, 7.012068e+002
6.305660e+002, 7.020891e+002
6.310481e+002, 7.025657e+002
6.315302e+002, 7.025333e+002
6.320123e+002, 7.017638e+002
6.324944e+002, 7.001533e+002
6.329766e+002, 6.983234e+002
6.334587e+002, 6.973601e+002
6.339408e+002, 6.974077e+002
6.344229e+002, 6.975909e+002
6.349050e+002, 6.981827e+002
6.353871e+002, 6.985242e+002
6.358693e+002, 6.981722e+002
6.363514e+002, 6.974675e+002
6.368335e+002, 6.969112e+002
6.373156e+002, 6.966245e+002
6.377977e+002, 6.964931e+002
6.382798e+002, 6.966575e+002
6.387620e+002, 6.968583e+002
6.392441e+002, 6.964354e+002
6.397262e+002, 6.953500e+002
6.402083e+002, 6.945082e+002
6.406904e+002, 6.946168e+002
6.411725e+002, 6.952696e+002
6.416547e+002, 6.950950e+002
6.421368e+002, 6.931812e+002
6.426189e+002, 6.917596e+002
6.431010e+002, 6.910461e+002
6.435831e+002, 6.906269e+002
6.440652e+002, 6.903320e+002
6.445474e+002, 6.901009e+002
6.450295e+002, 6.899243e+002
6.455116e+002, 6.898372e+002
6.459937e+002, 6.896181e+002
6.464758e+002, 6.887324e+002
6.469579e+002, 6.871895e+002
6.474401e+002, 6.861285e+002
6.479222e+002, 6.858565e+002
6.484043e+002, 6.858073e+002
6.488864e+002, 6.855306e+002
6.493685e+002, 6.851404e+002
6.498506e+002, 6.850060e+002
6.503328e+002, 6.853415e+002
6.508149e+002, 6.856565e+002
6.512970e+002, 6.859948e+002
6.517791e+002, 6.860857e+002
6.522612e+002, 6.854703e+002
6.527433e+002, 6.841956e+002
6.532255e+002, 6.827156e+002
6.537076e+002, 6.812781e+002
6.541897e+002, 6.800834e+002
6.546718e+002, 6.799968e+002
6.551539e+002, 6.815851e+002
6.556360e+002, 6.828956e+002
6.561182e+002, 6.836855e+002
6.566003e+002, 6.840862e+002
6.570824e+002, 6.840562e+002
6.575645e+002, 6.836697e+002
6.580466e+002, 6.831191e+002
6.585287e+002, 6.823760e+002
6.590109e+002, 6.816439e+002
6.594930e+002, 6.812050e+002
6.599751e+002, 6.809268e+002
6.604572e+002, 6.803923e+002
6.609393e+002, 6.795062e+002
6.614214e+002, 6.785618e+002
6.619036e+002, 6.777737e+002
6.623857e+002, 6.771550e+002
6.628678e+002, 6.768376e+002
6.633499e+002, 6.774077e+002
6.638320e+002, 6.775131e+002
6.643141e+002, 6.765397e+002
6.647963e+002, 6.754509e+002
6.652784e+002, 6.750338e+002
6.657605e+002, 6.752506e+002
6.662426e+002, 6.756357e+002
6.667247e+002, 6.760441e+002
6.672068e+002, 6.762217e+002
6.676890e+002, 6.755865e+002
6.681711e+002, 6.741628e+002
6.686532e+002, 6.726656e+002
6.691353e+002, 6.710639e+002
6.696174e+002, 6.699075e+002
6.700995e+002, 6.700088e+002
6.705817e+002, 6.711976e+002
6.710638e+002, 6.716724e+002
6.715459e+002, 6.708818e+002
6.720280e+002, 6.700121e+002
6.725101e+002, 6.693830e+002
6.729922e+002, 6.688943e+002
6.734744e+002, 6.683976e+002
6.739565e+002, 6.679022e+002
6.744386e+002, 6.676050e+002
6.749207e+002, 6.677352e+002
6.754028e+002, 6.680392e+002
6.758849e+002, 6.675625e+002
6.763671e+002, 6.660468e+002
6.768492e+002, 6.648961e+002
6.773313e+002, 6.644294e+002
6.778134e+002, 6.643640e+002
6.782955e+002, 6.648574e+002
6.787776e+002, 6.656068e+002
6.792598e+002, 6.654540e+002
6.797419e+002, 6.632552e+002
6.802240e+002, 6.612248e+002
6.807061e+002, 6.608985e+002
6.811882e+002, 6.614944e+002
6.816703e+002, 6.618170e+002
6.821525e+002, 6.616547e+002
6.826346e+002, 6.614007e+002
6.831167e+002, 6.613760e+002
6.835988e+002, 6.615284e+002
6.840809e+002, 6.615832e+002
6.845630e+002, 6.614403e+002
6.850452e+002, 6.614208e+002
6.855273e+002, 6.621006e+002
6.860094e+002, 6.624387e+002
6.864915e+002, 6.614717e+002
6.869736e+002, 6.596328e+002
6.874557e+002, 6.582486e+002
6.879379e+002, 6.579256e+002
6.884200e+002, 6.580162e+002
6.889021e+002, 6.581648e+002
6.893842e+002, 6.582523e+002
6.898663e+002, 6.579180e+002
6.903484e+002, 6.571047e+002
6.908306e+002, 6.562540e+002
6.913127e+002, 6.557092e+002
6.917948e+002, 6.554132e+002
6.922769e+002, 6.550427e+002
6.927590e+002, 6.541098e+002
6.932411e+002, 6.539239e+002
6.937233e+002, 6.554375e+002
6.942054e+002, 6.568610e+002
6.946875e+002, 6.569540e+002
6.951696e+002, 6.560729e+002
6.956517e+002, 6.553544e+002
6.961339e+002, 6.554017e+002
6.966160e+002, 6.554597e+002
6.970981e+002, 6.544160e+002
6.975802e+002, 6.526603e+002
6.980623e+002, 6.516749e+002
6.985444e+002, 6.517342e+002
6.990266e+002, 6.517921e+002
6.995087e+002, 6.509957e+002
6.999908e+002, 6.497004e+002
7.004729e+002, 6.492963e+002
7.009550e+002, 6.509797e+002
7.014371e+002, 6.517059e+002
7.019193e+002, 6.505159e+002
7.024014e+002, 6.492065e+002
7.028835e+002, 6.489505e+002
7.033656e+002, 6.494340e+002
7.038477e+002, 6.498392e+002
7.043298e+002, 6.498307e+002
7.048120e+002, 6.495166e+002
7.052941e+002, 6.488477e+002
7.057762e+002, 6.479513e+002
7.062583e+002, 6.475842e+002
7.067404e+002, 6.479365e+002
7.072225e+002, 6.479669e+002
7.077046e+002, 6.469222e+002
7.081867e+002, 6.452552e+002
7.086688e+002, 6.440814e+002
7.091509e+002, 6.433977e+002
7.096331e+002, 6.431702e+002
7.101152e+002, 6.437581e+002
7.105973e+002, 6.444406e+002
7.110794e+002, 6.449558e+002
7.115615e+002, 6.452084e+002
7.120436e+002, 6.449639e+002
7.125258e+002, 6.441539e+002
7.130079e+002, 6.433819e+002
7.134900e+002, 6.435281e+002
7.139721e+002, 6.443741e+002
7.144542e+002, 6.447013e+002
7.149363e+002, 6.444344e+002
7.154185e+002, 6.438881e+002
7.159006e+002, 6.430958e+002
7.163827e+002, 6.422198e+002
7.168648e+002, 6.414839e+002
7.173469e+002, 6.408492e+002
7.178290e+002, 6.405657e+002
7.183112e+002, 6.410782e+002
7.187933e+002, 6.414986e+002
7.192754e+002, 6.413723e+002
7.197575e+002, 6.408817e+002
7.202396e+002, 6.402369e+002
7.207217e+002, 6.395323e+002
7.212039e+002, 6.389044e+002
7.216860e+002, 6.384434e+002
7.221681e+002, 6.381760e+002
7.226502e+002, 6.383369e+002
7.231323e+002, 6.390185e+002
7.236144e+002, 6.393606e+002
7.240966e+002, 6.390157e+002
7.245787e+002, 6.383380e+002
7.250608e+002, 6.376417e+002
7.255429e+002, 6.369296e+002
7.260250e+002, 6.364746e+002
7.265071e+002, 6.367049e+002
7.269893e+002, 6.367045e+002
7.274714e+002, 6.360253e+002
7.279535e+002, 6.350162e+002
7.284356e+002, 6.338665e+002
7.289177e+002, 6.327560e+002
7.293998e+002, 6.321565e+002
7.298820e+002, 6.325206e+002
7.303641e+002, 6.334193e+002
7.308462e+002, 6.338704e+002
7.313283e+002, 6.338558e+002
7.318104e+002, 6.338109e+002
7.322925e+002, 6.338298e+002
7.327747e+002, 6.337889e+002
7.332568e+002, 6.335107e+002
7.337389e+002, 6.330698e+002
7.342210e+002, 6.328779e+002
7.347031e+002, 6.332950e+002
7.351852e+002, 6.333944e+002
7.356674e+002, 6.326603e+002
7.361495e+002, 6.317943e+002
7.366316e+002, 6.312685e+002
7.371137e+002, 6.311301e+002
7.375958e+002, 6.314482e+002
7.380779e+002, 6.323221e+002
7.385601e+002, 6.330524e+002
7.390422e+002, 6.322565e+002
7.395243e+002, 6.301663e+002
7.400064e+002, 6.291870e+002
7.404885e+002, 6.297861e+002
7.409706e+002, 6.301995e+002
7.414528e+002, 6.292358e+002
7.419349e+002, 6.276203e+002
7.424170e+002, 6.269988e+002
7.428991e+002, 6.276133e+002
7.433812e+002, 6.282803e+002
7.438633e+002, 6.293848e+002
7.443455e+002, 6.300300e+002
7.448276e+002, 6.294144e+002
7.453097e+002, 6.281575e+002
7.457918e+002, 6.271222e+002
7.462739e+002, 6.265892e+002
7.467560e+002, 6.264825e+002
7.472382e+002, 6.271673e+002
7.477203e+002, 6.281531e+002
7.482024e+002, 6.275085e+002
7.486845e+002, 6.251736e+002
7.491666e+002, 6.238823e+002
7.496487e+002, 6.248480e+002
7.501309e+002, 6.264446e+002
7.506130e+002, 6.266849e+002
7.510951e+002, 6.254521e+002
7.515772e+002, 6.249965e+002
7.520593e+002, 6.262712e+002
7.525414e+002, 6.270065e+002
7.530236e+002, 6.261996e+002
7.535057e+002, 6.249957e+002
7.539878e+002, 6.244032e+002
7.544699e+002, 6.244470e+002
7.549520e+002, 6.246081e+002
7.554341e+002, 6.245902e+002
7.559163e+002, 6.245485e+002
7.563984e+002, 6.249698e+002
7.568805e+002, 6.256058e+002
7.573626e+002, 6.252509e+002
7.578447e+002, 6.236685e+002
7.583268e+002, 6.217037e+002
7.588090e+002, 6.197696e+002
7.592911e+002, 6.180862e+002
7.597732e+002, 6.173981e+002
7.602553e+002, 6.184203e+002
7.607374e+002, 6.191767e+002
7.612195e+002, 6.200040e+002
7.617017e+002, 6.202550e+002
7.621838e+002, 6.190055e+002
7.626659e+002, 6.172120e+002
7.631480e+002, 6.164648e+002
7.636301e+002, 6.172379e+002
7.641122e+002, 6.182337e+002
7.645944e+002, 6.188261e+002
7.650765e+002, 6.188610e+002
7.655586e+002, 6.175270e+002
7.660407e+002, 6.152011e+002
7.665228e+002, 6.141248e+002
7.670049e+002, 6.152126e+002
7.674871e+002, 6.170800e+002
7.679692e+002, 6.179335e+002
7.684513e+002, 6.177355e+002
7.689334e+002, 6.174183e+002
7.694155e+002, 6.167979e+002
7.698976e+002, 6.163411e+002
7.703798e+002, 6.161190e+002
7.708619e+002, 6.161055e+002
7.713440e+002, 6.164934e+002
7.718261e+002, 6.171367e+002
7.723082e+002, 6.173583e+002
7.727903e+002, 6.167036e+002
7.732725e+002, 6.158558e+002
7.737546e+002, 6.152538e+002
7.742367e+002, 6.147872e+002
7.747188e+002, 6.141988e+002
7.752009e+002, 6.135214e+002
7.756830e+002, 6.131420e+002
7.761652e+002, 6.133408e+002
7.766473e+002, 6.138820e+002
7.771294e+002, 6.141908e+002
7.776115e+002, 6.142205e+002
7.780936e+002, 6.143711e+002
7.785757e+002, 6.147815e+002
7.790579e+002, 6.151080e+002
7.795400e+002, 6.150950e+002
7.800221e+002, 6.149103e+002
7.805042e+002, 6.147886e+002
7.809863e+002, 6.146932e+002
7.814684e+002, 6.148713e+002
7.819506e+002, 6.159150e+002
7.824327e+002, 6.167169e+002
7.829148e+002, 6.162793e+002
7.833969e+002, 6.152095e+002
7.838790e+002, 6.144368e+002
7.843611e+002, 6.142545e+002
7.848433e+002, 6.146314e+002
7.853254e+002, 6.157945e+002
7.858075e+002, 6.173365e+002
7.862896e+002, 6.178057e+002
7.867717e+002, 6.171771e+002
7.872538e+002, 6.171638e+002
7.877360e+002, 6.183875e+002
7.882181e+002, 6.197374e+002
7.887002e+002, 6.202003e+002
7.891823e+002, 6.198668e+002
7.896644e+002, 6.194908e+002
7.901465e+002, 6.184597e+002
7.906286e+002, 6.182678e+002
7.911107e+002, 6.194855e+002
7.915928e+002, 6.211526e+002
7.920750e+002, 6.228497e+002
7.925571e+002, 6.244687e+002
7.930392e+002, 6.259137e+002
7.935213e+002, 6.271259e+002
7.940034e+002, 6.283348e+002
7.944855e+002, 6.298295e+002
7.949677e+002, 6.314227e+002
7.954498e+002, 6.326010e+002
7.959319e+002, 6.334518e+002
7.964140e+002, 6.346179e+002
7.968961e+002, 6.363557e+002
7.973782e+002, 6.386493e+002
7.978604e+002, 6.415197e+002
7.983425e+002, 6.450021e+002
7.988246e+002, 6.485004e+002
7.993067e+002, 6.516965e+002
7.997888e+002, 6.554969e+002
8.002709e+002, 6.600059e+002
8.007531e+002, 6.653012e+002
8.012352e+002, 6.715118e+002
8.017173e+002, 6.785856e+002
8.021994e+002, 6.861419e+002
8.026815e+002, 6.935549e+002
8.031636e+002, 7.021853e+002
8.036458e+002, 7.129308e+002
8.041279e+002, 7.250853e+002
8.046100e+002, 7.377728e+002
8.050921e+002, 7.509864e+002
8.055742e+002, 7.653578e+002
8.060563e+002, 7.811300e+002
8.065385e+002, 7.982145e+002
8.070206e+002, 8.165610e+002
8.075027e+002, 8.361370e+002
8.079848e+002, 8.559827e+002
8.084669e+002, 8.761070e+002
8.089490e+002, 8.967299e+002
8.094312e+002, 9.179297e+002
8.099133e+002, 9.395895e+002
8.103954e+002, 9.617535e+002
8.108775e+002, 9.847108e+002
8.113596e+002, 1.006084e+003
8.118417e+002, 1.025940e+003
8.123239e+002, 1.044066e+003
8.128060e+002, 1.061023e+003
8.132881e+002, 1.075723e+003
8.137702e+002, 1.086577e+003
8.142523e+002, 1.093918e+003
8.147344e+002, 1.099623e+003
8.152166e+002, 1.104729e+003
8.156987e+002, 1.108323e+003
8.161808e+002, 1.108951e+003
8.166629e+002, 1.107407e+003
8.171450e+002, 1.105524e+003
8.176271e+002, 1.103440e+003
8.181093e+002, 1.100245e+003
8.185914e+002, 1.095438e+003
8.190735e+002, 1.089090e+003
8.195556e+002, 1.081347e+003
8.200377e+002, 1.072193e+003
8.205198e+002, 1.061647e+003
8.210020e+002, 1.049937e+003
8.214841e+002, 1.036178e+003
8.219662e+002, 1.018933e+003
8.224483e+002, 1.000240e+003
8.229304e+002, 9.825591e+002
8.234125e+002, 9.658388e+002
8.238947e+002, 9.484713e+002
8.243768e+002, 9.295852e+002
8.248589e+002, 9.107858e+002
8.253410e+002, 8.919727e+002
8.258231e+002, 8.740449e+002
8.263052e+002, 8.583573e+002
8.267874e+002, 8.446565e+002
8.272695e+002, 8.314605e+002
8.277516e+002, 8.178015e+002
8.282337e+002, 8.046329e+002
8.287158e+002, 7.932897e+002
8.291979e+002, 7.835723e+002
8.296801e+002, 7.745302e+002
8.301622e+002, 7.661204e+002
8.306443e+002, 7.591371e+002
8.311264e+002, 7.541454e+002
8.316085e+002, 7.503873e+002
8.320906e+002, 7.465428e+002
8.325728e+002, 7.424779e+002
8.330549e+002, 7.393795e+002
8.335370e+002, 7.372094e+002
8.340191e+002, 7.361295e+002
8.345012e+002, 7.369442e+002
8.349833e+002, 7.381800e+002
8.354655e+002, 7.387097e+002
8.359476e+002, 7.385577e+002
8.364297e+002, 7.382078e+002
8.369118e+002, 7.373060e+002
8.373939e+002, 7.370379e+002
8.378760e+002, 7.385743e+002
8.383582e+002, 7.407504e+002
8.388403e+002, 7.424275e+002
8.393224e+002, 7.434556e+002
8.398045e+002, 7.440908e+002
8.402866e+002, 7.444618e+002
8.407687e+002, 7.439578e+002
8.412509e+002, 7.411204e+002
8.417330e+002, 7.365131e+002
8.422151e+002, 7.336891e+002
8.426972e+002, 7.328483e+002
8.431793e+002, 7.316198e+002
8.436614e+002, 7.291759e+002
8.441436e+002, 7.259877e+002
8.446257e+002, 7.225060e+002
8.451078e+002, 7.187316e+002
8.455899e+002, 7.151727e+002
8.460720e+002, 7.120272e+002
8.465541e+002, 7.088166e+002
8.470363e+002, 7.055834e+002
8.475184e+002, 7.021781e+002
8.480005e+002, 6.982462e+002
8.484826e+002, 6.940997e+002
8.489647e+002, 6.905008e+002
8.494468e+002, 6.878096e+002
8.499290e+002, 6.849298e+002
8.504111e+002, 6.808007e+002
8.508932e+002, 6.765583e+002
8.513753e+002, 6.734782e+002
8.518574e+002, 6.712011e+002
8.523395e+002, 6.688414e+002
8.528217e+002, 6.661064e+002
8.533038e+002, 6.629501e+002
8.537859e+002, 6.591410e+002
8.542680e+002, 6.550911e+002
8.547501e+002, 6.524891e+002
8.552322e+002, 6.513301e+002
8.557144e+002, 6.489841e+002
8.561965e+002, 6.446703e+002
8.566786e+002, 6.402615e+002
8.571607e+002, 6.371086e+002
8.576428e+002, 6.349783e+002
8.581249e+002, 6.331469e+002
8.586071e+002, 6.319631e+002
8.590892e+002, 6.303175e+002
8.595713e+002, 6.274168e+002
8.600534e+002, 6.249850e+002
8.605355e+002, 6.240198e+002
8.610176e+002, 6.236187e+002
8.614998e+002, 6.227615e+002
8.619819e+002, 6.213162e+002
8.624640e+002, 6.195478e+002
8.629461e+002, 6.171016e+002
8.634282e+002, 6.148400e+002
8.639103e+002, 6.135875e+002
8.643925e+002, 6.127673e+002
8.648746e+002, 6.116165e+002
8.653567e+002, 6.100523e+002
8.658388e+002, 6.083301e+002
8.663209e+002, 6.065773e+002
8.668030e+002, 6.049119e+002
8.672852e+002, 6.036472e+002
8.677673e+002, 6.026717e+002
8.682494e+002, 6.013113e+002
8.687315e+002, 5.995182e+002
8.692136e+002, 5.977131e+002
8.696957e+002, 5.960002e+002
8.701779e+002, 5.945877e+002
8.706600e+002, 5.938562e+002
8.711421e+002, 5.938136e+002
8.716242e+002, 5.933060e+002
8.721063e+002, 5.920781e+002
8.725884e+002, 5.908311e+002
8.730705e+002, 5.893962e+002
8.735526e+002, 5.882459e+002
8.740347e+002, 5.879378e+002
8.745168e+002, 5.881034e+002
8.749990e+002, 5.877375e+002
8.754811e+002, 5.863471e+002
8.759632e+002, 5.854596e+002
8.764453e+002, 5.861808e+002
8.769274e+002, 5.870472e+002
8.774095e+002, 5.871113e+002
8.778917e+002, 5.864993e+002
8.783738e+002, 5.853553e+002
8.788559e+002, 5.838356e+002
8.793380e+002, 5.825033e+002
8.798201e+002, 5.817375e+002
8.803022e+002, 5.814874e+002
8.807844e+002, 5.820875e+002
8.812665e+002, 5.831487e+002
8.817486e+002, 5.829694e+002
8.822307e+002, 5.813643e+002
8.827128e+002, 5.800225e+002
8.831949e+002, 5.800521e+002
8.836771e+002, 5.808304e+002
8.841592e+002, 5.810082e+002
8.846413e+002, 5.804414e+002
8.851234e+002, 5.804047e+002
8.856055e+002, 5.811829e+002
8.860876e+002, 5.817609e+002
8.865698e+002, 5.815917e+002
8.870519e+002, 5.812693e+002
8.875340e+002, 5.815280e+002
8.880161e+002, 5.823185e+002
8.884982e+002, 5.828861e+002
8.889803e+002, 5.828583e+002
8.894625e+002, 5.831013e+002
8.899446e+002, 5.841922e+002
8.904267e+002, 5.852020e+002
8.909088e+002, 5.852653e+002
8.913909e+002, 5.848271e+002
8.918730e+002, 5.848630e+002
8.923552e+002, 5.856592e+002
8.928373e+002, 5.865258e+002
8.933194e+002, 5.871836e+002
8.938015e+002, 5.875655e+002
8.942836e+002, 5.875846e+002
8.947657e+002, 5.872778e+002
8.952479e+002, 5.866393e+002
8.957300e+002, 5.857217e+002
8.962121e+002, 5.847717e+002
8.966942e+002, 5.839794e+002
8.971763e+002, 5.832570e+002
8.976584e+002, 5.823424e+002
8.981406e+002, 5.812868e+002
8.986227e+002, 5.806970e+002
8.991048e+002, 5.806754e+002
8.995869e+002, 5.804262e+002
9.000690e+002, 5.794382e+002
9.005511e+002, 5.784536e+002
9.010333e+002, 5.788282e+002
9.015154e+002, 5.807108e+002
9.019975e+002, 5.804866e+002
9.024796e+002, 5.770172e+002
9.029617e+002, 5.735317e+002
9.034438e+002, 5.699998e+002
9.039260e+002, 5.672575e+002
9.044081e+002, 5.661757e+002
9.048902e+002, 5.662752e+002
9.053723e+002, 5.663919e+002
9.058544e+002, 5.664581e+002
9.063365e+002, 5.663934e+002
9.068187e+002, 5.660139e+002
9.073008e+002, 5.656710e+002
9.077829e+002, 5.658707e+002
9.082650e+002, 5.660801e+002
9.087471e+002, 5.654420e+002
9.092292e+002, 5.639288e+002
9.097114e+002, 5.623609e+002
9.101935e+002, 5.611053e+002
9.106756e+002, 5.601871e+002
9.111577e+002, 5.597197e+002
9.116398e+002, 5.595650e+002
9.121219e+002, 5.595833e+002
9.126041e+002, 5.596820e+002
9.130862e+002, 5.596233e+002
9.135683e+002, 5.592967e+002
9.140504e+002, 5.587363e+002
9.145325e+002, 5.578523e+002
9.150146e+002, 5.567692e+002
9.154968e+002, 5.561752e+002
9.159789e+002, 5.560829e+002
9.164610e+002, 5.563196e+002
9.169431e+002, 5.569562e+002
9.174252e+002, 5.573851e+002
9.179073e+002, 5.570340e+002
9.183895e+002, 5.561410e+002
9.188716e+002, 5.555817e+002
9.193537e+002, 5.554979e+002
9.198358e+002, 5.553590e+002
9.203179e+002, 5.550355e+002
9.208000e+002, 5.548281e+002
9.212822e+002, 5.548941e+002
9.217643e+002, 5.551011e+002
9.222464e+002, 5.553544e+002
9.227285e+002, 5.556402e+002
9.232106e+002, 5.558142e+002
9.236927e+002, 5.558576e+002
9.241749e+002, 5.557800e+002
9.246570e+002, 5.556901e+002
9.251391e+002, 5.553846e+002
9.256212e+002, 5.542484e+002
9.261033e+002, 5.528949e+002
9.265854e+002, 5.527581e+002
9.270676e+002, 5.542965e+002
9.275497e+002, 5.557079e+002
9.280318e+002, 5.557525e+002
9.285139e+002, 5.551521e+002
9.289960e+002, 5.543961e+002
9.294781e+002, 5.536343e+002
9.299603e+002, 5.531458e+002
9.304424e+002, 5.529298e+002
9.309245e+002, 5.526822e+002
9.314066e+002, 5.521816e+002
9.318887e+002, 5.517079e+002
9.323708e+002, 5.519586e+002
9.328530e+002, 5.526302e+002
9.333351e+002, 5.521625e+002
9.338172e+002, 5.505751e+002
9.342993e+002, 5.497385e+002
9.347814e+002, 5.503880e+002
9.352635e+002, 5.515924e+002
9.357457e+002, 5.523657e+002
9.362278e+002, 5.527857e+002
9.367099e+002, 5.533698e+002
9.371920e+002, 5.542343e+002
9.376741e+002, 5.547320e+002
9.381563e+002, 5.547278e+002
9.386384e+002, 5.544640e+002
9.391205e+002, 5.538801e+002
9.396026e+002, 5.532726e+002
9.400847e+002, 5.532294e+002
9.405668e+002, 5.538914e+002
9.410490e+002, 5.542879e+002
9.415311e+002, 5.542886e+002
9.420132e+002, 5.542216e+002
9.424953e+002, 5.535527e+002
9.429774e+002, 5.533787e+002
9.434595e+002, 5.549462e+002
9.439417e+002, 5.575989e+002
9.444238e+002, 5.596508e+002
9.449059e+002, 5.608043e+002
9.453880e+002, 5.612595e+002
9.458701e+002, 5.605533e+002
9.463522e+002, 5.597463e+002
9.468344e+002, 5.594695e+002
9.473165e+002, 5.595699e+002
9.477986e+002, 5.599908e+002
9.482807e+002, 5.605643e+002
9.487628e+002, 5.608026e+002
9.492449e+002, 5.605408e+002
9.497271e+002, 5.596005e+002
9.502092e+002, 5.572783e+002
9.506913e+002, 5.544708e+002
9.511734e+002, 5.525466e+002
9.516555e+002, 5.514277e+002
9.521376e+002, 5.504658e+002
9.526198e+002, 5.494363e+002
9.531019e+002, 5.485536e+002
9.535840e+002, 5.481432e+002
9.540661e+002, 5.478669e+002
9.545482e+002, 5.467177e+002
9.550303e+002, 5.448696e+002
9.555124e+002, 5.434900e+002
9.559945e+002, 5.427362e+002
9.564766e+002, 5.422418e+002
9.569587e+002, 5.418300e+002
9.574409e+002, 5.414286e+002
9.579230e+002, 5.409100e+002
9.584051e+002, 5.402735e+002
9.588872e+002, 5.397541e+002
9.593693e+002, 5.393646e+002
9.598514e+002, 5.390479e+002
9.603336e+002, 5.388641e+002
9.608157e+002, 5.385665e+002
9.612978e+002, 5.378511e+002
9.617799e+002, 5.369635e+002
9.622620e+002, 5.366415e+002
9.627441e+002, 5.372076e+002
9.632263e+002, 5.373358e+002
9.637084e+002, 5.363433e+002
9.641905e+002, 5.358473e+002
9.646726e+002, 5.371589e+002
9.651547e+002, 5.384146e+002
9.656368e+002, 5.377612e+002
9.661190e+002, 5.355813e+002
9.666011e+002, 5.337128e+002
9.670832e+002, 5.318491e+002
9.675653e+002, 5.313779e+002
9.680474e+002, 5.339322e+002
9.685295e+002, 5.365123e+002
9.690117e+002, 5.375994e+002
9.694938e+002, 5.375555e+002
9.699759e+002, 5.367689e+002
9.704580e+002, 5.354180e+002
9.709401e+002, 5.339939e+002
9.714222e+002, 5.324301e+002
9.719044e+002, 5.313137e+002
9.723865e+002, 5.314505e+002
9.728686e+002, 5.318812e+002
9.733507e+002, 5.315170e+002
9.738328e+002, 5.305958e+002
9.743149e+002, 5.297149e+002
9.747971e+002, 5.291121e+002
9.752792e+002, 5.290817e+002
9.757613e+002, 5.303865e+002
9.762434e+002, 5.318071e+002
9.767255e+002, 5.315029e+002
9.772076e+002, 5.301340e+002
9.776898e+002, 5.290099e+002
9.781719e+002, 5.282914e+002
9.786540e+002, 5.277460e+002
9.791361e+002, 5.272580e+002
9.796182e+002, 5.268590e+002
9.801003e+002, 5.266239e+002
9.805825e+002, 5.264946e+002
9.810646e+002, 5.261210e+002
9.815467e+002, 5.256013e+002
9.820288e+002, 5.259513e+002
9.825109e+002, 5.273672e+002
9.829930e+002, 5.285212e+002
9.834752e+002, 5.285447e+002
9.839573e+002, 5.277919e+002
9.844394e+002, 5.267148e+002
9.849215e+002, 5.253056e+002
9.854036e+002, 5.251915e+002
9.858857e+002, 5.267287e+002
9.863679e+002, 5.273031e+002
9.868500e+002, 5.259186e+002
9.873321e+002, 5.244458e+002
9.878142e+002, 5.245284e+002
9.882963e+002, 5.255651e+002
9.887784e+002, 5.255969e+002
9.892606e+002, 5.241732e+002
9.897427e+002, 5.233530e+002
9.902248e+002, 5.234232e+002
9.907069e+002, 5.235487e+002
9.911890e+002, 5.235692e+002
9.916711e+002, 5.234231e+002
9.921533e+002, 5.228490e+002
9.926354e+002, 5.220051e+002
9.931175e+002, 5.218677e+002
9.935996e+002, 5.230922e+002
9.940817e+002, 5.238438e+002
9.945638e+002, 5.241057e+002
9.950460e+002, 5.238863e+002
9.955281e+002, 5.228481e+002
9.960102e+002, 5.215677e+002
9.964923e+002, 5.205037e+002
9.969744e+002, 5.197308e+002
9.974565e+002, 5.195172e+002
9.979387e+002, 5.201048e+002
9.984208e+002, 5.209371e+002
9.989029e+002, 5.223021e+002
9.993850e+002, 5.234193e+002
9.998671e+002, 5.238056e+002
1.000349e+003, 5.236175e+002
1.000831e+003, 5.228947e+002
1.001313e+003, 5.217635e+002
1.001796e+003, 5.209968e+002
1.002278e+003, 5.210795e+002
1.002760e+003, 5.213489e+002
1.003242e+003, 5.216465e+002
1.003724e+003, 5.217924e+002
1.004206e+003, 5.215466e+002
1.004688e+003, 5.210405e+002
1.005170e+003, 5.204829e+002
1.005653e+003, 5.199533e+002
1.006135e+003, 5.195844e+002
1.006617e+003, 5.194867e+002
1.007099e+003, 5.195443e+002
1.007581e+003, 5.200422e+002
1.008063e+003, 5.203818e+002
1.008545e+003, 5.192477e+002
1.009027e+003, 5.172021e+002
1.009509e+003, 5.161566e+002
1.009992e+003, 5.167211e+002
1.010474e+003, 5.175475e+002
1.010956e+003, 5.173453e+002
1.011438e+003, 5.168386e+002
1.011920e+003, 5.171815e+002
1.012402e+003, 5.180577e+002
1.012884e+003, 5.189473e+002
1.013366e+003, 5.196456e+002
1.013849e+003, 5.194990e+002
1.014331e+003, 5.182511e+002
1.014813e+003, 5.170612e+002
1.015295e+003, 5.175074e+002
1.015777e+003, 5.187532e+002
1.016259e+003, 5.184468e+002
1.016741e+003, 5.169888e+002
1.017223e+003, 5.164217e+002
1.017705e+003, 5.169540e+002
1.018188e+003, 5.172430e+002
1.018670e+003, 5.165959e+002
1.019152e+003, 5.154199e+002
1.019634e+003, 5.140417e+002
1.020116e+003, 5.126895e+002
1.020598e+003, 5.127665e+002
1.021080e+003, 5.141970e+002
1.021562e+003, 5.148690e+002
1.022044e+003, 5.143831e+002
1.022527e+003, 5.137917e+002
1.023009e+003, 5.137014e+002
1.023491e+003, 5.138417e+002
1.023973e+003, 5.138134e+002
1.024455e+003, 5.136125e+002
1.024937e+003, 5.130715e+002
1.025419e+003, 5.121058e+002
1.025901e+003, 5.115731e+002
1.026384e+003, 5.116843e+002
1.026866e+003, 5.120372e+002
1.027348e+003, 5.124530e+002
1.027830e+003, 5.128118e+002
1.028312e+003, 5.129107e+002
1.028794e+003, 5.127552e+002
1.029276e+003, 5.121849e+002
1.029758e+003, 5.110252e+002
1.030240e+003, 5.100349e+002
1.030723e+003, 5.092683e+002
1.031205e+003, 5.089041e+002
1.031687e+003, 5.091071e+002
1.032169e+003, 5.097444e+002
1.032651e+003, 5.106001e+002
1.033133e+003, 5.117277e+002
1.033615e+003, 5.125925e+002
1.034097e+003, 5.131550e+002
1.034579e+003, 5.135104e+002
1.035062e+003, 5.135046e+002
1.035544e+003, 5.135559e+002
1.036026e+003, 5.140739e+002
1.036508e+003, 5.147522e+002
1.036990e+003, 5.149692e+002
1.037472e+003, 5.147067e+002
1.037954e+003, 5.140551e+002
1.038436e+003, 5.125872e+002
1.038919e+003, 5.114216e+002
1.039401e+003, 5.108476e+002
1.039883e+003, 5.105318e+002
1.040365e+003, 5.104442e+002
1.040847e+003, 5.104142e+002
1.041329e+003, 5.099862e+002
1.041811e+003, 5.089848e+002
1.042293e+003, 5.085336e+002
1.042776e+003, 5.093467e+002
1.043258e+003, 5.097443e+002
1.043740e+003, 5.091095e+002
1.044222e+003, 5.082819e+002
1.044704e+003, 5.078045e+002
1.045186e+003, 5.075204e+002
1.045668e+003, 5.070552e+002
1.046150e+003, 5.063224e+002
1.046632e+003, 5.058780e+002
1.047115e+003, 5.060715e+002
1.047597e+003, 5.061556e+002
1.048079e+003, 5.058045e+002
1.048561e+003, 5.054227e+002
1.049043e+003, 5.052768e+002
1.049525e+003, 5.053028e+002
1.050007e+003, 5.053654e+002
1.050489e+003, 5.054510e+002
1.050971e+003, 5.055510e+002
1.051454e+003, 5.053896e+002
1.051936e+003, 5.056136e+002
1.052418e+003, 5.072875e+002
1.052900e+003, 5.085683e+002
1.053382e+003, 5.075166e+002
1.053864e+003, 5.053506e+002
1.054346e+003, 5.044241e+002
1.054828e+003, 5.050926e+002
1.055311e+003, 5.057975e+002
1.055793e+003, 5.063790e+002
1.056275e+003, 5.065950e+002
1.056757e+003, 5.061679e+002
1.057239e+003, 5.055368e+002
1.057721e+003, 5.049962e+002
1.058203e+003, 5.045034e+002
1.058685e+003, 5.038223e+002
1.059167e+003, 5.029365e+002
1.059650e+003, 5.025088e+002
1.060132e+003, 5.029142e+002
1.060614e+003, 5.036007e+002
1.061096e+003, 5.049684e+002
1.061578e+003, 5.059444e+002
1.062060e+003, 5.053080e+002
1.062542e+003, 5.038979e+002
1.063024e+003, 5.031264e+002
1.063506e+003, 5.031992e+002
1.063989e+003, 5.034436e+002
1.064471e+003, 5.036895e+002
1.064953e+003, 5.039535e+002
1.065435e+003, 5.047253e+002
1.065917e+003, 5.050381e+002
1.066399e+003, 5.034679e+002
1.066881e+003, 5.012826e+002
1.067363e+003, 5.006468e+002
1.067846e+003, 5.017047e+002
1.068328e+003, 5.025813e+002
1.068810e+003, 5.026558e+002
1.069292e+003, 5.022988e+002
1.069774e+003, 5.008341e+002
1.070256e+003, 4.998605e+002
1.070738e+003, 5.012159e+002
1.071220e+003, 5.034702e+002
1.071703e+003, 5.046241e+002
1.072185e+003, 5.044601e+002
1.072667e+003, 5.038442e+002
1.073149e+003, 5.029629e+002
1.073631e+003, 5.019762e+002
1.074113e+003, 5.005787e+002
1.074595e+003, 4.994981e+002
1.075077e+003, 4.994594e+002
1.075559e+003, 4.999322e+002
1.076042e+003, 5.002526e+002
1.076524e+003, 5.003521e+002
1.077006e+003, 5.004897e+002
1.077488e+003, 5.008814e+002
1.077970e+003, 5.009109e+002
1.078452e+003, 4.999198e+002
1.078934e+003, 4.988781e+002
1.079416e+003, 4.984985e+002
1.079898e+003, 4.984021e+002
1.080380e+003, 4.980573e+002
1.080863e+003, 4.975243e+002
1.081345e+003, 4.972353e+002
1.081827e+003, 4.973607e+002
1.082309e+003, 4.975450e+002
1.082791e+003, 4.978692e+002
1.083273e+003, 4.979205e+002
1.083755e+003, 4.970195e+002
1.084237e+003, 4.960378e+002
1.084720e+003, 4.960904e+002
1.085202e+003, 4.968534e+002
1.085684e+003, 4.971664e+002
1.086166e+003, 4.966581e+002
1.086648e+003, 4.963843e+002
1.087130e+003, 4.972264e+002
1.087612e+003, 4.978701e+002
1.088094e+003, 4.972988e+002
1.088577e+003, 4.965059e+002
1.089059e+003, 4.964005e+002
1.089541e+003, 4.968370e+002
1.090023e+003, 4.974565e+002
1.090505e+003, 4.981911e+002
1.090987e+003, 4.985405e+002
1.091469e+003, 4.980672e+002
1.091951e+003, 4.975186e+002
1.092433e+003, 4.975412e+002
1.092916e+003, 4.973056e+002
1.093398e+003, 4.954992e+002
1.093880e+003, 4.932831e+002
1.094362e+003, 4.929985e+002
1.094844e+003, 4.947780e+002
1.095326e+003, 4.956383e+002
1.095808e+003, 4.936960e+002
1.096290e+003, 4.921011e+002
1.096772e+003, 4.922537e+002
1.097255e+003, 4.926742e+002
1.097737e+003, 4.922403e+002
1.098219e+003, 4.916034e+002
1.098701e+003, 4.917999e+002
1.099183e+003, 4.927837e+002
1.099665e+003, 4.935716e+002
1.100147e+003, 4.939621e+002
1.100629e+003, 4.940830e+002
1.101112e+003, 4.940229e+002
1.101594e+003, 4.936256e+002
1.102076e+003, 4.923438e+002
1.102558e+003, 4.910396e+002
1.103040e+003, 4.906941e+002
1.103522e+003, 4.911440e+002
1.104004e+003, 4.915779e+002
1.104486e+003, 4.919281e+002
1.104969e+003, 4.920967e+002
1.105451e+003, 4.918676e+002
1.105933e+003, 4.917112e+002
1.106415e+003, 4.917295e+002
1.106897e+003, 4.919399e+002
1.107379e+003, 4.926000e+002
1.107861e+003, 4.934057e+002
1.108343e+003, 4.935513e+002
1.108825e+003, 4.928101e+002
1.109307e+003, 4.923938e+002
1.109790e+003, 4.926875e+002
1.110272e+003, 4.929139e+002
1.110754e+003, 4.929559e+002
1.111236e+003, 4.928500e+002
1.111718e+003, 4.926182e+002
1.112200e+003, 4.922563e+002
1.112682e+003, 4.916540e+002
1.113164e+003, 4.907836e+002
1.113647e+003, 4.903430e+002
1.114129e+003, 4.905560e+002
1.114611e+003, 4.908423e+002
1.115093e+003, 4.913343e+002
1.115575e+003, 4.916669e+002
1.116057e+003, 4.916519e+002
1.116539e+003, 4.914336e+002
1.117021e+003, 4.911472e+002
1.117504e+003, 4.908010e+002
1.117986e+003, 4.904556e+002
1.118468e+003, 4.901060e+002
1.118950e+003, 4.897484e+002
1.119432e+003, 4.892281e+002
1.119914e+003, 4.890424e+002
1.120396e+003, 4.895969e+002
1.120878e+003, 4.901031e+002
1.121360e+003, 4.897530e+002
1.121843e+003, 4.889366e+002
1.122325e+003, 4.889026e+002
1.122807e+003, 4.899245e+002
1.123289e+003, 4.899175e+002
1.123771e+003, 4.883319e+002
1.124253e+003, 4.876830e+002
1.124735e+003, 4.887659e+002
1.125217e+003, 4.901555e+002
1.125699e+003, 4.911192e+002
1.126182e+003, 4.914663e+002
1.126664e+003, 4.907105e+002
1.127146e+003, 4.889442e+002
1.127628e+003, 4.878447e+002
1.128110e+003, 4.874421e+002
1.128592e+003, 4.875936e+002
1.129074e+003, 4.883918e+002
1.129556e+003, 4.888206e+002
1.130039e+003, 4.883470e+002
1.130521e+003, 4.877407e+002
1.131003e+003, 4.879168e+002
1.131485e+003, 4.886088e+002
1.131967e+003, 4.889174e+002
1.132449e+003, 4.888508e+002
1.132931e+003, 4.884601e+002
1.133413e+003, 4.877650e+002
1.133896e+003, 4.873952e+002
1.134378e+003, 4.875428e+002
1.134860e+003, 4.878581e+002
1.135342e+003, 4.880757e+002
1.135824e+003, 4.882721e+002
1.136306e+003, 4.887802e+002
1.136788e+003, 4.893649e+002
1.137270e+003, 4.887422e+002
1.137752e+003, 4.872869e+002
1.138234e+003, 4.870013e+002
1.138717e+003, 4.881059e+002
1.139199e+003, 4.893327e+002
1.139681e+003, 4.900380e+002
1.140163e+003, 4.902455e+002
1.140645e+003, 4.897938e+002
1.141127e+003, 4.890461e+002
1.141609e+003, 4.886517e+002
1.142091e+003, 4.884865e+002
1.142574e+003, 4.883994e+002
1.143056e+003, 4.882728e+002
1.143538e+003, 4.876640e+002
1.144020e+003, 4.865419e+002
1.144502e+003, 4.858298e+002
1.144984e+003, 4.863086e+002
1.145466e+003, 4.871508e+002
1.145948e+003, 4.875789e+002
1.146431e+003, 4.877960e+002
1.146913e+003, 4.878719e+002
1.147395e+003, 4.880181e+002
1.147877e+003, 4.889069e+002
1.148359e+003, 4.902848e+002
1.148841e+003, 4.906652e+002
1.149323e+003, 4.892571e+002
1.149805e+003, 4.878311e+002
1.150287e+003, 4.872187e+002
1.150770e+003, 4.873099e+002
1.151252e+003, 4.887872e+002
1.151734e+003, 4.903055e+002
1.152216e+003, 4.902281e+002
1.152698e+003, 4.890456e+002
1.153180e+003, 4.880629e+002
1.153662e+003, 4.875592e+002
1.154144e+003, 4.874713e+002
1.154626e+003, 4.881465e+002
1.155109e+003, 4.887131e+002
1.155591e+003, 4.887523e+002
1.156073e+003, 4.887450e+002
1.156555e+003, 4.891687e+002
1.157037e+003, 4.896092e+002
1.157519e+003, 4.895873e+002
1.158001e+003, 4.890709e+002
1.158483e+003, 4.880297e+002
1.158966e+003, 4.854670e+002
1.159448e+003, 4.844988e+002
1.159930e+003, 4.869813e+002
1.160412e+003, 4.887796e+002
1.160894e+003, 4.881129e+002
1.161376e+003, 4.871902e+002
1.161858e+003, 4.878931e+002
1.162340e+003, 4.893349e+002
1.162822e+003, 4.895022e+002
1.163305e+003, 4.882367e+002
1.163787e+003, 4.873844e+002
1.164269e+003, 4.869553e+002
1.164751e+003, 4.870041e+002
1.165233e+003, 4.878126e+002
1.165715e+003, 4.882476e+002
1.166197e+003, 4.876332e+002
1.166679e+003, 4.867658e+002
1.167161e+003, 4.865565e+002
1.167644e+003, 4.869128e+002
1.168126e+003, 4.875522e+002
1.168608e+003, 4.884930e+002
1.169090e+003, 4.891000e+002
1.169572e+003, 4.893378e+002
1.170054e+003, 4.894829e+002
1.170536e+003, 4.896093e+002
1.171018e+003, 4.896084e+002
1.171500e+003, 4.893852e+002
1.171983e+003, 4.891375e+002
1.172465e+003, 4.891780e+002
1.172947e+003, 4.894552e+002
1.173429e+003, 4.897790e+002
1.173911e+003, 4.901878e+002
1.174393e+003, 4.911195e+002
1.174875e+003, 4.923647e+002
1.175357e+003, 4.926230e+002
1.175840e+003, 4.914532e+002
1.176322e+003, 4.898084e+002
1.176804e+003, 4.882666e+002
1.177286e+003, 4.871023e+002
1.177768e+003, 4.867885e+002
1.178250e+003, 4.869722e+002
1.178732e+003, 4.872744e+002
1.179214e+003, 4.876079e+002
1.179697e+003, 4.879518e+002
1.180179e+003, 4.882430e+002
1.180661e+003, 4.882149e+002
1.181143e+003, 4.876934e+002
1.181625e+003, 4.873672e+002
1.182107e+003, 4.881088e+002
1.182589e+003, 4.886349e+002
1.183071e+003, 4.877455e+002
1.183553e+003, 4.865610e+002
1.184036e+003, 4.861380e+002
1.184518e+003, 4.862573e+002
1.185000e+003, 4.863047e+002
1.185482e+003, 4.862129e+002
1.185964e+003, 4.864557e+002
1.186446e+003, 4.873839e+002
1.186928e+003, 4.882643e+002
1.187410e+003, 4.894210e+002
1.187892e+003, 4.899589e+002
1.188375e+003, 4.890272e+002
1.188857e+003, 4.877198e+002
1.189339e+003, 4.868429e+002
1.189821e+003, 4.864499e+002
1.190303e+003, 4.869016e+002
1.190785e+003, 4.885974e+002
1.191267e+003, 4.886241e+002
1.191749e+003, 4.859709e+002
1.192232e+003, 4.845990e+002
1.192714e+003, 4.855650e+002
1.193196e+003, 4.865677e+002
1.193678e+003, 4.863947e+002
1.194160e+003, 4.859028e+002
1.194642e+003, 4.861701e+002
1.195124e+003, 4.869498e+002
1.195606e+003, 4.872027e+002
1.196089e+003, 4.869575e+002
1.196571e+003, 4.872292e+002
1.197053e+003, 4.880047e+002
1.197535e+003, 4.879443e+002
1.198017e+003, 4.867686e+002
1.198499e+003, 4.858019e+002
1.198981e+003, 4.858870e+002
1.199463e+003, 4.862771e+002
1.199945e+003, 4.859589e+002
1.200427e+003, 4.852731e+002
1.200910e+003, 4.848131e+002
1.201392e+003, 4.845545e+002
1.201874e+003, 4.844496e+002
1.202356e+003, 4.844859e+002
1.202838e+003, 4.847007e+002
1.203320e+003, 4.850688e+002
1.203802e+003, 4.853628e+002
1.204284e+003, 4.854135e+002
1.204767e+003, 4.854637e+002
1.205249e+003, 4.857765e+002
1.205731e+003, 4.860788e+002
1.206213e+003, 4.862763e+002
1.206695e+003, 4.862289e+002
1.207177e+003, 4.855868e+002
1.207659e+003, 4.846135e+002
1.208141e+003, 4.840244e+002
1.208624e+003, 4.839848e+002
1.209106e+003, 4.839049e+002
1.209588e+003, 4.834976e+002
1.210070e+003, 4.832600e+002
1.210552e+003, 4.833555e+002
1.211034e+003, 4.835697e+002
1.211516e+003, 4.836667e+002
1.211998e+003, 4.839477e+002
1.212480e+003, 4.848937e+002
1.212963e+003, 4.862433e+002
1.213445e+003, 4.870109e+002
1.213927e+003, 4.871542e+002
1.214409e+003, 4.867842e+002
1.214891e+003, 4.856089e+002
1.215373e+003, 4.852302e+002
1.215855e+003, 4.862145e+002
1.216337e+003, 4.866063e+002
1.216819e+003, 4.852355e+002
1.217302e+003, 4.835791e+002
1.217784e+003, 4.835841e+002
1.218266e+003, 4.845067e+002
1.218748e+003, 4.838279e+002
1.219230e+003, 4.819565e+002
1.219712e+003, 4.808649e+002
1.220194e+003, 4.805884e+002
1.220676e+003, 4.807117e+002
1.221159e+003, 4.810939e+002
1.221641e+003, 4.815927e+002
1.222123e+003, 4.821364e+002
1.222605e+003, 4.826905e+002
1.223087e+003, 4.833414e+002
1.223569e+003, 4.838563e+002
1.224051e+003, 4.838291e+002
1.224533e+003, 4.836010e+002
1.225016e+003, 4.835587e+002
1.225498e+003, 4.836932e+002
1.225980e+003, 4.840498e+002
1.226462e+003, 4.845115e+002
1.226944e+003, 4.844139e+002
1.227426e+003, 4.830781e+002
1.227908e+003, 4.824846e+002
1.228390e+003, 4.843436e+002
1.228872e+003, 4.857179e+002
1.229354e+003, 4.847857e+002
1.229837e+003, 4.834688e+002
1.230319e+003, 4.833043e+002
1.230801e+003, 4.837967e+002
1.231283e+003, 4.840276e+002
1.231765e+003, 4.840060e+002
1.232247e+003, 4.838776e+002
1.232729e+003, 4.835273e+002
1.233211e+003, 4.834675e+002
1.233694e+003, 4.838130e+002
1.234176e+003, 4.841730e+002
1.234658e+003, 4.844940e+002
1.235140e+003, 4.844907e+002
1.235622e+003, 4.839009e+002
1.236104e+003, 4.830986e+002
1.236586e+003, 4.827284e+002
1.237068e+003, 4.826913e+002
1.237551e+003, 4.825431e+002
1.238033e+003, 4.823437e+002
1.238515e+003, 4.824226e+002
1.238997e+003, 4.827376e+002
1.239479e+003, 4.829666e+002
1.239961e+003, 4.830019e+002
1.240443e+003, 4.828345e+002
1.240925e+003, 4.824233e+002
1.241407e+003, 4.819948e+002
1.241890e+003, 4.816771e+002
1.242372e+003, 4.815423e+002
1.242854e+003, 4.817201e+002
1.243336e+003, 4.820764e+002
1.243818e+003, 4.826394e+002
1.244300e+003, 4.831745e+002
1.244782e+003, 4.831754e+002
1.245264e+003, 4.826055e+002
1.245746e+003, 4.821000e+002
1.246229e+003, 4.816560e+002
1.246711e+003, 4.816001e+002
1.247193e+003, 4.822350e+002
1.247675e+003, 4.829368e+002
1.248157e+003, 4.837957e+002
1.248639e+003, 4.842713e+002
1.249121e+003, 4.838047e+002
1.249603e+003, 4.828756e+002
1.250085e+003, 4.823227e+002
1.250568e+003, 4.821329e+002
1.251050e+003, 4.820739e+002
1.251532e+003, 4.821248e+002
1.252014e+003, 4.825381e+002
1.252496e+003, 4.833413e+002
1.252978e+003, 4.844268e+002
1.253460e+003, 4.857572e+002
1.253942e+003, 4.863504e+002
1.254425e+003, 4.854597e+002
1.254907e+003, 4.842435e+002
1.255389e+003, 4.843904e+002
1.255871e+003, 4.852666e+002
1.256353e+003, 4.858784e+002
1.256835e+003, 4.862235e+002
1.257317e+003, 4.861800e+002
1.257799e+003, 4.858908e+002
1.258281e+003, 4.856661e+002
1.258764e+003, 4.855743e+002
1.259246e+003, 4.855285e+002
1.259728e+003, 4.855184e+002
1.260210e+003, 4.854589e+002
1.260692e+003, 4.851642e+002
1.261174e+003, 4.850055e+002
1.261656e+003, 4.850940e+002
1.262138e+003, 4.854514e+002
1.262620e+003, 4.863623e+002
1.263103e+003, 4.873921e+002
1.263585e+003, 4.877877e+002
1.264067e+003, 4.876370e+002
1.264549e+003, 4.876945e+002
1.265031e+003, 4.880359e+002
1.265513e+003, 4.884232e+002
1.265995e+003, 4.890796e+002
1.266477e+003, 4.885393e+002
1.266960e+003, 4.862547e+002
1.267442e+003, 4.842612e+002
1.267924e+003, 4.837005e+002
1.268406e+003, 4.838771e+002
1.268888e+003, 4.840087e+002
1.269370e+003, 4.841896e+002
1.269852e+003, 4.847992e+002
1.270334e+003, 4.855656e+002
1.270817e+003, 4.858128e+002
1.271299e+003, 4.856051e+002
1.271781e+003, 4.850708e+002
1.272263e+003, 4.843852e+002
1.272745e+003, 4.840679e+002
1.273227e+003, 4.843206e+002
1.273709e+003, 4.843815e+002
1.274191e+003, 4.834557e+002
1.274673e+003, 4.827039e+002
1.275156e+003, 4.826663e+002
1.275638e+003, 4.830351e+002
1.276120e+003, 4.837210e+002
1.276602e+003, 4.846048e+002
1.277084e+003, 4.857710e+002
1.277566e+003, 4.870019e+002
1.278048e+003, 4.876064e+002
1.278530e+003, 4.875177e+002
1.279012e+003, 4.874208e+002
1.279495e+003, 4.872759e+002
1.279977e+003, 4.871537e+002
1.280459e+003, 4.870455e+002
1.280941e+003, 4.872539e+002
1.281423e+003, 4.879398e+002
1.281905e+003, 4.884390e+002
1.282387e+003, 4.882015e+002
1.282869e+003, 4.876385e+002
1.283352e+003, 4.874502e+002
1.283834e+003, 4.874120e+002
1.284316e+003, 4.870073e+002
1.284798e+003, 4.862593e+002
##END=



