##NAMES=Rickardite
##RRUFFID=R140500
##IDEAL CHEMISTRY=Cu_2.64-3.00_Te_2_
##LOCALITY=600' Level, Good Hope mine, Vulcan, Vulcan District, Gunnison County, Colorado, USA
##OWNER=RRUFF
##SOURCE=Rock Currier
##DESCRIPTION=Rich, dark purple metallic plates with silvery gray bright metallic tellurium and very sparse tiny specs of metallic blue weissite on gray matrix.
##STATUS=The identification of this mineral has been confirmed only by single crystal X-ray diffraction.
##URL=rruff.info/R140500
88.13672, 0.0000000E+00
88.61884, 5.958221
89.10095, 6.8236999E-02
89.58307, 8.979736
90.06519, 24.33673
90.54730, 39.03571
91.02942, 52.35236
91.51154, 61.48846
91.99365, 64.27197
92.47577, 64.37164
92.95789, 60.46588
93.44000, 49.20337
93.92212, 35.22894
94.40424, 22.91309
94.88635, 12.96216
95.36847, 5.262207
95.85059, 0.3504640
96.33270, 3.986877
96.81482, 5.729492
97.29694, 6.074463
97.77905, 4.966980
98.26117, 0.5897830
98.74329, 7.390747
99.22540, 18.22485
99.70752, 30.29028
100.1896, 43.15991
100.6718, 58.07159
101.1539, 75.51190
101.6360, 95.47424
102.1181, 118.0618
102.6002, 143.1523
103.0823, 170.6802
103.5645, 200.1788
104.0466, 231.0927
104.5287, 264.8543
105.0108, 303.0193
105.4929, 344.4982
105.9750, 391.4431
106.4572, 443.6887
106.9393, 501.0637
107.4214, 564.6748
107.9035, 633.4346
108.3856, 709.0429
108.8677, 792.0624
109.3499, 879.7352
109.8320, 978.5993
110.3141, 1088.882
110.7962, 1210.863
111.2783, 1348.063
111.7604, 1500.357
112.2426, 1669.354
112.7247, 1854.977
113.2068, 2057.361
113.6889, 2276.960
114.1710, 2512.616
114.6531, 2765.480
115.1353, 3032.937
115.6174, 3327.111
116.0995, 3639.756
116.5816, 3952.549
117.0637, 4275.504
117.5458, 4585.801
118.0280, 4873.434
118.5101, 5145.338
118.9922, 5378.181
119.4743, 5565.166
119.9564, 5703.892
120.4385, 5779.781
120.9207, 5782.028
121.4028, 5716.238
121.8849, 5588.006
122.3670, 5369.887
122.8491, 5107.305
123.3312, 4831.005
123.8134, 4540.648
124.2955, 4256.050
124.7776, 3988.057
125.2597, 3737.219
125.7418, 3504.571
126.2239, 3291.953
126.7061, 3096.199
127.1882, 2919.563
127.6703, 2760.902
128.1524, 2616.277
128.6345, 2481.645
129.1166, 2357.688
129.5988, 2246.674
130.0809, 2150.169
130.5630, 2067.928
131.0451, 1997.545
131.5272, 1938.895
132.0093, 1895.358
132.4915, 1872.807
132.9736, 1871.462
133.4557, 1884.025
133.9378, 1905.344
134.4199, 1936.049
134.9020, 1984.368
135.3842, 2052.430
135.8663, 2137.098
136.3484, 2236.503
136.8305, 2351.926
137.3126, 2476.496
137.7947, 2610.302
138.2769, 2757.693
138.7590, 2891.307
139.2411, 3018.174
139.7232, 3125.900
140.2053, 3163.893
140.6874, 3131.883
141.1696, 3031.560
141.6517, 2854.661
142.1338, 2570.458
142.6159, 2288.336
143.0980, 2009.482
143.5801, 1738.081
144.0623, 1505.578
144.5444, 1317.949
145.0265, 1162.026
145.5086, 1031.177
145.9907, 928.9178
146.4728, 842.0335
146.9550, 769.6824
147.4371, 712.8228
147.9192, 662.2936
148.4013, 619.4761
148.8834, 582.2323
149.3655, 548.1512
149.8477, 517.1936
150.3298, 489.7112
150.8119, 466.4333
151.2940, 447.9215
151.7761, 430.6273
152.2583, 414.9966
152.7404, 400.7630
153.2225, 387.5287
153.7046, 375.4046
154.1867, 364.2090
154.6688, 354.0389
155.1510, 344.8754
155.6331, 336.6438
156.1152, 330.4374
156.5973, 324.9533
157.0794, 318.6269
157.5615, 309.8705
158.0437, 301.1750
158.5258, 293.4555
159.0079, 286.8596
159.4900, 281.1191
159.9721, 276.7242
160.4542, 273.0835
160.9364, 269.1594
161.4185, 263.9273
161.9006, 258.7514
162.3827, 254.4548
162.8648, 251.4375
163.3469, 248.6268
163.8291, 245.7821
164.3112, 242.8165
164.7933, 239.4424
165.2754, 234.9710
165.7575, 230.3631
166.2396, 226.4241
166.7218, 223.6554
167.2039, 220.9404
167.6860, 217.5974
168.1681, 213.7764
168.6502, 209.7740
169.1323, 205.4816
169.6145, 201.2733
170.0966, 197.6064
170.5787, 194.8744
171.0608, 192.2734
171.5429, 189.0074
172.0250, 185.1786
172.5072, 181.5508
172.9893, 178.6870
173.4714, 176.1866
173.9535, 173.5193
174.4356, 170.5492
174.9177, 167.3458
175.3999, 163.6767
175.8820, 159.5918
176.3641, 155.8858
176.8462, 153.3485
177.3283, 151.4800
177.8104, 149.3287
178.2926, 146.7384
178.7747, 143.7296
179.2568, 140.1912
179.7389, 136.1971
180.2210, 132.1001
180.7031, 128.4369
181.1853, 124.9357
181.6674, 121.0152
182.1495, 116.3652
182.6316, 111.3672
183.1137, 107.0154
183.5958, 103.2897
184.0780, 99.50397
184.5601, 94.74307
185.0422, 89.29663
185.5243, 83.91406
186.0064, 78.97943
186.4885, 74.26196
186.9707, 69.28149
187.4528, 63.95157
187.9349, 58.68140
188.4170, 53.90842
188.8991, 49.58945
189.3812, 45.38675
189.8634, 41.18646
190.3455, 36.99365
190.8276, 32.71207
191.3097, 28.26715
191.7918, 23.86383
192.2739, 19.49863
192.7561, 15.11639
193.2382, 11.56564
193.7203, 9.369965
194.2024, 8.271454
194.6845, 6.771362
195.1666, 4.860626
195.6488, 2.578674
196.1309, 0.3682860
196.6130, 4.123718
197.0951, 7.027039
197.5772, 8.175049
198.0593, 7.789856
198.5415, 8.485748
199.0236, 10.52231
199.5057, 12.90359
199.9878, 14.29181
200.4699, 14.58359
200.9520, 14.59656
201.4342, 14.48599
201.9163, 14.25580
202.3984, 14.23181
202.8805, 14.48880
203.3626, 14.77646
203.8447, 14.85468
204.3269, 14.78900
204.8090, 14.16971
205.2911, 12.68549
205.7732, 10.31082
206.2553, 8.346619
206.7374, 6.973083
207.2196, 5.749603
207.7017, 4.029602
208.1838, 1.692413
208.6659, 0.6900630
209.1480, 2.912109
209.6301, 4.965607
210.1123, 7.021027
210.5944, 9.049652
211.0765, 11.11685
211.5586, 13.40109
212.0407, 16.08499
212.5228, 18.45090
213.0050, 20.16180
213.4871, 21.12372
213.9692, 22.36377
214.4513, 24.08615
214.9334, 25.86102
215.4155, 26.98904
215.8977, 27.10934
216.3798, 27.47635
216.8619, 28.57990
217.3440, 30.54819
217.8261, 32.16751
218.3082, 33.22995
218.7904, 34.15240
219.2725, 35.53568
219.7546, 37.53091
220.2367, 39.65598
220.7188, 41.70923
221.2009, 43.63181
221.6831, 46.06094
222.1652, 49.26569
222.6473, 52.73782
223.1294, 55.44418
223.6115, 56.15030
224.0936, 58.75708
224.5758, 65.85370
225.0579, 79.01459
225.5400, 84.83426
226.0221, 80.92065
226.5042, 71.80447
226.9863, 63.13773
227.4685, 54.42435
227.9506, 46.90640
228.4327, 41.10858
228.9148, 37.18607
229.3969, 33.31976
229.8790, 29.39630
230.3612, 25.61401
230.8433, 22.20068
231.3254, 19.01575
231.8075, 16.37704
232.2896, 14.48871
232.7717, 13.45984
233.2539, 12.16925
233.7360, 10.34842
234.2181, 8.555878
234.7002, 7.477325
235.1823, 7.624329
235.6644, 7.602844
236.1466, 7.063904
236.6287, 5.969299
237.1108, 4.907715
237.5929, 3.507965
238.0750, 2.533386
238.5571, 2.873016
239.0393, 5.139008
239.5214, 7.618347
240.0035, 10.09473
240.4856, 12.60513
240.9677, 14.66782
241.4498, 15.95969
241.9320, 17.10947
242.4141, 18.71194
242.8962, 20.85062
243.3783, 23.27997
243.8604, 26.06253
244.3425, 29.19089
244.8247, 32.06226
245.3068, 34.64667
245.7889, 36.98526
246.2710, 39.09421
246.7531, 40.79230
247.2352, 42.60446
247.7174, 44.61139
248.1995, 46.79950
248.6816, 49.09372
249.1637, 51.40195
249.6458, 53.95172
250.1279, 56.89804
250.6101, 60.27771
251.0922, 64.04782
251.5743, 68.18506
252.0564, 72.70657
252.5385, 77.60626
253.0206, 82.92224
253.5028, 88.62357
253.9849, 94.50311
254.4670, 100.5117
254.9491, 106.4926
255.4312, 112.5730
255.9133, 118.7803
256.3955, 125.1084
256.8776, 131.8717
257.3597, 138.0356
257.8418, 142.9528
258.3239, 146.3581
258.8061, 149.5192
259.2882, 152.2895
259.7703, 154.9539
260.2524, 158.7097
260.7345, 164.5067
261.2166, 169.7353
261.6988, 172.8503
262.1809, 173.2196
262.6630, 173.5312
263.1451, 174.0560
263.6272, 174.6877
264.1093, 174.9086
264.5915, 174.6282
265.0736, 174.0460
265.5557, 173.3193
266.0378, 172.5684
266.5199, 171.6084
267.0020, 170.2771
267.4842, 168.6097
267.9663, 166.7865
268.4484, 164.8442
268.9305, 162.6378
269.4126, 160.1069
269.8947, 157.1832
270.3769, 154.0062
270.8590, 150.5331
271.3411, 146.8481
271.8232, 143.1349
272.3053, 139.3534
272.7874, 135.6613
273.2696, 132.0086
273.7517, 128.3765
274.2338, 125.1690
274.7159, 122.5115
275.1980, 120.0092
275.6801, 117.1976
276.1623, 114.0359
276.6444, 110.7052
277.1265, 107.3033
277.6086, 103.7939
278.0907, 99.78384
278.5728, 95.05487
279.0550, 90.47592
279.5371, 87.15884
280.0192, 85.18808
280.5013, 83.28653
280.9834, 81.05481
281.4655, 78.58347
281.9477, 76.43484
282.4298, 74.73282
282.9119, 73.06268
283.3940, 70.83383
283.8761, 68.06204
284.3582, 65.93463
284.8404, 64.90878
285.3225, 64.58038
285.8046, 63.66980
286.2867, 62.13428
286.7688, 60.53296
287.2509, 59.24850
287.7331, 58.27905
288.2152, 57.62039
288.6973, 57.32213
289.1794, 57.26286
289.6615, 57.36481
290.1436, 57.61980
290.6258, 57.53738
291.1079, 56.63556
291.5900, 55.05679
292.0721, 53.48341
292.5542, 52.07346
293.0363, 50.62987
293.5185, 48.71619
294.0006, 46.34702
294.4827, 43.99487
294.9648, 41.87074
295.4469, 39.90215
295.9290, 38.00595
296.4112, 36.22926
296.8933, 34.62032
297.3754, 33.19106
297.8575, 31.90501
298.3396, 30.64081
298.8217, 29.43462
299.3039, 28.16554
299.7860, 26.50555
300.2681, 24.39178
300.7502, 22.51221
301.2323, 21.99417
301.7144, 22.26329
302.1966, 21.98962
302.6787, 20.26755
303.1608, 17.94073
303.6429, 15.83084
304.1250, 13.96878
304.6071, 12.52020
305.0893, 11.91505
305.5714, 11.76741
306.0535, 11.49538
306.5356, 10.89647
307.0177, 10.11723
307.4998, 9.208267
307.9820, 8.197510
308.4641, 7.295120
308.9462, 6.719467
309.4283, 6.279526
309.9104, 5.755783
310.3925, 5.016266
310.8747, 4.352661
311.3568, 4.020035
311.8389, 3.941071
312.3210, 3.900833
312.8031, 3.727066
313.2852, 3.589127
313.7674, 3.661667
314.2495, 4.073639
314.7316, 4.396698
315.2137, 4.498077
315.6958, 4.360779
316.1779, 3.954254
316.6601, 3.100433
317.1422, 2.110291
317.6243, 0.9801030
318.1064, 0.3779750
318.5885, 1.147644
319.0706, 0.4647830
319.5528, 0.7556300
320.0349, 1.473526
320.5170, 0.9416350
320.9991, 0.3242190
321.4812, 7.3256999E-02
321.9633, 0.2029270
322.4455, 7.7666998E-02
322.9276, 0.9389650
323.4097, 1.986526
323.8918, 2.420853
324.3739, 1.366348
324.8560, 0.5692140
325.3382, 0.4307250
325.8203, 0.8491820
326.3024, 1.114120
326.7845, 0.9826970
327.2666, 0.8345640
327.7487, 0.8556520
328.2309, 1.175919
328.7130, 1.488007
329.1951, 1.805740
329.6772, 2.114990
330.1593, 2.380722
330.6414, 2.556549
331.1236, 2.733856
331.6057, 2.984070
332.0878, 3.428879
332.5699, 3.573059
333.0520, 3.364212
333.5341, 2.882401
334.0163, 2.168549
334.4984, 0.9280090
334.9805, 3.0533001E-02
335.4626, 0.2547610
335.9447, 9.4481997E-02
336.4268, 0.5430150
336.9090, 1.236115
337.3911, 1.816162
337.8732, 1.892838
338.3553, 1.372574
338.8374, 0.7116090
339.3195, 0.1064000
339.8017, 0.9862370
340.2838, 1.506073
340.7659, 1.621811
341.2480, 1.513077
341.7301, 1.215469
342.2122, 0.7163240
342.6944, 0.3456730
343.1765, 0.1089170
343.6586, 5.4306000E-02
344.1407, 0.3681490
344.6228, 1.057693
345.1049, 1.785629
345.5871, 2.485977
346.0692, 3.112671
346.5513, 3.275467
347.0334, 2.892609
347.5155, 2.395935
347.9977, 2.450699
348.4798, 2.938568
348.9619, 3.233902
349.4440, 2.848221
349.9261, 2.178329
350.4082, 2.065918
350.8904, 2.508011
351.3725, 3.098526
351.8546, 3.582855
352.3367, 3.949936
352.8188, 4.195114
353.3009, 4.374313
353.7831, 4.352310
354.2652, 3.707062
354.7473, 2.613281
355.2294, 1.879791
355.7115, 2.407211
356.1936, 3.388885
356.6758, 3.889297
357.1579, 3.576538
357.6400, 3.267868
358.1221, 3.723175
358.6042, 4.594681
359.0863, 5.189255
359.5685, 5.168121
360.0506, 4.805634
360.5327, 4.161270
361.0148, 3.201691
361.4969, 2.375595
361.9790, 1.712662
362.4612, 1.340485
362.9433, 1.381226
363.4254, 2.227844
363.9075, 3.129227
364.3896, 3.923843
364.8717, 4.593719
365.3539, 5.058167
365.8360, 5.083435
366.3181, 5.031448
366.8002, 5.120819
367.2823, 5.679031
367.7644, 5.985123
368.2466, 5.835556
368.7287, 5.387238
369.2108, 5.090958
369.6929, 5.099564
370.1750, 5.100204
370.6571, 4.976135
371.1393, 4.660065
371.6214, 4.439301
372.1035, 4.275574
372.5856, 4.239166
373.0677, 4.476364
373.5498, 5.223984
374.0320, 5.735458
374.5141, 5.800629
374.9962, 5.447067
375.4783, 5.025864
375.9604, 4.419083
376.4425, 3.969452
376.9247, 4.130920
377.4068, 4.992661
377.8889, 5.686676
378.3710, 6.064102
378.8531, 6.226532
379.3352, 6.439178
379.8174, 6.720688
380.2995, 6.923325
380.7816, 6.788757
381.2637, 6.363495
381.7458, 6.333923
382.2279, 6.892731
382.7101, 7.630951
383.1922, 7.940323
383.6743, 7.901123
384.1564, 8.034500
384.6385, 8.798935
385.1206, 9.772141
385.6028, 10.07904
386.0849, 9.740952
386.5670, 9.427612
387.0491, 9.624634
387.5312, 10.12199
388.0133, 10.64172
388.4955, 11.17731
388.9776, 11.65215
389.4597, 11.99710
389.9418, 12.21289
390.4239, 12.34515
390.9060, 12.28403
391.3882, 12.29150
391.8703, 12.65828
392.3524, 13.52727
392.8345, 14.20808
393.3166, 13.97832
393.7987, 13.41812
394.2809, 13.27158
394.7630, 14.05128
395.2451, 14.95050
395.7272, 15.73633
396.2093, 16.47833
396.6914, 17.32375
397.1736, 18.55612
397.6557, 19.78456
398.1378, 20.78207
398.6199, 21.07747
399.1020, 21.69061
399.5841, 22.78923
400.0663, 24.21135
400.5484, 25.60646
401.0305, 27.03584
401.5126, 28.37000
401.9947, 29.54976
402.4768, 30.50082
402.9590, 31.52464
403.4411, 32.65276
403.9232, 33.84375
404.4053, 35.10796
404.8874, 36.56171
405.3695, 37.56924
405.8517, 37.49876
406.3338, 36.98465
406.8159, 39.49541
407.2980, 45.74718
407.7801, 51.55630
408.2622, 53.89354
408.7444, 52.95538
409.2265, 50.99808
409.7086, 47.98216
410.1907, 44.57542
410.6728, 41.55490
411.1549, 38.93993
411.6371, 36.97375
412.1192, 36.37947
412.6013, 36.36774
413.0834, 35.19380
413.5655, 32.86609
414.0476, 30.48581
414.5298, 29.23695
415.0119, 28.47292
415.4940, 26.98434
415.9761, 23.83058
416.4582, 20.82181
416.9403, 19.88353
417.4225, 20.40939
417.9046, 20.67996
418.3867, 19.66406
418.8688, 18.18251
419.3509, 16.75520
419.8330, 15.42010
420.3152, 14.23161
420.7973, 13.25412
421.2794, 12.41086
421.7615, 11.60497
422.2436, 10.66043
422.7257, 9.913177
423.2079, 9.557785
423.6900, 9.554184
424.1721, 9.369904
424.6542, 8.805115
425.1363, 8.168991
425.6184, 7.589478
426.1006, 7.045105
426.5827, 6.617661
427.0648, 6.429703
427.5469, 6.295639
428.0290, 5.794998
428.5111, 4.553558
428.9933, 3.817307
429.4754, 4.265594
429.9575, 5.838135
430.4396, 6.062302
430.9217, 4.576645
431.4038, 2.823746
431.8860, 2.130859
432.3681, 2.506119
432.8502, 3.045822
433.3323, 3.750580
433.8144, 4.340866
434.2965, 4.052811
434.7787, 2.965286
435.2608, 2.060440
435.7429, 2.209549
436.2250, 2.874939
436.7071, 2.661392
437.1892, 1.457092
437.6714, 0.3162230
438.1535, 0.4768220
438.6356, 1.349609
439.1177, 1.880814
439.5998, 1.373718
440.0819, 0.8338780
440.5641, 1.335403
441.0462, 2.562286
441.5283, 3.384552
442.0104, 3.063263
442.4925, 2.242264
442.9746, 1.214447
443.4568, 0.1589360
443.9389, 1.055222
444.4210, 0.9864200
444.9031, 0.3815460
445.3852, 0.2493900
445.8673, 1.204880
446.3495, 1.741531
446.8316, 1.511063
447.3137, 0.5708010
447.7958, 0.1507870
448.2779, 0.7271730
448.7600, 1.003937
449.2422, 0.8457790
449.7243, 5.5603001E-02
450.2064, 0.6564030
450.6885, 0.8755040
451.1706, 0.8878020
451.6527, 0.9975590
452.1349, 1.261887
452.6170, 1.298050
453.0991, 0.3866580
453.5812, 0.8979030
454.0633, 2.048187
454.5454, 9.928726
455.0276, 16.51018
455.5097, 15.12343
455.9918, 7.504776
456.4739, 2.324005
456.9560, 1.056564
457.4381, 1.576050
457.9203, 1.314377
458.4024, 0.4832000
458.8845, 0.2369230
459.3666, 0.5960390
459.8488, 0.6173250
460.3309, 0.1485140
460.8130, 0.7665410
461.2951, 1.566025
461.7772, 1.884933
462.2593, 1.903885
462.7415, 1.743164
463.2236, 1.209564
463.7057, 0.9052280
464.1878, 1.274918
464.6699, 2.026520
465.1520, 2.601379
465.6342, 2.851730
466.1163, 2.910126
466.5984, 2.743286
467.0805, 2.311874
467.5626, 2.036438
468.0447, 1.981308
468.5269, 2.030899
469.0090, 2.125214
469.4911, 2.356964
469.9732, 2.437622
470.4553, 2.301712
470.9374, 2.037170
471.4196, 1.828369
471.9017, 1.652649
472.3838, 1.498245
472.8659, 1.369781
473.3480, 1.273193
473.8301, 1.211807
474.3123, 1.166565
474.7944, 1.261765
475.2765, 1.855591
475.7586, 2.762695
476.2407, 3.074844
476.7228, 2.427094
477.2050, 1.548828
477.6871, 1.354492
478.1692, 1.743546
478.6513, 2.410019
479.1334, 3.045090
479.6155, 3.968445
480.0977, 6.038513
480.5798, 9.223801
481.0619, 11.30930
481.5440, 10.11324
482.0261, 7.689041
482.5082, 5.894897
482.9904, 5.327225
483.4725, 4.964569
483.9546, 4.518112
484.4367, 4.122101
484.9188, 4.114258
485.4009, 5.098984
485.8831, 5.726059
486.3652, 5.459991
486.8473, 4.244644
487.3294, 3.717346
487.8115, 4.316635
488.2936, 5.039597
488.7758, 5.084076
489.2579, 4.133331
489.7400, 3.788574
490.2221, 4.266342
490.7042, 5.216522
491.1863, 6.151855
491.6685, 7.087265
492.1506, 7.574127
492.6327, 7.154755
493.1148, 6.205627
493.5969, 6.131348
494.0790, 6.920486
494.5612, 7.770599
495.0433, 7.892303
495.5254, 7.642746
496.0075, 7.779785
496.4896, 8.573364
496.9717, 9.332443
497.4539, 9.284851
497.9360, 8.774155
498.4181, 8.433044
498.9002, 8.760468
499.3823, 9.096191
499.8644, 8.987427
500.3466, 8.525940
500.8287, 8.330978
501.3108, 8.820084
501.7929, 9.228333
502.2750, 9.167847
502.7571, 8.146622
503.2393, 7.700256
503.7214, 8.329117
504.2035, 9.300766
504.6856, 9.629089
505.1677, 9.002640
505.6498, 8.460281
506.1320, 8.142151
506.6141, 7.972717
507.0962, 7.707291
507.5783, 7.303711
508.0604, 7.096252
508.5425, 6.454422
509.0247, 5.721786
509.5068, 9.322861
509.9889, 18.14505
510.4710, 27.41193
510.9531, 32.71913
511.4352, 34.10577
511.9174, 31.34682
512.3995, 21.88145
512.8816, 11.46513
513.3637, 6.361420
513.8458, 5.472153
514.3279, 5.234970
514.8101, 3.679428
515.2922, 2.172440
515.7743, 1.890701
516.2564, 3.062454
516.7385, 3.890839
517.2206, 3.424576
517.7028, 2.542038
518.1849, 1.958176
518.6670, 2.054596
519.1491, 2.073502
519.6312, 1.910202
520.1133, 1.645569
520.5955, 1.441757
521.0776, 1.271851
521.5597, 1.213409
522.0418, 1.335693
522.5239, 1.625473
523.0060, 1.784775
523.4882, 1.810532
523.9703, 1.712906
524.4524, 1.357803
524.9345, 0.8009030
525.4166, 0.7094730
525.8987, 1.253799
526.3809, 1.901520
526.8630, 1.947220
527.3451, 1.523148
527.8272, 1.041061
528.3093, 0.4888920
528.7914, 9.9395998E-02
529.2736, 0.2741850
529.7557, 0.8857570
530.2378, 1.349030
530.7199, 1.100418
531.2020, 0.7827760
531.6841, 0.9345400
532.1663, 1.773590
532.6484, 2.354462
533.1305, 2.264771
533.6126, 1.896164
534.0947, 1.616165
534.5768, 1.551895
535.0590, 1.439972
535.5411, 1.207565
536.0232, 0.9266970
536.5053, 0.7993770
536.9874, 0.8503270
537.4695, 0.9908750
537.9517, 1.294922
538.4338, 1.718399
538.9159, 1.467987
539.3980, 0.4068150
539.8801, 0.5067750
540.3622, 3.8757000E-02
540.8444, 1.363159
541.3265, 1.740906
541.8086, 0.6317750
542.2907, 0.7421880
542.7728, 0.8984830
543.2549, 0.2676240
543.7371, 0.2240600
544.2192, 3.5904001E-02
544.7013, 0.2911680
545.1834, 0.3386380
545.6655, 0.1873170
546.1476, 0.1660610
546.6298, 0.6442870
547.1119, 1.094894
547.5940, 1.228424
548.0761, 0.9560090
548.5582, 0.6105040
549.0403, 6.2224999E-02
549.5225, 0.4400940
550.0046, 0.6703490
550.4867, 0.4712520
550.9688, 0.3388210
551.4509, 0.3313290
551.9330, 0.3953250
552.4152, 0.3986820
552.8973, 0.3234100
553.3794, 0.3206480
553.8615, 0.5090790
554.3436, 0.7971650
554.8257, 0.8013000
555.3079, 0.5297240
555.7900, 0.3192750
556.2721, 0.7112430
556.7542, 1.247086
557.2363, 0.9772030
557.7184, 0.3583980
558.2006, 1.479996
558.6827, 1.201187
559.1648, 0.2194210
559.6469, 0.5875550
560.1290, 0.9198000
560.6111, 1.046432
561.0933, 1.027420
561.5754, 0.8633270
562.0575, 0.5533600
562.5396, 0.4454350
563.0217, 1.016052
563.5038, 0.6563720
563.9860, 0.6914830
564.4681, 1.393265
564.9502, 1.225357
565.4323, 0.8266300
565.9144, 0.6533970
566.3965, 0.7252960
566.8787, 0.6883540
567.3608, 0.5031130
567.8429, 0.2601010
568.3250, 2.7907999E-02
568.8071, 0.1682890
569.2892, 0.1895140
569.7714, 9.0499997E-02
570.2535, 0.4583440
570.7356, 0.6807400
571.2177, 0.7691960
571.6998, 0.7530360
572.1819, 0.4187770
572.6641, 0.1606140
573.1462, 0.2924190
573.6283, 0.8417510
574.1104, 1.408325
574.5925, 2.163437
575.0746, 2.690033
575.5568, 2.677795
576.0389, 1.646683
576.5210, 0.9192050
577.0031, 0.5905300
577.4852, 0.4921880
577.9673, 0.4093930
578.4495, 0.3394470
578.9316, 0.2925420
579.4137, 0.2340700
579.8958, 0.2337040
580.3779, 0.5297390
580.8600, 1.119110
581.3422, 1.731400
581.8243, 2.271957
582.3064, 2.719543
582.7885, 2.975906
583.2706, 3.046997
583.7527, 3.104279
584.2349, 3.423996
584.7170, 3.714325
585.1991, 3.609024
585.6812, 2.904907
586.1633, 2.239670
586.6454, 1.760376
587.1276, 1.528992
587.6097, 1.600555
588.0918, 2.281036
588.5739, 2.876740
589.0560, 3.241608
589.5381, 3.470612
590.0203, 3.917206
590.5024, 4.904953
590.9845, 5.353485
591.4666, 4.579498
591.9487, 2.806747
592.4308, 2.257706
592.9130, 3.065323
593.3951, 4.030701
593.8772, 4.046616
594.3593, 3.473999
594.8414, 3.449249
595.3235, 4.145340
595.8057, 4.890625
596.2878, 4.887512
596.7699, 4.574509
597.2520, 4.630295
597.7341, 5.549423
598.2162, 6.433868
598.6984, 6.602554
599.1805, 6.386536
599.6626, 6.557877
600.1447, 7.944351
600.6268, 8.959793
601.1089, 9.021072
601.5911, 8.241333
602.0732, 7.896835
602.5553, 8.155792
603.0374, 8.534164
603.5195, 8.710541
604.0016, 8.651978
604.4838, 9.128159
604.9659, 10.24503
605.4480, 11.40369
605.9301, 11.98157
606.4122, 12.09785
606.8943, 12.15305
607.3765, 12.17976
607.8586, 12.21829
608.3407, 12.21501
608.8228, 12.26891
609.3049, 12.56233
609.7870, 13.66820
610.2692, 14.54253
610.7513, 14.53271
611.2334, 13.85522
611.7155, 13.30049
612.1976, 13.02686
612.6797, 12.88208
613.1619, 12.83365
613.6440, 12.88359
614.1261, 12.94868
614.6082, 13.07814
615.0903, 13.11310
615.5724, 12.93434
616.0546, 12.51756
616.5367, 11.81474
617.0188, 10.81372
617.5009, 9.766907
617.9830, 8.783997
618.4651, 7.981049
618.9473, 7.812225
619.4294, 8.729568
619.9115, 9.600006
620.3936, 9.027985
620.8757, 7.637100
621.3578, 6.732635
621.8400, 7.538818
622.3221, 8.239563
622.8042, 7.794815
623.2863, 6.430466
623.7684, 5.757706
624.2505, 6.708893
624.7327, 7.513596
625.2148, 7.458252
625.6969, 6.440506
626.1790, 5.715424
626.6611, 5.284210
627.1432, 5.140182
627.6254, 5.444305
628.1075, 6.127197
628.5896, 6.415512
629.0717, 6.165482
629.5538, 5.917801
630.0359, 6.617783
630.5181, 7.740738
631.0002, 8.118027
631.4823, 6.891861
631.9644, 5.701355
632.4465, 5.862503
632.9286, 6.872940
633.4108, 7.724731
633.8929, 8.205643
634.3750, 8.380829
634.8571, 8.036484
635.3392, 7.291290
635.8214, 7.023331
636.3035, 7.457443
636.7856, 7.987137
637.2677, 8.347580
637.7498, 8.533600
638.2319, 8.929749
638.7141, 9.593079
639.1962, 10.15358
639.6783, 10.12819
640.1604, 9.742752
640.6425, 9.826035
641.1246, 10.52200
641.6068, 11.31532
642.0889, 11.94688
642.5710, 12.31767
643.0531, 12.23825
643.5352, 11.35806
644.0173, 10.53160
644.4995, 10.05760
644.9816, 9.874023
645.4637, 9.862274
645.9458, 10.19577
646.4279, 10.45775
646.9100, 10.47581
647.3922, 10.36687
647.8743, 10.64481
648.3564, 11.40919
648.8385, 12.20886
649.3206, 12.92271
649.8027, 13.51495
650.2849, 13.70679
650.7670, 13.50732
651.2491, 13.23424
651.7312, 13.12439
652.2133, 13.09705
652.6954, 13.01100
653.1776, 12.84569
653.6597, 12.76259
654.1418, 12.93378
654.6239, 13.19020
655.1060, 13.38159
655.5881, 13.46634
656.0703, 13.50818
656.5524, 13.57184
657.0345, 13.56029
657.5166, 13.29024
657.9987, 12.50302
658.4808, 12.19362
658.9630, 12.66795
659.4451, 13.52130
659.9272, 13.88992
660.4093, 13.78360
660.8914, 13.42422
661.3735, 12.59377
661.8557, 11.82477
662.3378, 12.32410
662.8199, 13.78806
663.3020, 14.82382
663.7841, 14.31656
664.2662, 13.33722
664.7484, 12.47726
665.2305, 11.79413
665.7126, 11.51193
666.1947, 12.12396
666.6768, 12.85187
667.1589, 13.20584
667.6411, 13.08716
668.1232, 13.11403
668.6053, 13.37083
669.0874, 13.61888
669.5695, 13.49660
670.0516, 13.01488
670.5338, 12.97441
671.0159, 13.55618
671.4980, 14.21748
671.9801, 14.23221
672.4622, 13.82278
672.9443, 13.42870
673.4265, 13.21620
673.9086, 13.04977
674.3907, 12.91353
674.8728, 12.78867
675.3549, 12.60463
675.8370, 12.18619
676.3192, 11.96397
676.8013, 12.36919
677.2834, 13.10678
677.7655, 12.91405
678.2476, 11.25462
678.7297, 10.04039
679.2119, 10.22269
679.6940, 11.48032
680.1761, 11.87418
680.6582, 11.37668
681.1403, 10.67206
681.6224, 10.10950
682.1046, 9.685806
682.5867, 9.394226
683.0688, 9.227615
683.5509, 9.244568
684.0330, 9.816238
684.5151, 10.37244
684.9973, 10.39912
685.4794, 9.638550
685.9615, 8.895767
686.4436, 8.293610
686.9257, 7.763794
687.4078, 7.239944
687.8900, 6.656235
688.3721, 6.306000
688.8542, 6.306732
689.3363, 6.389694
689.8184, 6.033157
690.3005, 5.322250
690.7827, 5.020203
691.2648, 5.579422
691.7469, 6.303391
692.2290, 6.222290
692.7111, 5.605042
693.1932, 5.056015
693.6754, 4.914749
694.1575, 4.827423
694.6396, 4.731735
695.1217, 4.569687
695.6038, 4.125778
696.0859, 2.928818
696.5681, 1.978790
697.0502, 1.641510
697.5323, 1.833649
698.0144, 1.640137
698.4965, 0.9225460
698.9786, 0.4429020
699.4608, 0.9024810
699.9429, 1.992081
700.4250, 2.415131
700.9071, 2.190094
701.3892, 1.748703
701.8713, 1.100952
702.3535, 0.5845030
702.8356, 0.7305150
703.3177, 1.724747
703.7998, 2.395599
704.2819, 1.955048
704.7640, 1.227280
705.2462, 0.8601990
705.7283, 1.077850
706.2104, 1.206131
706.6925, 1.113541
707.1746, 1.085861
707.6567, 1.625717
708.1389, 2.771378
708.6210, 3.211884
709.1031, 2.624222
709.5852, 1.713562
710.0673, 1.426590
710.5494, 1.581955
711.0316, 1.722641
711.5137, 1.654739
711.9958, 1.599335
712.4779, 1.861954
712.9600, 2.220184
713.4421, 2.253937
713.9243, 1.470184
714.4064, 0.8141330
714.8885, 0.5325780
715.3706, 0.5200500
715.8527, 0.4565120
716.3348, 0.3227690
716.8170, 0.2044980
717.2991, 0.1135860
717.7812, 6.6666000E-02
718.2633, 0.2070310
718.7454, 0.5031890
719.2275, 0.6366270
719.7097, 0.1987610
720.1918, 0.3575590
720.6739, 0.5118710
721.1560, 0.2887880
721.6381, 2.7191000E-02
722.1202, 0.3865360
722.6024, 0.5725250
723.0845, 0.1125030
723.5666, 1.167969
724.0487, 1.589783
724.5308, 0.6383360
725.0129, 0.3742370
725.4951, 0.5572660
725.9772, 0.1276250
726.4593, 0.4199370
726.9414, 0.2806240
727.4235, 1.1978000E-02
727.9056, 0.3376920
728.3878, 0.5883030
728.8699, 0.4842830
729.3520, 8.1711002E-02
729.8341, 0.5339050
730.3162, 0.2146910
730.7983, 0.2485810
731.2805, 0.2058110
731.7626, 1.146286
732.2447, 1.749130
732.7268, 0.9508670
733.2089, 0.2224730
733.6910, 0.5249180
734.1732, 0.3247070
734.6553, 0.5409240
735.1374, 0.2647710
735.6195, 1.357956
736.1016, 1.597672
736.5837, 1.178360
737.0659, 0.7417600
737.5480, 0.3633580
738.0301, 0.2451170
738.5122, 0.8762970
738.9943, 1.827316
739.4764, 2.362534
739.9586, 1.808548
740.4407, 1.327240
740.9228, 1.233948
741.4049, 1.403625
741.8870, 1.629807
742.3691, 2.044388
742.8513, 2.075897
743.3334, 1.379303
743.8155, 0.3742830
744.2976, 0.3540340
744.7797, 1.198059
745.2618, 1.846741
745.7440, 1.692886
746.2261, 1.142929
746.7082, 0.3670650
747.1903, 0.4818880
747.6724, 0.8645480
748.1545, 1.2131000E-02
748.6367, 0.8494870
749.1188, 0.9255220
749.6009, 0.3154140
750.0830, 0.2671660
750.5651, 1.125488
751.0472, 1.816742
751.5294, 1.800888
752.0115, 1.193787
752.4936, 0.7431180
752.9757, 0.4468080
753.4578, 0.3272550
753.9399, 0.4745180
754.4221, 0.7745820
754.9042, 1.132172
755.3863, 1.532578
755.8684, 1.812210
756.3505, 1.749084
756.8326, 1.654114
757.3148, 1.769836
757.7969, 2.188370
758.2790, 2.279633
758.7611, 1.755142
759.2432, 1.352982
759.7253, 1.696640
760.2075, 2.789749
760.6896, 3.330963
761.1717, 3.289703
761.6538, 2.936264
762.1359, 2.295670
762.6180, 1.582138
763.1002, 1.178635
763.5823, 1.157944
764.0644, 1.196732
764.5465, 1.221344
765.0286, 1.175125
765.5107, 0.9668880
765.9929, 0.3531650
766.4750, 0.2021330
766.9571, 0.7341000
767.4392, 1.438065
767.9213, 1.881699
768.4034, 2.062515
768.8856, 2.050400
769.3677, 1.816650
769.8498, 1.584274
770.3319, 1.653137
770.8140, 1.913513
771.2961, 2.034409
771.7783, 1.854706
772.2604, 1.696609
772.7425, 1.800049
773.2246, 1.952637
773.7067, 1.930252
774.1888, 1.597580
774.6710, 1.424408
775.1531, 1.307709
775.6352, 1.243317
776.1173, 1.142731
776.5994, 1.008469
777.0815, 1.056808
777.5637, 1.379517
778.0458, 1.656204
778.5279, 1.305557
779.0100, 0.7040710
779.4921, 0.5512240
779.9742, 1.303848
780.4564, 1.994370
780.9385, 2.081696
781.4206, 1.849579
781.9027, 1.787689
782.3848, 2.309982
782.8669, 2.428543
783.3491, 1.894882
783.8312, 1.077972
784.3133, 0.5175170
784.7954, 0.2267610
785.2775, 0.1914830
785.7596, 0.4633790
786.2418, 0.8126530
786.7239, 1.023483
787.2060, 1.098709
787.6881, 1.014923
788.1702, 0.5215910
788.6523, 0.2725070
789.1345, 0.8164670
789.6166, 1.602234
790.0987, 1.754089
790.5808, 0.9076390
791.0629, 0.4956670
791.5450, 0.8226320
792.0272, 1.431900
792.5093, 1.401291
792.9914, 0.8555300
793.4735, 0.5195770
793.9556, 0.7080540
794.4377, 1.003799
794.9199, 0.7470090
795.4020, 0.2772980
795.8841, 0.2366330
796.3662, 1.535583
796.8483, 2.518845
797.3304, 2.606186
797.8126, 2.146759
798.2947, 1.631439
798.7768, 0.8768920
799.2589, 0.7173460
799.7410, 1.513428
800.2231, 2.648499
800.7053, 2.901764
801.1874, 2.467270
801.6695, 2.130554
802.1516, 2.205139
802.6337, 2.413437
803.1158, 2.620392
803.5980, 2.781586
804.0801, 2.827850
804.5622, 2.740646
805.0443, 2.501770
805.5264, 1.932510
806.0085, 1.363922
806.4907, 1.335236
806.9728, 1.969742
807.4549, 2.313934
807.9370, 2.048676
808.4191, 1.617050
808.9012, 1.814331
809.3834, 2.441162
809.8655, 2.972061
810.3476, 3.169357
810.8297, 3.256134
811.3118, 3.387527
811.7939, 3.518082
812.2761, 3.543579
812.7582, 3.287842
813.2403, 3.186157
813.7224, 3.330750
814.2045, 3.610641
814.6866, 3.929565
815.1688, 4.285736
815.6509, 4.226578
816.1330, 3.528320
816.6151, 2.685974
817.0972, 2.177963
817.5793, 2.001968
818.0615, 2.158524
818.5436, 3.093231
819.0257, 3.785614
819.5078, 3.770538
819.9899, 3.315842
820.4720, 2.878662
820.9542, 2.494629
821.4363, 2.206680
821.9184, 2.017502
822.4005, 1.926697
822.8826, 2.009933
823.3647, 2.212906
823.8469, 2.253937
824.3290, 1.973831
824.8111, 1.755432
825.2932, 2.148590
825.7753, 2.740631
826.2574, 2.959671
826.7396, 2.529907
827.2217, 1.886215
827.7038, 0.7032320
828.1859, 0.3638920
828.6681, 0.4203190
829.1502, 0.6740110
829.6323, 1.666428
830.1144, 2.500671
830.5966, 2.804214
831.0787, 1.430984
831.5608, 0.6514740
832.0429, 1.425018
832.5250, 9.9489996E-03
833.0071, 1.433594
833.4893, 1.459015
833.9714, 1.052872
834.4535, 1.296280
834.9356, 2.935776
835.4177, 3.686707
835.8998, 3.311813
836.3820, 2.477051
836.8641, 1.694397
837.3462, 1.018219
837.8283, 0.8916320
838.3104, 1.428665
838.7925, 1.968857
839.2747, 1.819427
839.7568, 1.425049
840.2389, 1.282684
840.7210, 1.539551
841.2031, 1.814346
841.6852, 2.081238
842.1674, 2.284866
842.6495, 2.417465
843.1316, 2.495926
843.6137, 2.200562
844.0958, 1.457458
844.5779, 0.7354130
845.0601, 0.5102840
845.5422, 0.5813290
846.0243, 0.5499110
846.5064, 0.3814240
846.9885, 0.3463590
847.4706, 0.8332520
847.9528, 1.310150
848.4349, 1.388565
848.9170, 0.9985810
849.3991, 0.7236480
849.8812, 0.6156620
850.3633, 0.5025480
850.8455, 0.2213130
851.3276, 0.1703190
851.8097, 0.3540190
852.2918, 0.3316040
852.7739, 7.8033000E-02
853.2560, 0.7736050
853.7382, 1.582870
854.2203, 1.691055
854.7024, 1.139252
855.1845, 0.8255000
855.6666, 1.262466
856.1487, 1.539719
856.6309, 1.253922
857.1130, 0.5627590
857.5951, 0.4006500
858.0772, 0.7840580
858.5593, 1.192581
859.0414, 1.414291
859.5236, 1.484924
860.0057, 1.449799
860.4878, 1.305984
860.9699, 1.042389
861.4520, 0.3749390
861.9341, 0.1203160
862.4163, 0.1632230
862.8984, 0.1106570
863.3805, 0.3949890
863.8626, 0.7128300
864.3447, 0.9348910
864.8268, 1.016998
865.3090, 0.9993130
865.7911, 0.9762880
866.2732, 0.9141080
866.7553, 0.6999050
867.2374, 3.9565999E-02
867.7195, 0.4108120
868.2017, 0.1520230
868.6838, 0.5167690
869.1659, 1.134476
869.6480, 1.719772
870.1301, 2.177216
870.6122, 2.582993
871.0944, 2.724365
871.5765, 2.020309
872.0586, 0.6851500
872.5407, 2.9358000E-02
873.0228, 0.4028780
873.5049, 0.9499660
873.9871, 0.9293060
874.4692, 0.6703950
874.9513, 0.5759890
875.4334, 0.9254000
875.9155, 0.8976440
876.3976, 3.8665999E-02
876.8798, 0.7379000
877.3619, 0.5807190
877.8440, 0.5535280
878.3261, 1.140869
878.8082, 1.104462
879.2903, 0.9224850
879.7725, 1.022415
880.2546, 1.185760
880.7367, 1.074417
881.2188, 0.6548610
881.7009, 0.4137570
882.1830, 0.6892090
882.6652, 1.019501
883.1473, 1.118698
883.6294, 1.006195
884.1115, 1.380051
884.5936, 2.332626
885.0757, 3.121002
885.5579, 3.260147
886.0400, 2.942383
886.5221, 2.521484
887.0042, 2.095200
887.4863, 1.802673
887.9684, 1.919250
888.4506, 1.992203
888.9327, 1.695389
889.4148, 1.128799
889.8969, 0.8801880
890.3790, 1.198380
890.8611, 1.535812
891.3433, 1.780167
891.8254, 1.902908
892.3075, 1.802200
892.7896, 1.535248
893.2717, 1.259155
893.7538, 0.9256900
894.2360, 0.7648470
894.7181, 1.023041
895.2002, 1.493408
895.6823, 1.885376
896.1644, 2.251099
896.6465, 2.351822
897.1287, 2.060776
897.6108, 1.731583
898.0929, 2.020767
898.5750, 2.674942
899.0571, 2.548935
899.5392, 1.350113
900.0214, 0.3999180
900.5035, 0.9702610
900.9856, 2.029251
901.4677, 2.698090
901.9498, 2.751495
902.4319, 2.686111
902.9141, 2.416336
903.3962, 2.191467
903.8783, 2.253326
904.3604, 2.526657
904.8425, 2.309875
905.3246, 1.653244
905.8068, 1.282257
906.2889, 2.215088
906.7710, 3.190323
907.2531, 2.968994
907.7352, 1.706848
908.2173, 1.024475
908.6995, 1.466934
909.1816, 1.964462
909.6637, 2.266556
910.1458, 2.429214
910.6279, 2.605804
911.1100, 2.795059
911.5922, 2.875732
912.0743, 2.821320
912.5564, 2.613327
913.0385, 1.957535
913.5206, 1.206436
914.0027, 0.9389190
914.4849, 2.022552
914.9670, 2.538086
915.4491, 2.014587
915.9312, 1.263550
916.4133, 1.540634
916.8954, 2.750488
917.3776, 3.005096
917.8597, 1.955826
918.3418, 0.8011170
918.8239, 0.7549290
919.3060, 1.155502
919.7881, 1.199585
920.2703, 0.6209110
920.7524, 0.5853120
921.2345, 1.813217
921.7166, 2.857758
922.1987, 2.766235
922.6808, 1.626038
923.1630, 1.199142
923.6451, 1.482346
924.1272, 1.781143
924.6093, 1.496078
925.0914, 1.090714
925.5735, 1.020447
926.0557, 1.295395
926.5378, 1.693848
927.0199, 2.311707
927.5020, 2.819641
927.9841, 3.186966
928.4662, 3.374939
928.9484, 3.235840
929.4305, 2.784485
929.9126, 2.245041
930.3947, 1.531540
930.8768, 1.114914
931.3589, 1.881592
931.8411, 3.104858
932.3232, 3.721115
932.8053, 3.040527
933.2874, 2.464554
933.7695, 2.066101
934.2516, 1.743988
934.7338, 1.569870
935.2159, 1.589539
935.6980, 1.254242
936.1801, 0.4915310
936.6622, 0.1363220
937.1443, 9.6863002E-02
937.6265, 0.3490300
938.1086, 1.097855
938.5907, 2.144470
939.0728, 2.732025
939.5549, 2.556732
940.0370, 2.178101
940.5192, 1.709229
941.0013, 1.203308
941.4834, 0.9120330
941.9655, 0.8340000
942.4476, 0.9561000
942.9297, 1.387756
943.4119, 1.887222
943.8940, 2.382080
944.3761, 2.803894
944.8582, 2.967239
945.3403, 2.681076
945.8224, 2.344009
946.3046, 1.920990
946.7867, 1.559418
947.2688, 1.509171
947.7509, 1.723373
948.2330, 1.936249
948.7151, 2.105820
949.1973, 2.266693
949.6794, 2.483582
950.1615, 2.675964
950.6436, 2.811966
951.1257, 2.928406
951.6078, 2.623764
952.0900, 1.570023
952.5721, 0.7719570
953.0542, 0.9244380
953.5363, 1.783676
954.0184, 2.441391
954.5005, 2.884415
954.9827, 3.056549
955.4648, 2.764420
955.9469, 2.352127
956.4290, 1.910477
956.9111, 1.517105
957.3932, 1.385925
957.8754, 1.599457
958.3575, 1.881912
958.8396, 2.241791
959.3217, 2.515244
959.8038, 2.248352
960.2859, 1.696060
960.7681, 1.628723
961.2502, 2.376633
961.7323, 2.975494
962.2144, 2.764404
962.6965, 2.281342
963.1786, 1.922928
963.6608, 1.685287
964.1429, 1.548752
964.6250, 1.486176
965.1071, 1.650131
965.5892, 2.484848
966.0714, 3.477631
966.5535, 3.487915
967.0356, 2.695755
967.5177, 2.093338
967.9998, 2.597153
968.4819, 2.846802
968.9641, 2.004440
969.4462, 0.6425930
969.9283, 0.1841740
970.4104, 0.7055660
970.8925, 1.273712
971.3746, 1.662903
971.8568, 2.064423
972.3389, 3.026794
972.8210, 4.055862
973.3031, 4.321701
973.7852, 3.256073
974.2673, 2.505341
974.7495, 2.620239
975.2316, 2.864288
975.7137, 2.739899
976.1958, 2.242889
976.6779, 1.774643
977.1600, 1.337021
977.6422, 1.167038
978.1243, 1.498169
978.6064, 2.103867
979.0885, 3.164749
979.5706, 4.412430
980.0527, 4.632004
980.5349, 2.855148
981.0170, 1.395599
981.4991, 0.7113040
981.9812, 0.5588680
982.4633, 0.5235140
982.9454, 0.6075740
983.4276, 0.8764040
983.9097, 1.452911
984.3918, 1.862625
984.8739, 1.519516
985.3560, 1.022202
985.8381, 1.015030
986.3203, 1.692093
986.8024, 2.128174
987.2845, 2.315460
987.7666, 2.287888
988.2487, 2.002579
988.7308, 1.540939
989.2130, 1.024170
989.6951, 0.4824680
990.1772, 3.1463999E-02
990.6593, 0.4945530
991.1414, 0.6630250
991.6235, 8.7798998E-02
992.1057, 1.169785
992.5878, 1.199158
993.0699, 3.4164000E-02
993.5520, 0.6044460
994.0341, 0.3092960
994.5162, 0.3253020
994.9984, 0.8521580
995.4805, 1.196915
995.9626, 1.198456
996.4447, 0.7052920
996.9268, 0.3637240
997.4089, 0.2793120
997.8911, 0.3547060
998.3732, 0.5825810
998.8553, 0.9365390
999.3374, 1.353668
999.8195, 1.789383
1000.302, 1.818130
1000.784, 0.7346800
1001.266, 0.3978580
1001.748, 0.8464200
1002.230, 0.7813720
1002.712, 0.6606450
1003.194, 0.4978940
1003.676, 0.3526000
1004.159, 0.2556150
1004.641, 0.1197660
1005.123, 0.2443850
1005.605, 0.7258450
1006.087, 1.074005
1006.569, 1.249710
1007.051, 1.315033
1007.533, 1.291428
1008.016, 1.169495
1008.498, 0.9033970
1008.980, 0.5112000
1009.462, 0.2835080
1009.944, 0.2212220
1010.426, 0.2854920
1010.908, 0.5198060
1011.390, 0.8031010
1011.872, 0.9954830
1012.355, 1.131088
1012.837, 1.278366
1013.319, 1.621948
1013.801, 1.720718
1014.283, 1.430206
1014.765, 1.056625
1015.247, 0.9833370
1015.729, 1.139893
1016.211, 1.093185
1016.694, 0.8107150
1017.176, 0.5645450
1017.658, 0.6253970
1018.140, 0.7169650
1018.622, 0.6435550
1019.104, 0.4141690
1019.586, 0.1294100
1020.068, 0.3174440
1020.551, 0.3216550
1021.033, 0.4835970
1021.515, 1.509857
1021.997, 1.742737
1022.479, 1.489716
1022.961, 1.326874
1023.443, 1.428360
1023.925, 1.615646
1024.407, 2.069153
1024.890, 2.371552
1025.372, 2.115173
1025.854, 1.303894
1026.336, 0.8047030
1026.818, 0.6155400
1027.300, 0.6043550
1027.782, 0.5554200
1028.264, 0.7593690
1028.746, 1.844666
1029.229, 3.425171
1029.711, 3.951355
1030.193, 2.764862
1030.675, 2.066284
1031.157, 2.307831
1031.639, 2.987213
1032.121, 3.615417
1032.603, 4.081116
1033.086, 3.732864
1033.568, 2.173233
1034.050, 2.050369
1034.532, 6.908417
1035.014, 11.17842
1035.496, 11.50865
1035.978, 8.323013
1036.460, 6.216980
1036.943, 5.215042
1037.425, 4.478104
1037.907, 3.582794
1038.389, 2.856415
1038.871, 2.778015
1039.353, 3.054413
1039.835, 3.170639
1040.317, 2.817261
1040.799, 2.776169
1041.281, 3.231766
1041.764, 3.619888
1042.246, 3.038849
1042.728, 2.026123
1043.210, 2.336853
1043.692, 3.927338
1044.174, 4.952118
1044.656, 3.771286
1045.138, 2.617661
1045.621, 2.544128
1046.103, 3.158203
1046.585, 3.417206
1047.067, 3.316498
1047.549, 3.077835
1048.031, 2.737701
1048.513, 2.333710
1048.995, 1.881378
1049.478, 1.516968
1049.960, 1.272903
1050.442, 1.124039
1050.924, 1.341660
1051.406, 2.083633
1051.888, 2.760696
1052.370, 2.979736
1052.852, 2.876007
1053.334, 2.898956
1053.817, 3.021240
1054.299, 3.147614
1054.781, 3.399826
1055.263, 3.428909
1055.745, 2.826859
1056.227, 2.169571
1056.709, 2.262711
1057.191, 3.123459
1057.673, 3.277603
1058.156, 2.583191
1058.638, 1.923538
1059.120, 2.115631
1059.602, 2.519150
1060.084, 2.673340
1060.566, 2.563919
1061.048, 2.359879
1061.530, 1.945923
1062.013, 1.819580
1062.495, 2.178040
1062.977, 2.771362
1063.459, 3.401184
1063.941, 3.903900
1064.423, 3.845581
1064.905, 2.832077
1065.387, 2.409088
1065.870, 3.982803
1066.352, 5.265030
1066.834, 4.842880
1067.316, 3.029388
1067.798, 2.258026
1068.280, 2.443970
1068.762, 2.856522
1069.244, 3.330673
1069.726, 3.667664
1070.208, 3.577774
1070.691, 3.340088
1071.173, 3.447418
1071.655, 4.067657
1072.137, 4.077621
1072.619, 3.330139
1073.101, 2.528442
1073.583, 2.405441
1074.065, 2.558807
1074.548, 2.378418
1075.030, 1.911713
1075.512, 1.773239
1075.994, 2.685822
1076.476, 3.002640
1076.958, 2.106461
1077.440, 0.8094330
1077.922, 0.7804260
1078.405, 1.630173
1078.887, 2.032150
1079.369, 1.639282
1079.851, 1.185287
1080.333, 0.8678890
1080.815, 0.8171840
1081.297, 1.218567
1081.779, 1.993774
1082.261, 1.766663
1082.744, 0.5628050
1083.226, 1.429260
1083.708, 7.666656
1084.190, 13.51375
1084.672, 12.54013
1085.154, 8.124619
1085.636, 5.310471
1086.118, 5.683151
1086.601, 5.076691
1087.083, 3.204178
1087.565, 1.381287
1088.047, 0.6803130
1088.529, 0.7185360
1089.011, 1.037003
1089.493, 1.515915
1089.975, 1.746445
1090.458, 1.009796
1090.940, 0.7933650
1091.422, 1.638748
1091.904, 2.760437
1092.386, 2.983292
1092.868, 2.458344
1093.350, 1.626328
1093.832, 0.5084380
1094.314, 0.1753080
1094.797, 0.3518070
1095.279, 1.135422
1095.761, 1.684250
1096.243, 2.007980
1096.725, 2.271317
1097.207, 2.480850
1097.689, 2.207184
1098.171, 1.045380
1098.653, 0.1291500
1099.136, 1.080124
1099.618, 2.623642
1100.100, 3.199768
1100.582, 2.275436
1101.064, 2.167419
1101.546, 3.182068
1102.028, 3.866196
1102.510, 3.123993
1102.993, 1.829041
1103.475, 1.582581
1103.957, 2.012558
1104.439, 2.278214
1104.921, 1.756210
1105.403, 1.578934
1105.885, 2.008743
1106.367, 2.537521
1106.849, 2.660034
1107.332, 2.476517
1107.814, 2.485977
1108.296, 2.639664
1108.778, 2.421249
1109.260, 0.8050230
1109.742, 0.3584290
1110.224, 3.4912001E-02
1110.706, 1.124649
1111.188, 1.436844
1111.671, 1.008133
1112.153, 0.8782350
1112.635, 1.219147
1113.117, 1.559723
1113.599, 1.521088
1114.081, 1.319199
1114.563, 1.063492
1115.045, 0.7872770
1115.528, 0.6027980
1116.010, 0.4572910
1116.492, 0.8125610
1116.974, 2.063492
1117.456, 3.170746
1117.938, 2.356995
1118.420, 0.8312530
1118.902, 0.2316740
1119.385, 1.135727
1119.867, 1.780045
1120.349, 2.177094
1120.831, 2.068298
1121.313, 1.022018
1121.795, 0.3626250
1122.277, 0.9386290
1122.759, 0.8098750
1123.241, 0.1990810
1123.724, 1.585876
1124.206, 2.526947
1124.688, 1.954376
1125.170, 1.101929
1125.652, 1.088501
1126.134, 1.689728
1126.616, 1.708557
1127.098, 1.204376
1127.580, 0.5855410
1128.063, 0.3901670
1128.545, 0.8931730
1129.027, 0.1145940
1129.509, 1.016174
1129.991, 1.196732
1130.473, 0.4546810
1130.955, 5.1665999E-02
1131.437, 9.6129999E-02
1131.920, 0.2287450
1132.402, 0.1978000
1132.884, 0.1388240
1133.366, 0.1182250
1133.848, 0.1466060
1134.330, 0.2569430
1134.812, 0.4571690
1135.294, 0.6820070
1135.776, 0.9121250
1136.259, 1.187134
1136.741, 1.695419
1137.223, 2.173203
1137.705, 2.332291
1138.187, 2.117264
1138.669, 1.853485
1139.151, 1.500534
1139.633, 1.259705
1140.115, 1.233047
1140.598, 1.290756
1141.080, 1.273453
1141.562, 1.197998
1142.044, 1.086853
1142.526, 0.9415740
1143.008, 0.7710110
1143.490, 0.5546260
1143.972, 0.3698430
1144.455, 0.2453920
1144.937, 0.1901860
1145.419, 0.3321380
1145.901, 0.5618740
1146.383, 0.5913240
1146.865, 2.4857000E-02
1147.347, 0.2671510
1147.829, 4.6905998E-02
1148.312, 0.3022310
1148.794, 0.5332490
1149.276, 0.6408390
1149.758, 0.3900760
1150.240, 0.1051790
1150.722, 0.1889650
1151.204, 1.056946
1151.686, 2.052994
1152.168, 2.142838
1152.651, 1.863937
1153.133, 1.826279
1153.615, 1.970459
1154.097, 1.739960
1154.579, 1.127151
1155.061, 0.7025760
1155.543, 1.145889
1156.025, 1.559311
1156.507, 1.303558
1156.990, 0.7239230
1157.472, 0.3744660
1157.954, 0.2536770
1158.436, 0.6916810
1158.918, 1.787079
1159.400, 2.765793
1159.882, 3.022675
1160.364, 2.906601
1160.847, 2.479843
1161.329, 1.874573
1161.811, 1.733856
1162.293, 2.109802
1162.775, 2.454346
1163.257, 2.661926
1163.739, 2.682922
1164.221, 2.356110
1164.703, 1.908325
1165.186, 1.575119
1165.668, 1.380829
1166.150, 1.056442
1166.632, 0.5452580
1167.114, 0.2890010
1167.596, 0.4700620
1168.078, 0.9188690
1168.560, 1.669983
1169.042, 2.374908
1169.525, 2.437775
1170.007, 1.440308
1170.489, 1.255676
1170.971, 2.148560
1171.453, 2.851944
1171.935, 2.532639
1172.417, 1.875854
1172.899, 1.836349
1173.382, 2.210800
1173.864, 2.795700
1174.346, 3.916443
1174.828, 4.564087
1175.310, 4.506241
1175.792, 4.266296
1176.274, 4.263077
1176.756, 4.338867
1177.239, 4.114365
1177.721, 3.677612
1178.203, 3.403732
1178.685, 3.853073
1179.167, 3.877975
1179.649, 3.207428
1180.131, 2.503998
1180.613, 2.617447
1181.095, 3.202225
1181.578, 3.091888
1182.060, 2.405945
1182.542, 2.104050
1183.024, 3.332886
1183.506, 3.912155
1183.988, 3.345749
1184.470, 2.420395
1184.952, 1.902985
1185.434, 1.762589
1185.917, 2.205368
1186.399, 3.105576
1186.881, 3.520462
1187.363, 2.142120
1187.845, 1.401367
1188.327, 2.027893
1188.809, 3.163452
1189.291, 3.541809
1189.774, 3.375061
1190.256, 3.245102
1190.738, 3.224655
1191.220, 3.390549
1191.702, 3.981155
1192.184, 4.508911
1192.666, 4.863480
1193.148, 5.032593
1193.630, 4.910919
1194.113, 4.585632
1194.595, 4.358734
1195.077, 4.298767
1195.559, 4.195953
1196.041, 3.734756
1196.523, 3.507935
1197.005, 3.885559
1197.487, 4.512238
1197.969, 4.270020
1198.452, 3.439056
1198.934, 3.075974
1199.416, 3.509720
1199.898, 3.962860
1200.380, 4.192490
1200.862, 4.205048
1201.344, 3.886780
1201.826, 3.420883
1202.309, 3.683350
1202.791, 4.391708
1203.273, 4.317825
1203.755, 2.732269
1204.237, 1.522812
1204.719, 2.138916
1205.201, 2.765152
1205.683, 2.328354
1206.166, 1.122314
1206.648, 0.3819890
1207.130, 8.3724998E-02
1207.612, 0.1573640
1208.094, 0.7968440
1208.576, 1.313080
1209.058, 1.403519
1209.540, 1.268646
1210.022, 0.8277590
1210.505, 0.2458800
1210.987, 0.8204500
1211.469, 2.312134
1211.951, 3.569717
1212.433, 4.157333
1212.915, 4.331421
1213.397, 3.965836
1213.879, 3.433136
1214.361, 2.937012
1214.844, 2.493744
1215.326, 2.205673
1215.808, 2.068069
1216.290, 2.067825
1216.772, 2.482513
1217.254, 2.644257
1217.736, 1.972549
1218.218, 1.371689
1218.701, 1.879654
1219.183, 3.232132
1219.665, 3.444748
1220.147, 2.689728
1220.629, 2.081070
1221.111, 2.489792
1221.593, 2.664154
1222.075, 1.989334
1222.557, 1.265762
1223.040, 1.473618
1223.522, 2.406830
1224.004, 2.710403
1224.486, 2.471237
1224.968, 2.175583
1225.450, 1.998718
1225.932, 1.882294
1226.414, 1.836227
1226.896, 1.797318
1227.379, 1.661102
1227.861, 1.461594
1228.343, 1.444916
1228.825, 1.564072
1229.307, 1.401718
1229.789, 0.1732940
1230.271, 0.5041350
1230.753, 3.7200999E-02
1231.236, 0.7203220
1231.718, 0.3571320
1232.200, 0.5384060
1232.682, 0.1207430
1233.164, 2.174561
1233.646, 3.211594
1234.128, 0.9198460
1234.610, 0.6405030
1235.093, 0.5312190
1235.575, 0.3352050
1236.057, 0.8652950
1236.539, 1.128677
1237.021, 1.232529
1237.503, 1.169617
1237.985, 0.8074800
1238.467, 0.5070190
1238.949, 1.126282
1239.432, 0.6232150
1239.914, 0.3175660
1240.396, 0.9523930
1240.878, 1.280655
1241.360, 1.121658
1241.842, 0.5128330
1242.324, 0.1612550
1242.806, 0.2789310
1243.288, 0.5458830
1243.771, 1.096817
1244.253, 1.526611
1244.735, 1.114456
1245.217, 0.4960170
1245.699, 0.7521820
1246.181, 1.908936
1246.663, 2.540802
1247.145, 2.413498
1247.628, 2.059479
1248.110, 1.518066
1248.592, 1.041748
1249.074, 0.9776920
1249.556, 1.154892
1250.038, 1.382141
1250.520, 1.654053
1251.002, 2.009155
1251.484, 2.535797
1251.967, 2.680679
1252.449, 2.239105
1252.931, 1.650131
1253.413, 1.179199
1253.895, 0.9851680
1254.377, 1.522507
1254.859, 2.740540
1255.341, 3.085571
1255.823, 2.371994
1256.306, 2.195435
1256.788, 2.987305
1257.270, 4.009567
1257.752, 5.142822
1258.234, 5.740891
1258.716, 4.670197
1259.198, 2.474854
1259.680, 1.958450
1260.163, 3.160767
1260.645, 3.829773
1261.127, 3.356873
1261.609, 2.884476
1262.091, 3.591156
1262.573, 4.293762
1263.055, 3.971725
1263.537, 3.007706
1264.020, 2.879013
1264.502, 3.458817
1264.984, 3.790741
1265.466, 3.590240
1265.948, 3.254272
1266.430, 3.381470
1266.912, 3.348709
1267.394, 3.217209
1267.876, 2.744980
1268.359, 2.113724
1268.841, 1.567184
1269.323, 1.513687
1269.805, 2.008148
1270.287, 2.184067
1270.769, 2.174301
1271.251, 1.964218
1271.733, 1.425568
1272.215, 0.8682860
1272.698, 0.9597170
1273.180, 1.399841
1273.662, 1.735046
1274.144, 1.890305
1274.626, 1.958664
1275.108, 2.076935
1275.590, 1.869705
1276.072, 1.056015
1276.555, 0.1703340
1277.037, 0.1499330
1277.519, 0.5653380
1278.001, 0.8671720
1278.483, 0.9104160
1278.965, 1.154556
1279.447, 1.847870
1279.929, 1.894608
1280.411, 0.5700680
1280.894, 0.5423890
1281.376, 1.060898
1281.858, 3.425491
1282.340, 4.065338
1282.822, 2.874329
1283.304, 2.593277
1283.786, 3.310684
1284.268, 3.847534
1284.750, 3.894897
1285.233, 3.524536
1285.715, 2.431732
1286.197, 1.406998
1286.679, 1.161865
1287.161, 1.569229
1287.643, 2.084854
1288.125, 2.654373
1288.607, 2.725815
1289.090, 1.945084
1289.572, 1.436768
1290.054, 1.939514
1290.536, 2.577759
1291.018, 2.556381
1291.500, 2.563873
1291.982, 1.586349
1292.464, 2.3560001E-02
1292.947, 0.3026580
1293.429, 1.043488
1293.911, 2.346878
1294.393, 3.288773
1294.875, 3.904633
1295.357, 3.984665
1295.839, 3.841797
1296.321, 3.918335
1296.803, 3.830963
1297.286, 3.223358
1297.768, 2.995285
1298.250, 2.558929
1298.732, 1.826019
1299.214, 1.113113
1299.696, 0.4798890
1300.178, 2.1606000E-02
1300.660, 0.0000000E+00
##END=



