##NAMES=Rickardite
##RRUFFID=R140500
##IDEAL CHEMISTRY=Cu_2.64-3.00_Te_2_
##LOCALITY=600' Level, Good Hope mine, Vulcan, Vulcan District, Gunnison County, Colorado, USA
##OWNER=RRUFF
##SOURCE=Rock Currier
##DESCRIPTION=Rich, dark purple metallic plates with silvery gray bright metallic tellurium and very sparse tiny specs of metallic blue weissite on gray matrix.
##STATUS=The identification of this mineral has been confirmed only by single crystal X-ray diffraction.
##URL=rruff.info/R140500
8.813672e+001, 5.129709e+002
8.861884e+001, 5.093993e+002
8.910095e+001, 5.131357e+002
8.958307e+001, 5.301224e+002
9.006519e+001, 5.523495e+002
9.054730e+001, 5.722853e+002
9.102942e+001, 5.904681e+002
9.151154e+001, 6.043123e+002
9.199365e+001, 6.112831e+002
9.247577e+001, 6.123043e+002
9.295789e+001, 6.097014e+002
9.344000e+001, 6.024612e+002
9.392212e+001, 5.922423e+002
9.440424e+001, 5.833604e+002
9.488635e+001, 5.765534e+002
9.536847e+001, 5.717342e+002
9.585059e+001, 5.687597e+002
9.633270e+001, 5.675378e+002
9.681482e+001, 5.680037e+002
9.729694e+001, 5.696783e+002
9.777905e+001, 5.726316e+002
9.826117e+001, 5.786948e+002
9.874329e+001, 5.882142e+002
9.922540e+001, 6.004509e+002
9.970752e+001, 6.137927e+002
1.001896e+002, 6.278214e+002
1.006718e+002, 6.437825e+002
1.011539e+002, 6.621698e+002
1.016360e+002, 6.829833e+002
1.021181e+002, 7.063289e+002
1.026002e+002, 7.320818e+002
1.030823e+002, 7.601783e+002
1.035645e+002, 7.901577e+002
1.040466e+002, 8.214703e+002
1.045287e+002, 8.555555e+002
1.050108e+002, 8.939753e+002
1.054929e+002, 9.356463e+002
1.059750e+002, 9.827250e+002
1.064572e+002, 1.035050e+003
1.069393e+002, 1.092454e+003
1.074214e+002, 1.156046e+003
1.079035e+002, 1.224742e+003
1.083856e+002, 1.300244e+003
1.088677e+002, 1.383117e+003
1.093499e+002, 1.470605e+003
1.098320e+002, 1.569248e+003
1.103141e+002, 1.679275e+003
1.107962e+002, 1.800967e+003
1.112783e+002, 1.937845e+003
1.117604e+002, 2.089787e+003
1.122426e+002, 2.258401e+003
1.127247e+002, 2.443612e+003
1.132068e+002, 2.645557e+003
1.136889e+002, 2.864690e+003
1.141710e+002, 3.099856e+003
1.146531e+002, 3.352204e+003
1.151353e+002, 3.619122e+003
1.156174e+002, 3.912703e+003
1.160995e+002, 4.224678e+003
1.165816e+002, 4.536708e+003
1.170637e+002, 4.858830e+003
1.175458e+002, 5.168267e+003
1.180280e+002, 5.455014e+003
1.185101e+002, 5.726014e+003
1.189922e+002, 5.957935e+003
1.194743e+002, 6.143989e+003
1.199564e+002, 6.281782e+003
1.204385e+002, 6.356738e+003
1.209207e+002, 6.358054e+003
1.214028e+002, 6.291339e+003
1.218849e+002, 6.162184e+003
1.223670e+002, 5.943144e+003
1.228491e+002, 5.679637e+003
1.233312e+002, 5.402409e+003
1.238134e+002, 5.111121e+003
1.242955e+002, 4.825589e+003
1.247776e+002, 4.556656e+003
1.252597e+002, 4.304874e+003
1.257418e+002, 4.071277e+003
1.262239e+002, 3.857705e+003
1.267061e+002, 3.660992e+003
1.271882e+002, 3.483392e+003
1.276703e+002, 3.323761e+003
1.281524e+002, 3.178161e+003
1.286345e+002, 3.042548e+003
1.291166e+002, 2.917605e+003
1.295988e+002, 2.805599e+003
1.300809e+002, 2.708097e+003
1.305630e+002, 2.624853e+003
1.310451e+002, 2.553462e+003
1.315272e+002, 2.493798e+003
1.320093e+002, 2.449241e+003
1.324915e+002, 2.425663e+003
1.329736e+002, 2.423282e+003
1.334557e+002, 2.434800e+003
1.339378e+002, 2.455066e+003
1.344199e+002, 2.484705e+003
1.349020e+002, 2.531948e+003
1.353842e+002, 2.598925e+003
1.358663e+002, 2.682504e+003
1.363484e+002, 2.780815e+003
1.368305e+002, 2.895140e+003
1.373126e+002, 3.018609e+003
1.377947e+002, 3.151312e+003
1.382769e+002, 3.297595e+003
1.387590e+002, 3.430099e+003
1.392411e+002, 3.555854e+003
1.397232e+002, 3.662464e+003
1.402053e+002, 3.699340e+003
1.406874e+002, 3.666209e+003
1.411696e+002, 3.564764e+003
1.416517e+002, 3.386740e+003
1.421338e+002, 3.101320e+003
1.426159e+002, 2.817202e+003
1.430980e+002, 2.536008e+003
1.435801e+002, 2.262049e+003
1.440623e+002, 2.026445e+003
1.445444e+002, 1.835585e+003
1.450265e+002, 1.676459e+003
1.455086e+002, 1.542414e+003
1.459907e+002, 1.438520e+003
1.464728e+002, 1.350045e+003
1.469550e+002, 1.276096e+003
1.474371e+002, 1.217562e+003
1.479192e+002, 1.165408e+003
1.484013e+002, 1.121079e+003
1.488834e+002, 1.082413e+003
1.493655e+002, 1.046963e+003
1.498477e+002, 1.014683e+003
1.503298e+002, 9.859713e+002
1.508119e+002, 9.615946e+002
1.512940e+002, 9.421043e+002
1.517761e+002, 9.239094e+002
1.522583e+002, 9.074135e+002
1.527404e+002, 8.923250e+002
1.532225e+002, 8.782220e+002
1.537046e+002, 8.652299e+002
1.541867e+002, 8.532396e+002
1.546688e+002, 8.423001e+002
1.551510e+002, 8.323499e+002
1.556331e+002, 8.232750e+002
1.561152e+002, 8.161139e+002
1.565973e+002, 8.096542e+002
1.570794e+002, 8.023401e+002
1.575615e+002, 7.925846e+002
1.580437e+002, 7.828790e+002
1.585258e+002, 7.741394e+002
1.590079e+002, 7.665134e+002
1.594900e+002, 7.597336e+002
1.599721e+002, 7.542906e+002
1.604542e+002, 7.495933e+002
1.609364e+002, 7.446048e+002
1.614185e+002, 7.383008e+002
1.619006e+002, 7.320461e+002
1.623827e+002, 7.266639e+002
1.628648e+002, 7.225547e+002
1.633469e+002, 7.186461e+002
1.638291e+002, 7.146979e+002
1.643112e+002, 7.106233e+002
1.647933e+002, 7.061351e+002
1.652754e+002, 7.005446e+002
1.657575e+002, 6.948130e+002
1.662396e+002, 6.897459e+002
1.667218e+002, 6.858448e+002
1.672039e+002, 6.819934e+002
1.676860e+002, 6.775101e+002
1.681681e+002, 6.725451e+002
1.686502e+002, 6.673953e+002
1.691323e+002, 6.619523e+002
1.696145e+002, 6.565901e+002
1.700966e+002, 6.517665e+002
1.705787e+002, 6.478748e+002
1.710608e+002, 6.441116e+002
1.715429e+002, 6.396807e+002
1.720250e+002, 6.346849e+002
1.725072e+002, 6.298877e+002
1.729893e+002, 6.258525e+002
1.734714e+002, 6.221788e+002
1.739535e+002, 6.183328e+002
1.744356e+002, 6.141711e+002
1.749177e+002, 6.097632e+002
1.753999e+002, 6.048779e+002
1.758820e+002, 5.995582e+002
1.763641e+002, 5.945848e+002
1.768462e+002, 5.907389e+002
1.773283e+002, 5.875319e+002
1.778104e+002, 5.840428e+002
1.782926e+002, 5.801114e+002
1.787747e+002, 5.757441e+002
1.792568e+002, 5.708123e+002
1.797389e+002, 5.653863e+002
1.802210e+002, 5.598010e+002
1.807031e+002, 5.546038e+002
1.811853e+002, 5.495814e+002
1.816674e+002, 5.442263e+002
1.821495e+002, 5.382160e+002
1.826316e+002, 5.319144e+002
1.831137e+002, 5.263041e+002
1.835958e+002, 5.213472e+002
1.840780e+002, 5.163436e+002
1.845601e+002, 5.103738e+002
1.850422e+002, 5.037287e+002
1.855243e+002, 4.971563e+002
1.860064e+002, 4.910420e+002
1.864885e+002, 4.851514e+002
1.869707e+002, 4.789985e+002
1.874528e+002, 4.724969e+002
1.879349e+002, 4.660558e+002
1.884170e+002, 4.601127e+002
1.888991e+002, 4.546245e+002
1.893812e+002, 4.492535e+002
1.898634e+002, 4.438859e+002
1.903455e+002, 4.385268e+002
1.908276e+002, 4.330800e+002
1.913097e+002, 4.274710e+002
1.917918e+002, 4.219048e+002
1.922739e+002, 4.163780e+002
1.927561e+002, 4.108355e+002
1.932382e+002, 4.061259e+002
1.937203e+002, 4.027727e+002
1.942024e+002, 4.005182e+002
1.946845e+002, 3.978635e+002
1.951666e+002, 3.947997e+002
1.956488e+002, 3.913662e+002
1.961309e+002, 3.872693e+002
1.966130e+002, 3.823661e+002
1.970951e+002, 3.783183e+002
1.975772e+002, 3.760299e+002
1.980593e+002, 3.752792e+002
1.985415e+002, 3.734519e+002
1.990236e+002, 3.702886e+002
1.995057e+002, 3.667859e+002
1.999878e+002, 3.642830e+002
2.004699e+002, 3.628873e+002
2.009520e+002, 3.617828e+002
2.014342e+002, 3.608151e+002
2.019163e+002, 3.599826e+002
2.023984e+002, 3.589599e+002
2.028805e+002, 3.576722e+002
2.033626e+002, 3.563697e+002
2.038447e+002, 3.552851e+002
2.043269e+002, 3.543529e+002
2.048090e+002, 3.539830e+002
2.052911e+002, 3.544870e+002
2.057732e+002, 3.558898e+002
2.062553e+002, 3.568894e+002
2.067374e+002, 3.573048e+002
2.072196e+002, 3.575761e+002
2.077017e+002, 3.583493e+002
2.081838e+002, 3.597442e+002
2.086659e+002, 3.611874e+002
2.091480e+002, 3.624721e+002
2.096301e+002, 3.635894e+002
2.101123e+002, 3.647095e+002
2.105944e+002, 3.658035e+002
2.110765e+002, 3.669366e+002
2.115586e+002, 3.682871e+002
2.120407e+002, 3.700374e+002
2.125228e+002, 3.714698e+002
2.130050e+002, 3.722473e+002
2.134871e+002, 3.722762e+002
2.139692e+002, 3.725840e+002
2.144513e+002, 3.733750e+002
2.149334e+002, 3.742193e+002
2.154155e+002, 3.744176e+002
2.158977e+002, 3.736090e+002
2.163798e+002, 3.730480e+002
2.168619e+002, 3.732244e+002
2.173440e+002, 3.742664e+002
2.178261e+002, 3.749602e+002
2.183082e+002, 3.750981e+002
2.187904e+002, 3.750971e+002
2.192725e+002, 3.755583e+002
2.197546e+002, 3.766332e+002
2.202367e+002, 3.778399e+002
2.207188e+002, 3.789769e+002
2.212009e+002, 3.799853e+002
2.216831e+002, 3.815023e+002
2.221652e+002, 3.837967e+002
2.226473e+002, 3.863603e+002
2.231294e+002, 3.881599e+002
2.236115e+002, 3.879612e+002
2.240936e+002, 3.896653e+002
2.245758e+002, 3.958617e+002
2.250579e+002, 4.081248e+002
2.255400e+002, 4.130493e+002
2.260221e+002, 4.082430e+002
2.265042e+002, 3.982368e+002
2.269863e+002, 3.886826e+002
2.274685e+002, 3.790844e+002
2.279506e+002, 3.706843e+002
2.284327e+002, 3.640070e+002
2.289148e+002, 3.592076e+002
2.293969e+002, 3.544672e+002
2.298790e+002, 3.496725e+002
2.303612e+002, 3.450217e+002
2.308433e+002, 3.407428e+002
2.313254e+002, 3.366952e+002
2.318075e+002, 3.331968e+002
2.322896e+002, 3.304519e+002
2.327717e+002, 3.285697e+002
2.332539e+002, 3.264292e+002
2.337360e+002, 3.237620e+002
2.342181e+002, 3.211270e+002
2.347002e+002, 3.192103e+002
2.351823e+002, 3.185237e+002
2.356644e+002, 3.176732e+002
2.361466e+002, 3.163098e+002
2.366287e+002, 3.143956e+002
2.371108e+002, 3.125195e+002
2.375929e+002, 3.103107e+002
2.380750e+002, 3.085331e+002
2.385571e+002, 3.080762e+002
2.390393e+002, 3.095520e+002
2.395214e+002, 3.112467e+002
2.400035e+002, 3.129433e+002
2.404856e+002, 3.146783e+002
2.409677e+002, 3.159696e+002
2.414498e+002, 3.164938e+002
2.419320e+002, 3.168796e+002
2.424141e+002, 3.177217e+002
2.428962e+002, 3.191035e+002
2.433783e+002, 3.207794e+002
2.438604e+002, 3.228119e+002
2.443425e+002, 3.251935e+002
2.448247e+002, 3.273215e+002
2.453068e+002, 3.291659e+002
2.457889e+002, 3.307678e+002
2.462710e+002, 3.321434e+002
2.467531e+002, 3.331115e+002
2.472352e+002, 3.341970e+002
2.477174e+002, 3.354806e+002
2.481995e+002, 3.369487e+002
2.486816e+002, 3.385263e+002
2.491637e+002, 3.401213e+002
2.496458e+002, 3.419601e+002
2.501279e+002, 3.441953e+002
2.506101e+002, 3.468633e+002
2.510922e+002, 3.499216e+002
2.515743e+002, 3.533483e+002
2.520564e+002, 3.571611e+002
2.525385e+002, 3.613536e+002
2.530206e+002, 3.659630e+002
2.535028e+002, 3.709587e+002
2.539849e+002, 3.762204e+002
2.544670e+002, 3.818456e+002
2.549491e+002, 3.876387e+002
2.554312e+002, 3.936163e+002
2.559133e+002, 3.997095e+002
2.563955e+002, 4.059808e+002
2.568776e+002, 4.128300e+002
2.573597e+002, 4.192436e+002
2.578418e+002, 4.245106e+002
2.583239e+002, 4.282960e+002
2.588061e+002, 4.318482e+002
2.592882e+002, 4.350107e+002
2.597703e+002, 4.380598e+002
2.602524e+002, 4.422037e+002
2.607345e+002, 4.483966e+002
2.612166e+002, 4.540178e+002
2.616988e+002, 4.575676e+002
2.621809e+002, 4.583958e+002
2.626630e+002, 4.591404e+002
2.631451e+002, 4.600103e+002
2.636272e+002, 4.608409e+002
2.641093e+002, 4.611419e+002
2.645915e+002, 4.608648e+002
2.650736e+002, 4.602144e+002
2.655557e+002, 4.592848e+002
2.660378e+002, 4.581252e+002
2.665199e+002, 4.565858e+002
2.670020e+002, 4.546411e+002
2.674842e+002, 4.523488e+002
2.679663e+002, 4.498772e+002
2.684484e+002, 4.472640e+002
2.689305e+002, 4.443719e+002
2.694126e+002, 4.411649e+002
2.698947e+002, 4.375761e+002
2.703769e+002, 4.337342e+002
2.708590e+002, 4.295778e+002
2.713411e+002, 4.251916e+002
2.718232e+002, 4.207589e+002
2.723053e+002, 4.162403e+002
2.727874e+002, 4.117963e+002
2.732696e+002, 4.073824e+002
2.737517e+002, 4.029799e+002
2.742338e+002, 3.989883e+002
2.747159e+002, 3.955208e+002
2.751980e+002, 3.922016e+002
2.756801e+002, 3.885885e+002
2.761623e+002, 3.846577e+002
2.766444e+002, 3.806050e+002
2.771265e+002, 3.765614e+002
2.776086e+002, 3.724595e+002
2.780907e+002, 3.678666e+002
2.785728e+002, 3.625483e+002
2.790550e+002, 3.573614e+002
2.795371e+002, 3.533954e+002
2.800192e+002, 3.507418e+002
2.805013e+002, 3.481551e+002
2.809834e+002, 3.452734e+002
2.814655e+002, 3.421962e+002
2.819477e+002, 3.394841e+002
2.824298e+002, 3.372311e+002
2.829119e+002, 3.350157e+002
2.833940e+002, 3.322448e+002
2.838761e+002, 3.289334e+002
2.843582e+002, 3.262680e+002
2.848404e+002, 3.247034e+002
2.853225e+002, 3.238360e+002
2.858046e+002, 3.223843e+002
2.862867e+002, 3.203084e+002
2.867688e+002, 3.181770e+002
2.872509e+002, 3.163709e+002
2.877331e+002, 3.148856e+002
2.882152e+002, 3.137169e+002
2.886973e+002, 3.129140e+002
2.891794e+002, 3.123576e+002
2.896615e+002, 3.119756e+002
2.901436e+002, 3.117596e+002
2.906258e+002, 3.112204e+002
2.911079e+002, 3.098849e+002
2.915900e+002, 3.079089e+002
2.920721e+002, 3.059803e+002
2.925542e+002, 3.042450e+002
2.930363e+002, 3.024775e+002
2.935185e+002, 3.002478e+002
2.940006e+002, 2.975851e+002
2.944827e+002, 2.949791e+002
2.949648e+002, 2.926437e+002
2.954469e+002, 2.905240e+002
2.959290e+002, 2.885258e+002
2.964112e+002, 2.866369e+002
2.968933e+002, 2.848292e+002
2.973754e+002, 2.831250e+002
2.978575e+002, 2.815069e+002
2.983396e+002, 2.798707e+002
2.988217e+002, 2.782720e+002
2.993039e+002, 2.766021e+002
2.997860e+002, 2.745339e+002
3.002681e+002, 2.720033e+002
3.007502e+002, 2.697029e+002
3.012323e+002, 2.687606e+002
3.017144e+002, 2.686044e+002
3.021966e+002, 2.679077e+002
3.026787e+002, 2.657635e+002
3.031608e+002, 2.630142e+002
3.036429e+002, 2.604802e+002
3.041250e+002, 2.581929e+002
3.046071e+002, 2.563187e+002
3.050893e+002, 2.552887e+002
3.055714e+002, 2.547187e+002
3.060535e+002, 2.540302e+002
3.065356e+002, 2.530209e+002
3.070177e+002, 2.518369e+002
3.074998e+002, 2.505283e+002
3.079820e+002, 2.491222e+002
3.084641e+002, 2.478269e+002
3.089462e+002, 2.468605e+002
3.094283e+002, 2.460326e+002
3.099104e+002, 2.451256e+002
3.103925e+002, 2.440065e+002
3.108747e+002, 2.429651e+002
3.113568e+002, 2.422552e+002
3.118389e+002, 2.417995e+002
3.123210e+002, 2.413833e+002
3.128031e+002, 2.408335e+002
3.132852e+002, 2.403186e+002
3.137674e+002, 2.400125e+002
3.142495e+002, 2.400443e+002
3.147316e+002, 2.399853e+002
3.152137e+002, 2.397026e+002
3.156958e+002, 2.391799e+002
3.161779e+002, 2.383887e+002
3.166601e+002, 2.371499e+002
3.171422e+002, 2.357726e+002
3.176243e+002, 2.342514e+002
3.181064e+002, 2.324982e+002
3.185885e+002, 2.313287e+002
3.190706e+002, 2.316080e+002
3.195528e+002, 2.324232e+002
3.200349e+002, 2.327369e+002
3.205170e+002, 2.318012e+002
3.209991e+002, 2.307794e+002
3.214812e+002, 2.301233e+002
3.219633e+002, 2.298478e+002
3.224455e+002, 2.293179e+002
3.229276e+002, 2.278972e+002
3.234097e+002, 2.264456e+002
3.238918e+002, 2.256075e+002
3.243739e+002, 2.262611e+002
3.248560e+002, 2.266624e+002
3.253382e+002, 2.264086e+002
3.258203e+002, 2.256003e+002
3.263024e+002, 2.249482e+002
3.267845e+002, 2.246953e+002
3.272666e+002, 2.244619e+002
3.277487e+002, 2.240620e+002
3.282309e+002, 2.233656e+002
3.287130e+002, 2.226802e+002
3.291951e+002, 2.219920e+002
3.296772e+002, 2.213153e+002
3.301593e+002, 2.206854e+002
3.306414e+002, 2.201489e+002
3.311236e+002, 2.196145e+002
3.316057e+002, 2.190109e+002
3.320878e+002, 2.182165e+002
3.325699e+002, 2.177268e+002
3.330520e+002, 2.175942e+002
3.335341e+002, 2.177384e+002
3.340163e+002, 2.181182e+002
3.344984e+002, 2.190279e+002
3.349805e+002, 2.195972e+002
3.354626e+002, 2.195566e+002
3.359447e+002, 2.188836e+002
3.364268e+002, 2.181136e+002
3.369090e+002, 2.171015e+002
3.373911e+002, 2.162053e+002
3.378732e+002, 2.158156e+002
3.383553e+002, 2.160260e+002
3.388374e+002, 2.163798e+002
3.393195e+002, 2.168932e+002
3.398017e+002, 2.174706e+002
3.402838e+002, 2.176900e+002
3.407659e+002, 2.175073e+002
3.412480e+002, 2.171021e+002
3.417301e+002, 2.165100e+002
3.422122e+002, 2.157183e+002
3.426944e+002, 2.150571e+002
3.431765e+002, 2.145318e+002
3.436586e+002, 2.141907e+002
3.441407e+002, 2.142201e+002
3.446228e+002, 2.146270e+002
3.451049e+002, 2.150741e+002
3.455871e+002, 2.154954e+002
3.460692e+002, 2.158449e+002
3.465513e+002, 2.157323e+002
3.470334e+002, 2.150758e+002
3.475155e+002, 2.143072e+002
3.479977e+002, 2.140917e+002
3.484798e+002, 2.143109e+002
3.489619e+002, 2.143390e+002
3.494440e+002, 2.136874e+002
3.499261e+002, 2.127527e+002
3.504082e+002, 2.123765e+002
3.508904e+002, 2.125558e+002
3.513725e+002, 2.128845e+002
3.518546e+002, 2.131079e+002
3.523367e+002, 2.132147e+002
3.528188e+002, 2.132001e+002
3.533009e+002, 2.131197e+002
3.537831e+002, 2.128381e+002
3.542652e+002, 2.119333e+002
3.547473e+002, 2.105804e+002
3.552294e+002, 2.095886e+002
3.557115e+002, 2.098588e+002
3.561936e+002, 2.105845e+002
3.566758e+002, 2.108303e+002
3.571579e+002, 2.102643e+002
3.576400e+002, 2.097038e+002
3.581221e+002, 2.099087e+002
3.586042e+002, 2.105313e+002
3.590863e+002, 2.108784e+002
3.595685e+002, 2.106113e+002
3.600506e+002, 2.100043e+002
3.605327e+002, 2.091169e+002
3.610148e+002, 2.079158e+002
3.614969e+002, 2.068497e+002
3.619790e+002, 2.059483e+002
3.624612e+002, 2.053392e+002
3.629433e+002, 2.051446e+002
3.634254e+002, 2.057574e+002
3.639075e+002, 2.064265e+002
3.643896e+002, 2.069903e+002
3.648717e+002, 2.074319e+002
3.653539e+002, 2.076731e+002
3.658360e+002, 2.074805e+002
3.663181e+002, 2.072156e+002
3.668002e+002, 2.070956e+002
3.672823e+002, 2.074474e+002
3.677644e+002, 2.075504e+002
3.682466e+002, 2.072019e+002
3.687287e+002, 2.065585e+002
3.692108e+002, 2.060696e+002
3.696929e+002, 2.058870e+002
3.701750e+002, 2.056977e+002
3.706571e+002, 2.053855e+002
3.711393e+002, 2.048830e+002
3.716214e+002, 2.044766e+002
3.721035e+002, 2.041267e+002
3.725856e+002, 2.039039e+002
3.730677e+002, 2.039555e+002
3.735498e+002, 2.045193e+002
3.740320e+002, 2.048499e+002
3.745141e+002, 2.047372e+002
3.749962e+002, 2.042128e+002
3.754783e+002, 2.036277e+002
3.759604e+002, 2.028767e+002
3.764425e+002, 2.023150e+002
3.769247e+002, 2.023376e+002
3.774068e+002, 2.030426e+002
3.778889e+002, 2.035753e+002
3.783710e+002, 2.037964e+002
3.788531e+002, 2.038100e+002
3.793352e+002, 2.038786e+002
3.798174e+002, 2.040118e+002
3.802995e+002, 2.040648e+002
3.807816e+002, 2.038168e+002
3.812637e+002, 2.033494e+002
3.817458e+002, 2.033097e+002
3.822279e+002, 2.037926e+002
3.827101e+002, 2.044105e+002
3.831922e+002, 2.045981e+002
3.836743e+002, 2.044617e+002
3.841564e+002, 2.045166e+002
3.846385e+002, 2.051966e+002
3.851206e+002, 2.060783e+002
3.856028e+002, 2.062931e+002
3.860849e+002, 2.058750e+002
3.865670e+002, 2.054688e+002
3.870491e+002, 2.055980e+002
3.875312e+002, 2.060733e+002
3.880133e+002, 2.066033e+002
3.884955e+002, 2.071662e+002
3.889776e+002, 2.076836e+002
3.894597e+002, 2.080877e+002
3.899418e+002, 2.083884e+002
3.904239e+002, 2.086090e+002
3.909060e+002, 2.086033e+002
3.913882e+002, 2.086257e+002
3.918703e+002, 2.089707e+002
3.923524e+002, 2.097731e+002
3.928345e+002, 2.103444e+002
3.933166e+002, 2.100001e+002
3.937987e+002, 2.093357e+002
3.942809e+002, 2.091077e+002
3.947630e+002, 2.098518e+002
3.952451e+002, 2.107532e+002
3.957272e+002, 2.115434e+002
3.962093e+002, 2.122222e+002
3.966914e+002, 2.130070e+002
3.971736e+002, 2.141402e+002
3.976557e+002, 2.152606e+002
3.981378e+002, 2.161481e+002
3.986199e+002, 2.163338e+002
3.991020e+002, 2.168385e+002
3.995841e+002, 2.178264e+002
4.000663e+002, 2.191443e+002
4.005484e+002, 2.204379e+002
4.010305e+002, 2.217680e+002
4.015126e+002, 2.229950e+002
4.019947e+002, 2.240466e+002
4.024768e+002, 2.248637e+002
4.029590e+002, 2.257693e+002
4.034411e+002, 2.267860e+002
4.039232e+002, 2.278670e+002
4.044053e+002, 2.290225e+002
4.048874e+002, 2.303699e+002
4.053695e+002, 2.312732e+002
4.058517e+002, 2.310966e+002
4.063338e+002, 2.304737e+002
4.068159e+002, 2.328766e+002
4.072980e+002, 2.390259e+002
4.077801e+002, 2.447363e+002
4.082622e+002, 2.469759e+002
4.087444e+002, 2.459389e+002
4.092265e+002, 2.438809e+002
4.097086e+002, 2.407629e+002
4.101907e+002, 2.372528e+002
4.106728e+002, 2.341283e+002
4.111549e+002, 2.314094e+002
4.116371e+002, 2.293404e+002
4.121192e+002, 2.286466e+002
4.126013e+002, 2.285406e+002
4.130834e+002, 2.272761e+002
4.135655e+002, 2.248558e+002
4.140476e+002, 2.223784e+002
4.145298e+002, 2.210301e+002
4.150119e+002, 2.201679e+002
4.154940e+002, 2.185825e+002
4.159761e+002, 2.153302e+002
4.164582e+002, 2.122196e+002
4.169403e+002, 2.111774e+002
4.174225e+002, 2.116004e+002
4.179046e+002, 2.117727e+002
4.183867e+002, 2.106632e+002
4.188688e+002, 2.090926e+002
4.193509e+002, 2.075803e+002
4.198330e+002, 2.061609e+002
4.203152e+002, 2.048894e+002
4.207973e+002, 2.038309e+002
4.212794e+002, 2.029055e+002
4.217615e+002, 2.020142e+002
4.222436e+002, 2.009815e+002
4.227257e+002, 2.001438e+002
4.232079e+002, 1.996965e+002
4.236900e+002, 1.996014e+002
4.241721e+002, 1.993263e+002
4.246542e+002, 1.986707e+002
4.251363e+002, 1.979416e+002
4.256184e+002, 1.972681e+002
4.261006e+002, 1.966308e+002
4.265827e+002, 1.961127e+002
4.270648e+002, 1.958357e+002
4.275469e+002, 1.956126e+002
4.280290e+002, 1.950229e+002
4.285111e+002, 1.936931e+002
4.289933e+002, 1.928701e+002
4.294754e+002, 1.932328e+002
4.299575e+002, 1.947206e+002
4.304396e+002, 1.948603e+002
4.309217e+002, 1.932894e+002
4.314038e+002, 1.914483e+002
4.318860e+002, 1.906651e+002
4.323681e+002, 1.909497e+002
4.328502e+002, 1.914001e+002
4.333323e+002, 1.920172e+002
4.338144e+002, 1.925222e+002
4.342965e+002, 1.921504e+002
4.347787e+002, 1.909785e+002
4.352608e+002, 1.899859e+002
4.357429e+002, 1.900446e+002
4.362250e+002, 1.906182e+002
4.367071e+002, 1.903123e+002
4.371892e+002, 1.890149e+002
4.376714e+002, 1.877799e+002
4.381535e+002, 1.878457e+002
4.386356e+002, 1.886241e+002
4.391177e+002, 1.890620e+002
4.395998e+002, 1.884608e+002
4.400819e+002, 1.878241e+002
4.405641e+002, 1.882276e+002
4.410462e+002, 1.893566e+002
4.415283e+002, 1.900810e+002
4.420104e+002, 1.896618e+002
4.424925e+002, 1.887429e+002
4.429746e+002, 1.876170e+002
4.434568e+002, 1.861451e+002
4.439389e+002, 1.851499e+002
4.444210e+002, 1.851199e+002
4.449031e+002, 1.856261e+002
4.453852e+002, 1.861582e+002
4.458673e+002, 1.870145e+002
4.463495e+002, 1.874515e+002
4.468316e+002, 1.871209e+002
4.473137e+002, 1.860799e+002
4.477958e+002, 1.852567e+002
4.482779e+002, 1.845777e+002
4.487600e+002, 1.841977e+002
4.492422e+002, 1.842524e+002
4.497243e+002, 1.850503e+002
4.502064e+002, 1.855476e+002
4.506885e+002, 1.856634e+002
4.511706e+002, 1.855726e+002
4.516527e+002, 1.855794e+002
4.521349e+002, 1.857408e+002
4.526170e+002, 1.856739e+002
4.530991e+002, 1.846591e+002
4.535812e+002, 1.832708e+002
4.540633e+002, 1.861132e+002
4.545454e+002, 1.938899e+002
4.550276e+002, 2.003676e+002
4.555097e+002, 1.988773e+002
4.559918e+002, 1.911553e+002
4.564739e+002, 1.858714e+002
4.569560e+002, 1.845010e+002
4.574381e+002, 1.849178e+002
4.579203e+002, 1.845483e+002
4.584024e+002, 1.836083e+002
4.588845e+002, 1.827845e+002
4.593666e+002, 1.823235e+002
4.598488e+002, 1.822008e+002
4.603309e+002, 1.825652e+002
4.608130e+002, 1.833738e+002
4.612951e+002, 1.840675e+002
4.617772e+002, 1.842810e+002
4.622593e+002, 1.841941e+002
4.627415e+002, 1.839267e+002
4.632236e+002, 1.832858e+002
4.637057e+002, 1.828737e+002
4.641878e+002, 1.831357e+002
4.646699e+002, 1.837804e+002
4.651520e+002, 1.842498e+002
4.656342e+002, 1.843956e+002
4.661163e+002, 1.843498e+002
4.665984e+002, 1.840786e+002
4.670805e+002, 1.835416e+002
4.675626e+002, 1.831585e+002
4.680447e+002, 1.829956e+002
4.685269e+002, 1.829400e+002
4.690090e+002, 1.829321e+002
4.694911e+002, 1.830621e+002
4.699732e+002, 1.830395e+002
4.704553e+002, 1.827986e+002
4.709374e+002, 1.824226e+002
4.714196e+002, 1.820862e+002
4.719017e+002, 1.817915e+002
4.723838e+002, 1.815325e+002
4.728659e+002, 1.813017e+002
4.733480e+002, 1.811020e+002
4.738301e+002, 1.809365e+002
4.743123e+002, 1.807881e+002
4.747944e+002, 1.807840e+002
4.752765e+002, 1.812813e+002
4.757586e+002, 1.820918e+002
4.762407e+002, 1.823061e+002
4.767228e+002, 1.815596e+002
4.772050e+002, 1.805826e+002
4.776871e+002, 1.802893e+002
4.781692e+002, 1.805787e+002
4.786513e+002, 1.811446e+002
4.791334e+002, 1.816788e+002
4.796155e+002, 1.825018e+002
4.800977e+002, 1.844724e+002
4.805798e+002, 1.875598e+002
4.810619e+002, 1.895495e+002
4.815440e+002, 1.882569e+002
4.820261e+002, 1.857243e+002
4.825082e+002, 1.837714e+002
4.829904e+002, 1.830747e+002
4.834725e+002, 1.826164e+002
4.839546e+002, 1.820762e+002
4.844367e+002, 1.815799e+002
4.849188e+002, 1.814005e+002
4.854009e+002, 1.822043e+002
4.858831e+002, 1.826905e+002
4.863652e+002, 1.823126e+002
4.868473e+002, 1.809764e+002
4.873294e+002, 1.803082e+002
4.878115e+002, 1.807641e+002
4.882936e+002, 1.813537e+002
4.887758e+002, 1.812667e+002
4.892579e+002, 1.801550e+002
4.897400e+002, 1.796234e+002
4.902221e+002, 1.799049e+002
4.907042e+002, 1.806765e+002
4.911863e+002, 1.814556e+002
4.916685e+002, 1.822699e+002
4.921506e+002, 1.826589e+002
4.926327e+002, 1.821474e+002
4.931148e+002, 1.811041e+002
4.935969e+002, 1.809317e+002
4.940790e+002, 1.816223e+002
4.945612e+002, 1.823765e+002
4.950433e+002, 1.824069e+002
4.955254e+002, 1.820692e+002
4.960075e+002, 1.821180e+002
4.964896e+002, 1.828254e+002
4.969717e+002, 1.834998e+002
4.974539e+002, 1.833701e+002
4.979360e+002, 1.827774e+002
4.984181e+002, 1.823478e+002
4.989002e+002, 1.825905e+002
4.993823e+002, 1.828443e+002
4.998644e+002, 1.826530e+002
5.003466e+002, 1.820664e+002
5.008287e+002, 1.816810e+002
5.013108e+002, 1.820083e+002
5.017929e+002, 1.823519e+002
5.022750e+002, 1.822559e+002
5.027571e+002, 1.811769e+002
5.032393e+002, 1.806602e+002
5.037214e+002, 1.812152e+002
5.042035e+002, 1.821106e+002
5.046856e+002, 1.823629e+002
5.051677e+002, 1.816222e+002
5.056498e+002, 1.809381e+002
5.061320e+002, 1.805232e+002
5.066141e+002, 1.803251e+002
5.070962e+002, 1.800279e+002
5.075783e+002, 1.795608e+002
5.080604e+002, 1.792863e+002
5.085425e+002, 1.785764e+002
5.090247e+002, 1.777766e+002
5.095068e+002, 1.813105e+002
5.099889e+002, 1.900643e+002
5.104710e+002, 1.992610e+002
5.109531e+002, 2.044969e+002
5.114352e+002, 2.058376e+002
5.119174e+002, 2.029895e+002
5.123995e+002, 1.934505e+002
5.128816e+002, 1.829661e+002
5.133637e+002, 1.777959e+002
5.138458e+002, 1.768412e+002
5.143279e+002, 1.765392e+002
5.148101e+002, 1.749224e+002
5.152922e+002, 1.733508e+002
5.157743e+002, 1.730076e+002
5.162564e+002, 1.741244e+002
5.167385e+002, 1.749097e+002
5.172206e+002, 1.744151e+002
5.177028e+002, 1.735057e+002
5.181849e+002, 1.728775e+002
5.186670e+002, 1.729211e+002
5.191491e+002, 1.728844e+002
5.196312e+002, 1.726642e+002
5.201133e+002, 1.723429e+002
5.205955e+002, 1.720835e+002
5.210776e+002, 1.718607e+002
5.215597e+002, 1.717512e+002
5.220418e+002, 1.718214e+002
5.225239e+002, 1.720567e+002
5.230060e+002, 1.721629e+002
5.234882e+002, 1.721361e+002
5.239703e+002, 1.719865e+002
5.244524e+002, 1.715800e+002
5.249345e+002, 1.709723e+002
5.254166e+002, 1.708310e+002
5.258987e+002, 1.713263e+002
5.263809e+002, 1.719254e+002
5.268630e+002, 1.719227e+002
5.273451e+002, 1.714508e+002
5.278272e+002, 1.709215e+002
5.283093e+002, 1.703227e+002
5.287914e+002, 1.698876e+002
5.292736e+002, 1.700186e+002
5.297557e+002, 1.705879e+002
5.302378e+002, 1.710102e+002
5.307199e+002, 1.707217e+002
5.312020e+002, 1.703652e+002
5.316841e+002, 1.704790e+002
5.321663e+002, 1.712809e+002
5.326484e+002, 1.718248e+002
5.331305e+002, 1.716962e+002
5.336126e+002, 1.712879e+002
5.340947e+002, 1.709688e+002
5.345768e+002, 1.708660e+002
5.350590e+002, 1.707188e+002
5.355411e+002, 1.704525e+002
5.360232e+002, 1.701367e+002
5.365053e+002, 1.699732e+002
5.369874e+002, 1.699886e+002
5.374695e+002, 1.700942e+002
5.379517e+002, 1.703639e+002
5.384338e+002, 1.707536e+002
5.389159e+002, 1.704700e+002
5.393980e+002, 1.693762e+002
5.398801e+002, 1.684307e+002
5.403622e+002, 1.688679e+002
5.408444e+002, 1.702399e+002
5.413265e+002, 1.705883e+002
5.418086e+002, 1.694504e+002
5.422907e+002, 1.680483e+002
5.427728e+002, 1.678651e+002
5.432549e+002, 1.684704e+002
5.437371e+002, 1.689375e+002
5.442192e+002, 1.687255e+002
5.447013e+002, 1.683754e+002
5.451834e+002, 1.683059e+002
5.456655e+002, 1.684362e+002
5.461476e+002, 1.684374e+002
5.466298e+002, 1.679400e+002
5.471119e+002, 1.674714e+002
5.475940e+002, 1.673213e+002
5.480761e+002, 1.675786e+002
5.485582e+002, 1.679103e+002
5.490403e+002, 1.684459e+002
5.495225e+002, 1.689364e+002
5.500046e+002, 1.691555e+002
5.504867e+002, 1.689458e+002
5.509688e+002, 1.688034e+002
5.514509e+002, 1.687866e+002
5.519330e+002, 1.688419e+002
5.524152e+002, 1.688372e+002
5.528973e+002, 1.687545e+002
5.533794e+002, 1.687449e+002
5.538615e+002, 1.689271e+002
5.543436e+002, 1.692095e+002
5.548257e+002, 1.692085e+002
5.553079e+002, 1.689323e+002
5.557900e+002, 1.687178e+002
5.562721e+002, 1.691063e+002
5.567542e+002, 1.696392e+002
5.572363e+002, 1.693669e+002
5.577184e+002, 1.680294e+002
5.582006e+002, 1.669068e+002
5.586827e+002, 1.671861e+002
5.591648e+002, 1.681696e+002
5.596469e+002, 1.689789e+002
5.601290e+002, 1.693138e+002
5.606111e+002, 1.694435e+002
5.610933e+002, 1.694280e+002
5.615754e+002, 1.692679e+002
5.620575e+002, 1.689624e+002
5.625396e+002, 1.679686e+002
5.630217e+002, 1.674038e+002
5.635038e+002, 1.677704e+002
5.639860e+002, 1.691260e+002
5.644681e+002, 1.698358e+002
5.649502e+002, 1.696762e+002
5.654323e+002, 1.692862e+002
5.659144e+002, 1.691221e+002
5.663965e+002, 1.692036e+002
5.668787e+002, 1.691767e+002
5.673608e+002, 1.690019e+002
5.678429e+002, 1.687698e+002
5.683250e+002, 1.685490e+002
5.688071e+002, 1.683647e+002
5.692892e+002, 1.683558e+002
5.697714e+002, 1.686488e+002
5.702535e+002, 1.690301e+002
5.707356e+002, 1.692664e+002
5.712177e+002, 1.693692e+002
5.716998e+002, 1.693678e+002
5.721819e+002, 1.690487e+002
5.726641e+002, 1.688061e+002
5.731462e+002, 1.689592e+002
5.736283e+002, 1.695314e+002
5.741104e+002, 1.701163e+002
5.745925e+002, 1.708885e+002
5.750746e+002, 1.714324e+002
5.755568e+002, 1.714412e+002
5.760389e+002, 1.704338e+002
5.765210e+002, 1.697300e+002
5.770031e+002, 1.694252e+002
5.774852e+002, 1.693518e+002
5.779673e+002, 1.692954e+002
5.784495e+002, 1.692530e+002
5.789316e+002, 1.692347e+002
5.794137e+002, 1.692054e+002
5.798958e+002, 1.692340e+002
5.803779e+002, 1.695581e+002
5.808600e+002, 1.701752e+002
5.813422e+002, 1.708154e+002
5.818243e+002, 1.713846e+002
5.823064e+002, 1.718626e+002
5.827885e+002, 1.721520e+002
5.832706e+002, 1.722568e+002
5.837527e+002, 1.723458e+002
5.842349e+002, 1.726948e+002
5.847170e+002, 1.730145e+002
5.851991e+002, 1.729406e+002
5.856812e+002, 1.722702e+002
5.861633e+002, 1.716456e+002
5.866454e+002, 1.712236e+002
5.871276e+002, 1.710414e+002
5.876097e+002, 1.711483e+002
5.880918e+002, 1.718624e+002
5.885739e+002, 1.724930e+002
5.890560e+002, 1.728943e+002
5.895381e+002, 1.731593e+002
5.900203e+002, 1.736386e+002
5.905024e+002, 1.746568e+002
5.909845e+002, 1.751364e+002
5.914666e+002, 1.743952e+002
5.919487e+002, 1.726566e+002
5.924308e+002, 1.721422e+002
5.929130e+002, 1.729851e+002
5.933951e+002, 1.739869e+002
5.938772e+002, 1.740406e+002
5.943593e+002, 1.735065e+002
5.948414e+002, 1.735202e+002
5.953235e+002, 1.742543e+002
5.958057e+002, 1.750365e+002
5.962878e+002, 1.750687e+002
5.967699e+002, 1.747922e+002
5.972520e+002, 1.748968e+002
5.977341e+002, 1.759156e+002
5.982162e+002, 1.768704e+002
5.986984e+002, 1.770766e+002
5.991805e+002, 1.768966e+002
5.996626e+002, 1.771110e+002
6.001447e+002, 1.786122e+002
6.006268e+002, 1.797522e+002
6.011089e+002, 1.798984e+002
6.015911e+002, 1.791750e+002
6.020732e+002, 1.788963e+002
6.025553e+002, 1.792415e+002
6.030374e+002, 1.797090e+002
6.035195e+002, 1.799649e+002
6.040016e+002, 1.799844e+002
6.044838e+002, 1.805685e+002
6.049659e+002, 1.818214e+002
6.054480e+002, 1.831242e+002
6.059301e+002, 1.838288e+002
6.064122e+002, 1.840498e+002
6.068943e+002, 1.841750e+002
6.073765e+002, 1.842488e+002
6.078586e+002, 1.843291e+002
6.083407e+002, 1.843716e+002
6.088228e+002, 1.844747e+002
6.093049e+002, 1.848170e+002
6.097870e+002, 1.859694e+002
6.102692e+002, 1.868899e+002
6.107513e+002, 1.869282e+002
6.112334e+002, 1.862986e+002
6.117155e+002, 1.857863e+002
6.121976e+002, 1.855517e+002
6.126797e+002, 1.854458e+002
6.131619e+002, 1.854388e+002
6.136440e+002, 1.855349e+002
6.141261e+002, 1.856389e+002
6.146082e+002, 1.858049e+002
6.150903e+002, 1.858773e+002
6.155724e+002, 1.857789e+002
6.160546e+002, 1.855124e+002
6.165367e+002, 1.849418e+002
6.170188e+002, 1.840106e+002
6.175009e+002, 1.830015e+002
6.179830e+002, 1.820545e+002
6.184651e+002, 1.812868e+002
6.189473e+002, 1.811531e+002
6.194294e+002, 1.821060e+002
6.199115e+002, 1.830130e+002
6.203936e+002, 1.825201e+002
6.208757e+002, 1.812435e+002
6.213578e+002, 1.804301e+002
6.218400e+002, 1.812714e+002
6.223221e+002, 1.820041e+002
6.228042e+002, 1.815918e+002
6.232863e+002, 1.802613e+002
6.237684e+002, 1.796229e+002
6.242505e+002, 1.806079e+002
6.247327e+002, 1.814463e+002
6.252148e+002, 1.814252e+002
6.256969e+002, 1.804437e+002
6.261790e+002, 1.797602e+002
6.266611e+002, 1.793816e+002
6.271432e+002, 1.792908e+002
6.276254e+002, 1.796329e+002
6.281075e+002, 1.803486e+002
6.285896e+002, 1.806685e+002
6.290717e+002, 1.804494e+002
6.295538e+002, 1.802324e+002
6.300359e+002, 1.809642e+002
6.305181e+002, 1.821205e+002
6.310002e+002, 1.825295e+002
6.314823e+002, 1.813324e+002
6.319644e+002, 1.801702e+002
6.324465e+002, 1.803594e+002
6.329286e+002, 1.813975e+002
6.334108e+002, 1.822768e+002
6.338929e+002, 1.827850e+002
6.343750e+002, 1.829873e+002
6.348571e+002, 1.826704e+002
6.353392e+002, 1.819527e+002
6.358214e+002, 1.817122e+002
6.363035e+002, 1.821737e+002
6.367856e+002, 1.827306e+002
6.372677e+002, 1.831181e+002
6.377498e+002, 1.833308e+002
6.382319e+002, 1.837523e+002
6.387141e+002, 1.844408e+002
6.391962e+002, 1.850262e+002
6.396783e+002, 1.850255e+002
6.401604e+002, 1.846645e+002
6.406425e+002, 1.847720e+002
6.411246e+002, 1.854919e+002
6.416068e+002, 1.863089e+002
6.420889e+002, 1.869639e+002
6.425710e+002, 1.873579e+002
6.430531e+002, 1.873014e+002
6.435352e+002, 1.864439e+002
6.440173e+002, 1.856398e+002
6.444995e+002, 1.851878e+002
6.449816e+002, 1.850259e+002
6.454637e+002, 1.850355e+002
6.459458e+002, 1.853901e+002
6.464279e+002, 1.856729e+002
6.469100e+002, 1.857115e+002
6.473922e+002, 1.856228e+002
6.478743e+002, 1.859207e+002
6.483564e+002, 1.867048e+002
6.488385e+002, 1.875239e+002
6.493206e+002, 1.882569e+002
6.498027e+002, 1.888680e+002
6.502849e+002, 1.890784e+002
6.507670e+002, 1.888972e+002
6.512491e+002, 1.886421e+002
6.517312e+002, 1.885499e+002
6.522133e+002, 1.885399e+002
6.526954e+002, 1.884709e+002
6.531776e+002, 1.883223e+002
6.536597e+002, 1.882556e+002
6.541418e+002, 1.884429e+002
6.546239e+002, 1.887151e+002
6.551060e+002, 1.889219e+002
6.555881e+002, 1.890215e+002
6.560703e+002, 1.890777e+002
6.565524e+002, 1.891554e+002
6.570345e+002, 1.891576e+002
6.575166e+002, 1.889009e+002
6.579987e+002, 1.881264e+002
6.584808e+002, 1.878290e+002
6.589630e+002, 1.883148e+002
6.594451e+002, 1.891792e+002
6.599272e+002, 1.895584e+002
6.604093e+002, 1.894621e+002
6.608914e+002, 1.891122e+002
6.613735e+002, 1.882907e+002
6.618557e+002, 1.875301e+002
6.623378e+002, 1.880372e+002
6.628199e+002, 1.894985e+002
6.633020e+002, 1.905249e+002
6.637841e+002, 1.900155e+002
6.642662e+002, 1.890403e+002
6.647484e+002, 1.881847e+002
6.652305e+002, 1.875055e+002
6.657126e+002, 1.872269e+002
6.661947e+002, 1.877960e+002
6.666768e+002, 1.884592e+002
6.671589e+002, 1.887930e+002
6.676411e+002, 1.886763e+002
6.681232e+002, 1.887048e+002
6.686053e+002, 1.889592e+002
6.690874e+002, 1.891938e+002
6.695695e+002, 1.890629e+002
6.700516e+002, 1.885809e+002
6.705338e+002, 1.885401e+002
6.710159e+002, 1.891212e+002
6.714980e+002, 1.897814e+002
6.719801e+002, 1.897918e+002
6.724622e+002, 1.893602e+002
6.729443e+002, 1.889563e+002
6.734265e+002, 1.887411e+002
6.739086e+002, 1.885711e+002
6.743907e+002, 1.883804e+002
6.748728e+002, 1.881700e+002
6.753549e+002, 1.879399e+002
6.758370e+002, 1.875159e+002
6.763192e+002, 1.872878e+002
6.768013e+002, 1.876736e+002
6.772834e+002, 1.883819e+002
6.777655e+002, 1.881822e+002
6.782476e+002, 1.865153e+002
6.787297e+002, 1.852929e+002
6.792119e+002, 1.854664e+002
6.796940e+002, 1.867149e+002
6.801761e+002, 1.870993e+002
6.806582e+002, 1.865920e+002
6.811403e+002, 1.858772e+002
6.816224e+002, 1.853041e+002
6.821046e+002, 1.848695e+002
6.825867e+002, 1.845667e+002
6.830688e+002, 1.843885e+002
6.835509e+002, 1.843935e+002
6.840330e+002, 1.849528e+002
6.845151e+002, 1.854962e+002
6.849973e+002, 1.855096e+002
6.854794e+002, 1.847354e+002
6.859615e+002, 1.839786e+002
6.864436e+002, 1.833621e+002
6.869257e+002, 1.828176e+002
6.874078e+002, 1.822787e+002
6.878900e+002, 1.816796e+002
6.883721e+002, 1.813136e+002
6.888542e+002, 1.812982e+002
6.893363e+002, 1.813647e+002
6.898184e+002, 1.809665e+002
6.903005e+002, 1.801945e+002
6.907827e+002, 1.798716e+002
6.912648e+002, 1.804130e+002
6.917469e+002, 1.811188e+002
6.922290e+002, 1.810192e+002
6.927111e+002, 1.803831e+002
6.931932e+002, 1.798149e+002
6.936754e+002, 1.796541e+002
6.941575e+002, 1.795469e+002
6.946396e+002, 1.794310e+002
6.951217e+002, 1.792484e+002
6.956038e+002, 1.787836e+002
6.960859e+002, 1.775654e+002
6.965681e+002, 1.765938e+002
6.970502e+002, 1.762346e+002
6.975323e+002, 1.764045e+002
6.980144e+002, 1.761884e+002
6.984965e+002, 1.754479e+002
6.989786e+002, 1.749450e+002
6.994608e+002, 1.753810e+002
6.999429e+002, 1.764467e+002
7.004250e+002, 1.768455e+002
7.009071e+002, 1.765959e+002
7.013892e+002, 1.761296e+002
7.018713e+002, 1.754566e+002
7.023535e+002, 1.749146e+002
7.028356e+002, 1.750347e+002
7.033177e+002, 1.760027e+002
7.037998e+002, 1.766470e+002
7.042819e+002, 1.761796e+002
7.047640e+002, 1.754246e+002
7.052462e+002, 1.750300e+002
7.057283e+002, 1.752198e+002
7.062104e+002, 1.753199e+002
7.066925e+002, 1.751988e+002
7.071746e+002, 1.751423e+002
7.076567e+002, 1.756530e+002
7.081389e+002, 1.767692e+002
7.086210e+002, 1.771799e+002
7.091031e+002, 1.765608e+002
7.095852e+002, 1.756197e+002
7.100673e+002, 1.753020e+002
7.105494e+002, 1.754263e+002
7.110316e+002, 1.755356e+002
7.115137e+002, 1.754360e+002
7.119958e+002, 1.753486e+002
7.124779e+002, 1.755789e+002
7.129600e+002, 1.759045e+002
7.134421e+002, 1.759051e+002
7.139243e+002, 1.750877e+002
7.144064e+002, 1.743977e+002
7.148885e+002, 1.740819e+002
7.153706e+002, 1.740348e+002
7.158527e+002, 1.739364e+002
7.163348e+002, 1.737675e+002
7.168170e+002, 1.736135e+002
7.172991e+002, 1.734861e+002
7.177812e+002, 1.734023e+002
7.182633e+002, 1.735055e+002
7.187454e+002, 1.737642e+002
7.192275e+002, 1.738599e+002
7.197097e+002, 1.733840e+002
7.201918e+002, 1.727894e+002
7.206739e+002, 1.725966e+002
7.211560e+002, 1.727811e+002
7.216381e+002, 1.730039e+002
7.221202e+002, 1.733786e+002
7.226024e+002, 1.735253e+002
7.230845e+002, 1.730257e+002
7.235666e+002, 1.717054e+002
7.240487e+002, 1.712439e+002
7.245308e+002, 1.721560e+002
7.250129e+002, 1.731292e+002
7.254951e+002, 1.732726e+002
7.259772e+002, 1.725478e+002
7.264593e+002, 1.722154e+002
7.269414e+002, 1.723145e+002
7.274235e+002, 1.725638e+002
7.279056e+002, 1.728448e+002
7.283878e+002, 1.730546e+002
7.288699e+002, 1.729095e+002
7.293520e+002, 1.723022e+002
7.298341e+002, 1.718085e+002
7.303162e+002, 1.720861e+002
7.307983e+002, 1.725076e+002
7.312805e+002, 1.724210e+002
7.317626e+002, 1.710266e+002
7.322447e+002, 1.703816e+002
7.327268e+002, 1.711382e+002
7.332089e+002, 1.722700e+002
7.336910e+002, 1.725307e+002
7.341732e+002, 1.716391e+002
7.346553e+002, 1.713808e+002
7.351374e+002, 1.721444e+002
7.356195e+002, 1.731952e+002
7.361016e+002, 1.733923e+002
7.365837e+002, 1.729300e+002
7.370659e+002, 1.724500e+002
7.375480e+002, 1.720278e+002
7.380301e+002, 1.718650e+002
7.385122e+002, 1.724507e+002
7.389943e+002, 1.733572e+002
7.394764e+002, 1.738477e+002
7.399586e+002, 1.732488e+002
7.404407e+002, 1.727224e+002
7.409228e+002, 1.725838e+002
7.414049e+002, 1.727080e+002
7.418870e+002, 1.728885e+002
7.423691e+002, 1.732572e+002
7.428513e+002, 1.732426e+002
7.433334e+002, 1.724997e+002
7.438155e+002, 1.714482e+002
7.442976e+002, 1.713813e+002
7.447797e+002, 1.721785e+002
7.452618e+002, 1.727802e+002
7.457440e+002, 1.725792e+002
7.462261e+002, 1.719819e+002
7.467082e+002, 1.711585e+002
7.471903e+002, 1.702617e+002
7.476724e+002, 1.698311e+002
7.481545e+002, 1.706600e+002
7.486367e+002, 1.714494e+002
7.491188e+002, 1.714773e+002
7.496009e+002, 1.708189e+002
7.500830e+002, 1.707222e+002
7.505651e+002, 1.715319e+002
7.510472e+002, 1.721744e+002
7.515294e+002, 1.721096e+002
7.520115e+002, 1.714534e+002
7.524936e+002, 1.709534e+002
7.529757e+002, 1.706074e+002
7.534578e+002, 1.704379e+002
7.539399e+002, 1.705350e+002
7.544221e+002, 1.707848e+002
7.549042e+002, 1.710920e+002
7.553863e+002, 1.714419e+002
7.558684e+002, 1.716709e+002
7.563505e+002, 1.715570e+002
7.568326e+002, 1.714112e+002
7.573148e+002, 1.714759e+002
7.577969e+002, 1.718432e+002
7.582790e+002, 1.718831e+002
7.587611e+002, 1.713071e+002
7.592432e+002, 1.708533e+002
7.597253e+002, 1.711452e+002
7.602075e+002, 1.721864e+002
7.606896e+002, 1.726756e+002
7.611717e+002, 1.725822e+002
7.616538e+002, 1.721764e+002
7.621359e+002, 1.714831e+002
7.626180e+002, 1.707165e+002
7.631002e+002, 1.702598e+002
7.635823e+002, 1.701858e+002
7.640644e+002, 1.701712e+002
7.645465e+002, 1.701423e+002
7.650286e+002, 1.700425e+002
7.655107e+002, 1.697806e+002
7.659929e+002, 1.691131e+002
7.664750e+002, 1.689082e+002
7.669571e+002, 1.693862e+002
7.674392e+002, 1.700361e+002
7.679213e+002, 1.704256e+002
7.684034e+002, 1.705522e+002
7.688856e+002, 1.704858e+002
7.693677e+002, 1.701977e+002
7.698498e+002, 1.699109e+002
7.703319e+002, 1.699250e+002
7.708140e+002, 1.700865e+002
7.712961e+002, 1.701048e+002
7.717783e+002, 1.698695e+002
7.722604e+002, 1.696568e+002
7.727425e+002, 1.697056e+002
7.732246e+002, 1.698035e+002
7.737067e+002, 1.697264e+002
7.741888e+002, 1.692756e+002
7.746710e+002, 1.689356e+002
7.751531e+002, 1.687420e+002
7.756352e+002, 1.686228e+002
7.761173e+002, 1.684674e+002
7.765994e+002, 1.682783e+002
7.770815e+002, 1.682718e+002
7.775637e+002, 1.685397e+002
7.780458e+002, 1.687712e+002
7.785279e+002, 1.683813e+002
7.790100e+002, 1.677326e+002
7.794921e+002, 1.675256e+002
7.799742e+002, 1.682232e+002
7.804564e+002, 1.688581e+002
7.809385e+002, 1.688906e+002
7.814206e+002, 1.686498e+002
7.819027e+002, 1.686006e+002
7.823848e+002, 1.690907e+002
7.828669e+002, 1.691545e+002
7.833491e+002, 1.685661e+002
7.838312e+002, 1.676981e+002
7.843133e+002, 1.670972e+002
7.847954e+002, 1.667608e+002
7.852775e+002, 1.666712e+002
7.857596e+002, 1.668885e+002
7.862418e+002, 1.671832e+002
7.867239e+002, 1.673395e+002
7.872060e+002, 1.673594e+002
7.876881e+002, 1.672337e+002
7.881702e+002, 1.666871e+002
7.886523e+002, 1.663764e+002
7.891345e+002, 1.668551e+002
7.896166e+002, 1.676248e+002
7.900987e+002, 1.678001e+002
7.905808e+002, 1.669399e+002
7.910629e+002, 1.664736e+002
7.915450e+002, 1.667446e+002
7.920272e+002, 1.673080e+002
7.925093e+002, 1.672392e+002
7.929914e+002, 1.666303e+002
7.934735e+002, 1.662242e+002
7.939556e+002, 1.663226e+002
7.944377e+002, 1.665167e+002
7.949199e+002, 1.661597e+002
7.954020e+002, 1.656057e+002
7.958841e+002, 1.655064e+002
7.963662e+002, 1.667518e+002
7.968483e+002, 1.676816e+002
7.973304e+002, 1.677136e+002
7.978126e+002, 1.671962e+002
7.982947e+002, 1.666261e+002
7.987768e+002, 1.658180e+002
7.992589e+002, 1.656037e+002
7.997410e+002, 1.663377e+002
8.002231e+002, 1.674074e+002
8.007053e+002, 1.676022e+002
8.011874e+002, 1.671129e+002
8.016695e+002, 1.667223e+002
8.021516e+002, 1.667434e+002
8.026337e+002, 1.668981e+002
8.031158e+002, 1.670509e+002
8.035980e+002, 1.671568e+002
8.040801e+002, 1.671374e+002
8.045622e+002, 1.669644e+002
8.050443e+002, 1.666620e+002
8.055264e+002, 1.660638e+002
8.060085e+002, 1.654336e+002
8.064907e+002, 1.653459e+002
8.069728e+002, 1.659244e+002
8.074549e+002, 1.662135e+002
8.079370e+002, 1.658931e+002
8.084191e+002, 1.654062e+002
8.089012e+002, 1.655475e+002
8.093834e+002, 1.661156e+002
8.098655e+002, 1.665718e+002
8.103476e+002, 1.666665e+002
8.108297e+002, 1.666671e+002
8.113118e+002, 1.667371e+002
8.117939e+002, 1.668143e+002
8.122761e+002, 1.667890e+002
8.127582e+002, 1.664834e+002
8.132403e+002, 1.663320e+002
8.137224e+002, 1.664270e+002
8.142045e+002, 1.666575e+002
8.146866e+002, 1.669188e+002
8.151688e+002, 1.672017e+002
8.156509e+002, 1.670801e+002
8.161330e+002, 1.663281e+002
8.166151e+002, 1.654319e+002
8.170972e+002, 1.648668e+002
8.175793e+002, 1.646323e+002
8.180615e+002, 1.647354e+002
8.185436e+002, 1.656165e+002
8.190257e+002, 1.662377e+002
8.195078e+002, 1.661033e+002
8.199899e+002, 1.655394e+002
8.204720e+002, 1.650444e+002
8.209542e+002, 1.646098e+002
8.214363e+002, 1.642712e+002
8.219184e+002, 1.640299e+002
8.224005e+002, 1.638880e+002
8.228826e+002, 1.639214e+002
8.233647e+002, 1.640741e+002
8.238469e+002, 1.640603e+002
8.243290e+002, 1.637227e+002
8.248111e+002, 1.634504e+002
8.252932e+002, 1.637936e+002
8.257753e+002, 1.643367e+002
8.262574e+002, 1.645061e+002
8.267396e+002, 1.640289e+002
8.272217e+002, 1.633407e+002
8.277038e+002, 1.621134e+002
8.281859e+002, 1.610022e+002
8.286681e+002, 1.609023e+002
8.291502e+002, 1.619538e+002
8.296323e+002, 1.629036e+002
8.301144e+002, 1.636948e+002
8.305966e+002, 1.639560e+002
8.310787e+002, 1.625408e+002
8.315608e+002, 1.604155e+002
8.320429e+002, 1.595977e+002
8.325250e+002, 1.609890e+002
8.330071e+002, 1.623708e+002
8.334893e+002, 1.623560e+002
8.339714e+002, 1.619109e+002
8.344535e+002, 1.621156e+002
8.349356e+002, 1.637166e+002
8.354177e+002, 1.644282e+002
8.358998e+002, 1.640130e+002
8.363820e+002, 1.631367e+002
8.368641e+002, 1.623118e+002
8.373462e+002, 1.615949e+002
8.378283e+002, 1.614298e+002
8.383104e+002, 1.619298e+002
8.387925e+002, 1.624332e+002
8.392747e+002, 1.622470e+002
8.397568e+002, 1.618158e+002
8.402389e+002, 1.616365e+002
8.407210e+002, 1.618569e+002
8.412031e+002, 1.620955e+002
8.416852e+002, 1.623264e+002
8.421674e+002, 1.624924e+002
8.426495e+002, 1.625841e+002
8.431316e+002, 1.626279e+002
8.436137e+002, 1.622974e+002
8.440958e+002, 1.615194e+002
8.445779e+002, 1.607627e+002
8.450601e+002, 1.605032e+002
8.455422e+002, 1.605401e+002
8.460243e+002, 1.604748e+002
8.465064e+002, 1.602745e+002
8.469885e+002, 1.602062e+002
8.474706e+002, 1.606600e+002
8.479528e+002, 1.611034e+002
8.484349e+002, 1.611468e+002
8.489170e+002, 1.607240e+002
8.493991e+002, 1.604165e+002
8.498812e+002, 1.602762e+002
8.503633e+002, 1.601309e+002
8.508455e+002, 1.598150e+002
8.513276e+002, 1.593910e+002
8.518097e+002, 1.591765e+002
8.522918e+002, 1.591688e+002
8.527739e+002, 1.593929e+002
8.532560e+002, 1.602160e+002
8.537382e+002, 1.609978e+002
8.542203e+002, 1.610776e+002
8.547024e+002, 1.604977e+002
8.551845e+002, 1.601561e+002
8.556666e+002, 1.605655e+002
8.561487e+002, 1.608141e+002
8.566309e+002, 1.604988e+002
8.571130e+002, 1.597809e+002
8.575951e+002, 1.595924e+002
8.580772e+002, 1.599498e+002
8.585593e+002, 1.603316e+002
8.590414e+002, 1.605279e+002
8.595236e+002, 1.605734e+002
8.600057e+002, 1.605134e+002
8.604878e+002, 1.603450e+002
8.609699e+002, 1.600542e+002
8.614520e+002, 1.593597e+002
8.619341e+002, 1.588395e+002
8.624163e+002, 1.587725e+002
8.628984e+002, 1.590205e+002
8.633805e+002, 1.592791e+002
8.638626e+002, 1.595750e+002
8.643447e+002, 1.597754e+002
8.648268e+002, 1.598362e+002
8.653090e+002, 1.597975e+002
8.657911e+002, 1.597531e+002
8.662732e+002, 1.596705e+002
8.667553e+002, 1.594362e+002
8.672374e+002, 1.587561e+002
8.677195e+002, 1.582855e+002
8.682017e+002, 1.585247e+002
8.686838e+002, 1.591755e+002
8.691659e+002, 1.597756e+002
8.696480e+002, 1.603436e+002
8.701301e+002, 1.607840e+002
8.706122e+002, 1.611730e+002
8.710944e+002, 1.612979e+002
8.715765e+002, 1.605776e+002
8.720586e+002, 1.592265e+002
8.725407e+002, 1.585551e+002
8.730228e+002, 1.589135e+002
8.735049e+002, 1.594457e+002
8.739871e+002, 1.594106e+002
8.744692e+002, 1.591376e+002
8.749513e+002, 1.590294e+002
8.754334e+002, 1.593654e+002
8.759155e+002, 1.593244e+002
8.763976e+002, 1.584523e+002
8.768798e+002, 1.576631e+002
8.773619e+002, 1.578085e+002
8.778440e+002, 1.589318e+002
8.783261e+002, 1.595085e+002
8.788082e+002, 1.594593e+002
8.792903e+002, 1.592573e+002
8.797725e+002, 1.593395e+002
8.802546e+002, 1.594903e+002
8.807367e+002, 1.593696e+002
8.812188e+002, 1.589410e+002
8.817009e+002, 1.586912e+002
8.821830e+002, 1.589583e+002
8.826652e+002, 1.592806e+002
8.831473e+002, 1.593721e+002
8.836294e+002, 1.592522e+002
8.841115e+002, 1.596187e+002
8.845936e+002, 1.605639e+002
8.850757e+002, 1.613457e+002
8.855579e+002, 1.614789e+002
8.860400e+002, 1.611995e+002
8.865221e+002, 1.608208e+002
8.870042e+002, 1.603897e+002
8.874863e+002, 1.600914e+002
8.879684e+002, 1.602023e+002
8.884506e+002, 1.602697e+002
8.889327e+002, 1.599675e+002
8.894148e+002, 1.594591e+002
8.898969e+002, 1.593176e+002
8.903790e+002, 1.596532e+002
8.908611e+002, 1.599862e+002
8.913433e+002, 1.602264e+002
8.918254e+002, 1.603452e+002
8.923075e+002, 1.602408e+002
8.927896e+002, 1.599704e+002
8.932717e+002, 1.596911e+002
8.937538e+002, 1.593547e+002
8.942360e+002, 1.591912e+002
8.947181e+002, 1.594470e+002
8.952002e+002, 1.599143e+002
8.956823e+002, 1.603047e+002
8.961644e+002, 1.606688e+002
8.966465e+002, 1.607681e+002
8.971287e+002, 1.604759e+002
8.976108e+002, 1.601458e+002
8.980929e+002, 1.604343e+002
8.985750e+002, 1.610880e+002
8.990571e+002, 1.609618e+002
8.995392e+002, 1.597630e+002
9.000214e+002, 1.588131e+002
9.005035e+002, 1.593840e+002
9.009856e+002, 1.604438e+002
9.014677e+002, 1.611137e+002
9.019498e+002, 1.611684e+002
9.024319e+002, 1.611082e+002
9.029141e+002, 1.608480e+002
9.033962e+002, 1.606316e+002
9.038783e+002, 1.607029e+002
9.043604e+002, 1.609896e+002
9.048425e+002, 1.607874e+002
9.053246e+002, 1.601366e+002
9.058068e+002, 1.597690e+002
9.062889e+002, 1.607052e+002
9.067710e+002, 1.616857e+002
9.072531e+002, 1.614730e+002
9.077352e+002, 1.602216e+002
9.082173e+002, 1.595525e+002
9.086995e+002, 1.600155e+002
9.091816e+002, 1.605538e+002
9.096637e+002, 1.609085e+002
9.101458e+002, 1.611226e+002
9.106279e+002, 1.613350e+002
9.111100e+002, 1.615347e+002
9.115922e+002, 1.616210e+002
9.120743e+002, 1.615715e+002
9.125564e+002, 1.613687e+002
9.130385e+002, 1.607232e+002
9.135206e+002, 1.599801e+002
9.140027e+002, 1.597197e+002
9.144849e+002, 1.608119e+002
9.149670e+002, 1.613436e+002
9.154491e+002, 1.608399e+002
9.159312e+002, 1.601020e+002
9.164133e+002, 1.603889e+002
9.168954e+002, 1.616079e+002
9.173776e+002, 1.618716e+002
9.178597e+002, 1.608318e+002
9.183418e+002, 1.596874e+002
9.188239e+002, 1.596530e+002
9.193060e+002, 1.600760e+002
9.197881e+002, 1.601630e+002
9.202703e+002, 1.596301e+002
9.207524e+002, 1.596251e+002
9.212345e+002, 1.608760e+002
9.217166e+002, 1.619379e+002
9.221987e+002, 1.618610e+002
9.226808e+002, 1.607348e+002
9.231630e+002, 1.603223e+002
9.236451e+002, 1.606203e+002
9.241272e+002, 1.609348e+002
9.246093e+002, 1.606679e+002
9.250914e+002, 1.602968e+002
9.255735e+002, 1.602894e+002
9.260557e+002, 1.606116e+002
9.265378e+002, 1.610328e+002
9.270199e+002, 1.616657e+002
9.275020e+002, 1.621864e+002
9.279841e+002, 1.625659e+002
9.284662e+002, 1.627662e+002
9.289484e+002, 1.626396e+002
9.294305e+002, 1.622009e+002
9.299126e+002, 1.616826e+002
9.303947e+002, 1.610062e+002
9.308768e+002, 1.606162e+002
9.313589e+002, 1.614011e+002
9.318411e+002, 1.626430e+002
9.323232e+002, 1.632807e+002
9.328053e+002, 1.626214e+002
9.332874e+002, 1.620329e+002
9.337695e+002, 1.616119e+002
9.342516e+002, 1.613250e+002
9.347338e+002, 1.612369e+002
9.352159e+002, 1.613328e+002
9.356980e+002, 1.610201e+002
9.361801e+002, 1.602374e+002
9.366622e+002, 1.596081e+002
9.371443e+002, 1.596668e+002
9.376265e+002, 1.601325e+002
9.381086e+002, 1.609002e+002
9.385907e+002, 1.619665e+002
9.390728e+002, 1.625786e+002
9.395549e+002, 1.624312e+002
9.400370e+002, 1.620755e+002
9.405192e+002, 1.616263e+002
9.410013e+002, 1.611403e+002
9.414834e+002, 1.608700e+002
9.419655e+002, 1.608111e+002
9.424476e+002, 1.609497e+002
9.429297e+002, 1.613980e+002
9.434119e+002, 1.619142e+002
9.438940e+002, 1.624013e+002
9.443761e+002, 1.627876e+002
9.448582e+002, 1.629197e+002
9.453403e+002, 1.626107e+002
9.458224e+002, 1.622607e+002
9.463046e+002, 1.618333e+002
9.467867e+002, 1.614740e+002
9.472688e+002, 1.614352e+002
9.477509e+002, 1.616687e+002
9.482330e+002, 1.619007e+002
9.487151e+002, 1.620881e+002
9.491973e+002, 1.622659e+002
9.496794e+002, 1.624998e+002
9.501615e+002, 1.627093e+002
9.506436e+002, 1.628636e+002
9.511257e+002, 1.629996e+002
9.516078e+002, 1.627160e+002
9.520900e+002, 1.616835e+002
9.525721e+002, 1.609052e+002
9.530542e+002, 1.610759e+002
9.535363e+002, 1.619530e+002
9.540184e+002, 1.626287e+002
9.545005e+002, 1.630898e+002
9.549827e+002, 1.632801e+002
9.554648e+002, 1.630065e+002
9.559469e+002, 1.626126e+002
9.564290e+002, 1.621894e+002
9.569111e+002, 1.618146e+002
9.573932e+002, 1.617039e+002
9.578754e+002, 1.619444e+002
9.583575e+002, 1.622491e+002
9.588396e+002, 1.626279e+002
9.593217e+002, 1.629204e+002
9.598038e+002, 1.626726e+002
9.602859e+002, 1.621395e+002
9.607681e+002, 1.620914e+002
9.612502e+002, 1.628586e+002
9.617323e+002, 1.634768e+002
9.622144e+002, 1.632839e+002
9.626965e+002, 1.628029e+002
9.631786e+002, 1.624468e+002
9.636608e+002, 1.622306e+002
9.641429e+002, 1.621137e+002
9.646250e+002, 1.620708e+002
9.651071e+002, 1.622545e+002
9.655892e+002, 1.631091e+002
9.660714e+002, 1.641246e+002
9.665535e+002, 1.641557e+002
9.670356e+002, 1.633833e+002
9.675177e+002, 1.628005e+002
9.679998e+002, 1.633238e+002
9.684819e+002, 1.635929e+002
9.689641e+002, 1.627700e+002
9.694462e+002, 1.614277e+002
9.699283e+002, 1.609889e+002
9.704104e+002, 1.615300e+002
9.708925e+002, 1.621179e+002
9.713746e+002, 1.625283e+002
9.718568e+002, 1.629522e+002
9.723389e+002, 1.639345e+002
9.728210e+002, 1.649835e+002
9.733031e+002, 1.652693e+002
9.737852e+002, 1.642247e+002
9.742673e+002, 1.634940e+002
9.747495e+002, 1.636290e+002
9.752316e+002, 1.638932e+002
9.757137e+002, 1.637890e+002
9.761958e+002, 1.633151e+002
9.766779e+002, 1.628702e+002
9.771600e+002, 1.624542e+002
9.776422e+002, 1.623054e+002
9.781243e+002, 1.626599e+002
9.786064e+002, 1.632890e+002
9.790885e+002, 1.643699e+002
9.795706e+002, 1.656376e+002
9.800527e+002, 1.658772e+002
9.805349e+002, 1.641204e+002
9.810170e+002, 1.626816e+002
9.814991e+002, 1.620174e+002
9.819812e+002, 1.618851e+002
9.824633e+002, 1.618699e+002
9.829454e+002, 1.619750e+002
9.834276e+002, 1.622648e+002
9.839097e+002, 1.628611e+002
9.843918e+002, 1.632906e+002
9.848739e+002, 1.629673e+002
9.853560e+002, 1.624898e+002
9.858381e+002, 1.625025e+002
9.863203e+002, 1.631995e+002
9.868024e+002, 1.636555e+002
9.872845e+002, 1.638628e+002
9.877666e+002, 1.638552e+002
9.882487e+002, 1.635898e+002
9.887308e+002, 1.631482e+002
9.892130e+002, 1.626513e+002
9.896951e+002, 1.621295e+002
9.901772e+002, 1.616984e+002
9.906593e+002, 1.611923e+002
9.911414e+002, 1.610440e+002
9.916235e+002, 1.618154e+002
9.921057e+002, 1.629179e+002
9.925878e+002, 1.629675e+002
9.930699e+002, 1.618225e+002
9.935520e+002, 1.612039e+002
9.940341e+002, 1.615217e+002
9.945162e+002, 1.621866e+002
9.949984e+002, 1.627417e+002
9.954805e+002, 1.631098e+002
9.959626e+002, 1.631318e+002
9.964447e+002, 1.626591e+002
9.969268e+002, 1.623380e+002
9.974089e+002, 1.622740e+002
9.978911e+002, 1.623698e+002
9.983732e+002, 1.626181e+002
9.988553e+002, 1.629925e+002
9.993374e+002, 1.634303e+002
9.998195e+002, 1.638870e+002
1.000302e+003, 1.639362e+002
1.000784e+003, 1.628732e+002
1.001266e+003, 1.617611e+002
1.001748e+003, 1.613332e+002
1.002230e+003, 1.614194e+002
1.002712e+003, 1.615617e+002
1.003194e+003, 1.617464e+002
1.003676e+003, 1.619139e+002
1.004159e+003, 1.620333e+002
1.004641e+003, 1.621917e+002
1.005123e+003, 1.625785e+002
1.005605e+003, 1.630826e+002
1.006087e+003, 1.634534e+002
1.006569e+003, 1.636518e+002
1.007051e+003, 1.637397e+002
1.007533e+003, 1.637385e+002
1.008016e+003, 1.636388e+002
1.008498e+003, 1.633949e+002
1.008980e+003, 1.630249e+002
1.009462e+003, 1.628194e+002
1.009944e+003, 1.627793e+002
1.010426e+003, 1.628669e+002
1.010908e+003, 1.631239e+002
1.011390e+003, 1.634294e+002
1.011872e+003, 1.636440e+002
1.012355e+003, 1.638018e+002
1.012837e+003, 1.639713e+002
1.013319e+003, 1.643370e+002
1.013801e+003, 1.644577e+002
1.014283e+003, 1.641891e+002
1.014765e+003, 1.638374e+002
1.015247e+003, 1.637860e+002
1.015729e+003, 1.639644e+002
1.016211e+003, 1.639395e+002
1.016694e+003, 1.636788e+002
1.017176e+003, 1.634544e+002
1.017658e+003, 1.635370e+002
1.018140e+003, 1.636503e+002
1.018622e+003, 1.635986e+002
1.019104e+003, 1.633909e+002
1.019586e+003, 1.631278e+002
1.020068e+003, 1.627026e+002
1.020551e+003, 1.627202e+002
1.021033e+003, 1.635474e+002
1.021515e+003, 1.645956e+002
1.021997e+003, 1.648504e+002
1.022479e+003, 1.646193e+002
1.022961e+003, 1.644784e+002
1.023443e+003, 1.646018e+002
1.023925e+003, 1.648110e+002
1.024407e+003, 1.652864e+002
1.024890e+003, 1.656107e+002
1.025372e+003, 1.653762e+002
1.025854e+003, 1.645868e+002
1.026336e+003, 1.641095e+002
1.026818e+003, 1.639422e+002
1.027300e+003, 1.639538e+002
1.027782e+003, 1.639295e+002
1.028264e+003, 1.641559e+002
1.028746e+003, 1.652630e+002
1.029229e+003, 1.668653e+002
1.029711e+003, 1.674132e+002
1.030193e+003, 1.662484e+002
1.030675e+003, 1.655715e+002
1.031157e+003, 1.658347e+002
1.031639e+003, 1.665357e+002
1.032121e+003, 1.671855e+002
1.032603e+003, 1.676727e+002
1.033086e+003, 1.673459e+002
1.033568e+003, 1.658077e+002
1.034050e+003, 1.657062e+002
1.034532e+003, 1.705856e+002
1.035014e+003, 1.748769e+002
1.035496e+003, 1.752284e+002
1.035978e+003, 1.720639e+002
1.036460e+003, 1.699790e+002
1.036943e+003, 1.689913e+002
1.037425e+003, 1.682751e+002
1.037907e+003, 1.674009e+002
1.038389e+003, 1.666956e+002
1.038871e+003, 1.666383e+002
1.039353e+003, 1.669359e+002
1.039835e+003, 1.670739e+002
1.040317e+003, 1.667424e+002
1.040799e+003, 1.667228e+002
1.041281e+003, 1.671978e+002
1.041764e+003, 1.676069e+002
1.042246e+003, 1.670468e+002
1.042728e+003, 1.660550e+002
1.043210e+003, 1.663866e+002
1.043692e+003, 1.679979e+002
1.044174e+003, 1.690435e+002
1.044656e+003, 1.678835e+002
1.045138e+003, 1.667507e+002
1.045621e+003, 1.666980e+002
1.046103e+003, 1.673329e+002
1.046585e+003, 1.676127e+002
1.047067e+003, 1.675328e+002
1.047549e+003, 1.673157e+002
1.048031e+003, 1.669990e+002
1.048513e+003, 1.666475e+002
1.048995e+003, 1.662582e+002
1.049478e+003, 1.659169e+002
1.049960e+003, 1.656936e+002
1.050442e+003, 1.655655e+002
1.050924e+003, 1.658064e+002
1.051406e+003, 1.666073e+002
1.051888e+003, 1.673251e+002
1.052370e+003, 1.675505e+002
1.052852e+003, 1.674644e+002
1.053334e+003, 1.675078e+002
1.053817e+003, 1.676505e+002
1.054299e+003, 1.677973e+002
1.054781e+003, 1.680709e+002
1.055263e+003, 1.681217e+002
1.055745e+003, 1.675410e+002
1.056227e+003, 1.669041e+002
1.056709e+003, 1.670176e+002
1.057191e+003, 1.678987e+002
1.057673e+003, 1.680730e+002
1.058156e+003, 1.673979e+002
1.058638e+003, 1.667569e+002
1.059120e+003, 1.669935e+002
1.059602e+003, 1.674694e+002
1.060084e+003, 1.676918e+002
1.060566e+003, 1.676429e+002
1.061048e+003, 1.674888e+002
1.061530e+003, 1.671136e+002
1.062013e+003, 1.670235e+002
1.062495e+003, 1.674110e+002
1.062977e+003, 1.680257e+002
1.063459e+003, 1.686757e+002
1.063941e+003, 1.691986e+002
1.064423e+003, 1.691430e+002
1.064905e+003, 1.681019e+002
1.065387e+003, 1.676587e+002
1.065870e+003, 1.692418e+002
1.066352e+003, 1.705441e+002
1.066834e+003, 1.701420e+002
1.067316e+003, 1.683494e+002
1.067798e+003, 1.675991e+002
1.068280e+003, 1.678057e+002
1.068762e+003, 1.682382e+002
1.069244e+003, 1.687323e+002
1.069726e+003, 1.690892e+002
1.070208e+003, 1.690167e+002
1.070691e+003, 1.687789e+002
1.071173e+003, 1.688587e+002
1.071655e+003, 1.694902e+002
1.072137e+003, 1.695190e+002
1.072619e+003, 1.687910e+002
1.073101e+003, 1.680056e+002
1.073583e+003, 1.678971e+002
1.074065e+003, 1.680651e+002
1.074548e+003, 1.678998e+002
1.075030e+003, 1.674480e+002
1.075512e+003, 1.673241e+002
1.075994e+003, 1.682511e+002
1.076476e+003, 1.685824e+002
1.076958e+003, 1.677011e+002
1.077440e+003, 1.664209e+002
1.077922e+003, 1.664258e+002
1.078405e+003, 1.673105e+002
1.078887e+003, 1.677310e+002
1.079369e+003, 1.673578e+002
1.079851e+003, 1.669235e+002
1.080333e+003, 1.666258e+002
1.080815e+003, 1.665948e+002
1.081297e+003, 1.670159e+002
1.081779e+003, 1.678106e+002
1.082261e+003, 1.676019e+002
1.082744e+003, 1.664163e+002
1.083226e+003, 1.673012e+002
1.083708e+003, 1.735569e+002
1.084190e+003, 1.794219e+002
1.084672e+003, 1.784657e+002
1.085154e+003, 1.740669e+002
1.085636e+003, 1.712687e+002
1.086118e+003, 1.716564e+002
1.086601e+003, 1.710641e+002
1.087083e+003, 1.692052e+002
1.087565e+003, 1.673956e+002
1.088047e+003, 1.667085e+002
1.088529e+003, 1.667615e+002
1.089011e+003, 1.670948e+002
1.089493e+003, 1.675861e+002
1.089975e+003, 1.678181e+002
1.090458e+003, 1.670920e+002
1.090940e+003, 1.668889e+002
1.091422e+003, 1.677485e+002
1.091904e+003, 1.688847e+002
1.092386e+003, 1.691208e+002
1.092868e+003, 1.686035e+002
1.093350e+003, 1.677754e+002
1.093832e+003, 1.666732e+002
1.094314e+003, 1.660091e+002
1.094797e+003, 1.665559e+002
1.095279e+003, 1.673584e+002
1.095761e+003, 1.679258e+002
1.096243e+003, 1.682686e+002
1.096725e+003, 1.685500e+002
1.097207e+003, 1.687750e+002
1.097689e+003, 1.685150e+002
1.098171e+003, 1.673687e+002
1.098653e+003, 1.664697e+002
1.099136e+003, 1.674368e+002
1.099618e+003, 1.689940e+002
1.100100e+003, 1.695823e+002
1.100582e+003, 1.686696e+002
1.101064e+003, 1.685750e+002
1.101546e+003, 1.696076e+002
1.102028e+003, 1.703118e+002
1.102510e+003, 1.695897e+002
1.102993e+003, 1.683149e+002
1.103475e+003, 1.680886e+002
1.103957e+003, 1.685367e+002
1.104439e+003, 1.688199e+002
1.104921e+003, 1.683170e+002
1.105403e+003, 1.681601e+002
1.105885e+003, 1.686103e+002
1.106367e+003, 1.691594e+002
1.106849e+003, 1.693016e+002
1.107332e+003, 1.691359e+002
1.107814e+003, 1.691617e+002
1.108296e+003, 1.693309e+002
1.108778e+003, 1.691266e+002
1.109260e+003, 1.675222e+002
1.109742e+003, 1.663694e+002
1.110224e+003, 1.667743e+002
1.110706e+003, 1.678775e+002
1.111188e+003, 1.682063e+002
1.111671e+003, 1.677971e+002
1.112153e+003, 1.676870e+002
1.112635e+003, 1.680435e+002
1.113117e+003, 1.683989e+002
1.113599e+003, 1.683788e+002
1.114081e+003, 1.681978e+002
1.114563e+003, 1.679622e+002
1.115045e+003, 1.677032e+002
1.115528e+003, 1.675353e+002
1.116010e+003, 1.674077e+002
1.116492e+003, 1.677833e+002
1.116974e+003, 1.690549e+002
1.117456e+003, 1.701824e+002
1.117938e+003, 1.693887e+002
1.118420e+003, 1.678829e+002
1.118902e+003, 1.673033e+002
1.119385e+003, 1.682273e+002
1.119867e+003, 1.688913e+002
1.120349e+003, 1.693078e+002
1.120831e+003, 1.692185e+002
1.121313e+003, 1.681918e+002
1.121795e+003, 1.668268e+002
1.122277e+003, 1.662703e+002
1.122759e+003, 1.664162e+002
1.123241e+003, 1.670451e+002
1.123724e+003, 1.688503e+002
1.124206e+003, 1.698104e+002
1.124688e+003, 1.692535e+002
1.125170e+003, 1.684154e+002
1.125652e+003, 1.684215e+002
1.126134e+003, 1.690433e+002
1.126616e+003, 1.690818e+002
1.127098e+003, 1.685934e+002
1.127580e+003, 1.679881e+002
1.128063e+003, 1.670253e+002
1.128545e+003, 1.665373e+002
1.129027e+003, 1.673353e+002
1.129509e+003, 1.684874e+002
1.129991e+003, 1.686836e+002
1.130473e+003, 1.679541e+002
1.130955e+003, 1.675663e+002
1.131437e+003, 1.676309e+002
1.131920e+003, 1.677854e+002
1.132402e+003, 1.677758e+002
1.132884e+003, 1.677378e+002
1.133366e+003, 1.677382e+002
1.133848e+003, 1.677884e+002
1.134330e+003, 1.679226e+002
1.134812e+003, 1.681469e+002
1.135294e+003, 1.683960e+002
1.135776e+003, 1.686505e+002
1.136259e+003, 1.689500e+002
1.136741e+003, 1.694830e+002
1.137223e+003, 1.699857e+002
1.137705e+003, 1.701699e+002
1.138187e+003, 1.699802e+002
1.138669e+003, 1.697408e+002
1.139151e+003, 1.694114e+002
1.139633e+003, 1.691958e+002
1.140115e+003, 1.691952e+002
1.140598e+003, 1.692792e+002
1.141080e+003, 1.692858e+002
1.141562e+003, 1.692329e+002
1.142044e+003, 1.691463e+002
1.142526e+003, 1.690277e+002
1.143008e+003, 1.688847e+002
1.143490e+003, 1.686962e+002
1.143972e+003, 1.685385e+002
1.144455e+003, 1.684394e+002
1.144937e+003, 1.684109e+002
1.145419e+003, 1.685819e+002
1.145901e+003, 1.688410e+002
1.146383e+003, 1.688939e+002
1.146865e+003, 1.683461e+002
1.147347e+003, 1.680756e+002
1.147829e+003, 1.683204e+002
1.148312e+003, 1.686926e+002
1.148794e+003, 1.689412e+002
1.149276e+003, 1.690590e+002
1.149758e+003, 1.688105e+002
1.150240e+003, 1.683205e+002
1.150722e+003, 1.682526e+002
1.151204e+003, 1.695191e+002
1.151686e+003, 1.705365e+002
1.152168e+003, 1.706539e+002
1.152651e+003, 1.703926e+002
1.153133e+003, 1.703640e+002
1.153615e+003, 1.705258e+002
1.154097e+003, 1.703218e+002
1.154579e+003, 1.697410e+002
1.155061e+003, 1.693512e+002
1.155543e+003, 1.698304e+002
1.156025e+003, 1.702785e+002
1.156507e+003, 1.700571e+002
1.156990e+003, 1.695085e+002
1.157472e+003, 1.691886e+002
1.157954e+003, 1.690965e+002
1.158436e+003, 1.695630e+002
1.158918e+003, 1.706873e+002
1.159400e+003, 1.716970e+002
1.159882e+003, 1.719859e+002
1.160364e+003, 1.718994e+002
1.160847e+003, 1.714995e+002
1.161329e+003, 1.709241e+002
1.161811e+003, 1.708192e+002
1.162293e+003, 1.712321e+002
1.162775e+003, 1.716108e+002
1.163257e+003, 1.718503e+002
1.163739e+003, 1.719053e+002
1.164221e+003, 1.716136e+002
1.164703e+003, 1.711985e+002
1.165186e+003, 1.708941e+002
1.165668e+003, 1.707307e+002
1.166150e+003, 1.704416e+002
1.166632e+003, 1.699674e+002
1.167114e+003, 1.697477e+002
1.167596e+003, 1.699800e+002
1.168078e+003, 1.704673e+002
1.168560e+003, 1.712541e+002
1.169042e+003, 1.719950e+002
1.169525e+003, 1.720942e+002
1.170007e+003, 1.711329e+002
1.170489e+003, 1.709833e+002
1.170971e+003, 1.719116e+002
1.171453e+003, 1.726519e+002
1.171935e+003, 1.723686e+002
1.172417e+003, 1.717297e+002
1.172899e+003, 1.716686e+002
1.173382e+003, 1.720521e+002
1.173864e+003, 1.726700e+002
1.174346e+003, 1.738163e+002
1.174828e+003, 1.744420e+002
1.175310e+003, 1.744029e+002
1.175792e+003, 1.742079e+002
1.176274e+003, 1.742549e+002
1.176756e+003, 1.743708e+002
1.177239e+003, 1.741207e+002
1.177721e+003, 1.736657e+002
1.178203e+003, 1.734204e+002
1.178685e+003, 1.739082e+002
1.179167e+003, 1.739751e+002
1.179649e+003, 1.733655e+002
1.180131e+003, 1.727535e+002
1.180613e+003, 1.729477e+002
1.181095e+003, 1.735302e+002
1.181578e+003, 1.733687e+002
1.182060e+003, 1.726639e+002
1.182542e+003, 1.723963e+002
1.183024e+003, 1.736712e+002
1.183506e+003, 1.743005e+002
1.183988e+003, 1.737835e+002
1.184470e+003, 1.729002e+002
1.184952e+003, 1.724162e+002
1.185434e+003, 1.723166e+002
1.185917e+003, 1.728247e+002
1.186399e+003, 1.738253e+002
1.186881e+003, 1.743057e+002
1.187363e+003, 1.729822e+002
1.187845e+003, 1.722872e+002
1.188327e+003, 1.729674e+002
1.188809e+003, 1.741694e+002
1.189291e+003, 1.746171e+002
1.189774e+003, 1.745190e+002
1.190256e+003, 1.744568e+002
1.190738e+003, 1.745011e+002
1.191220e+003, 1.747279e+002
1.191702e+003, 1.753789e+002
1.192184e+003, 1.759691e+002
1.192666e+003, 1.763876e+002
1.193148e+003, 1.766224e+002
1.193630e+003, 1.765685e+002
1.194113e+003, 1.763125e+002
1.194595e+003, 1.761548e+002
1.195077e+003, 1.761626e+002
1.195559e+003, 1.761243e+002
1.196041e+003, 1.757240e+002
1.196523e+003, 1.755562e+002
1.197005e+003, 1.759994e+002
1.197487e+003, 1.767003e+002
1.197969e+003, 1.765345e+002
1.198452e+003, 1.757775e+002
1.198934e+003, 1.754884e+002
1.199416e+003, 1.760003e+002
1.199898e+003, 1.765369e+002
1.200380e+003, 1.768540e+002
1.200862e+003, 1.769554e+002
1.201344e+003, 1.767274e+002
1.201826e+003, 1.763440e+002
1.202309e+003, 1.766875e+002
1.202791e+003, 1.774833e+002
1.203273e+003, 1.774997e+002
1.203755e+003, 1.760021e+002
1.204237e+003, 1.748792e+002
1.204719e+003, 1.755880e+002
1.205201e+003, 1.763214e+002
1.205683e+003, 1.759820e+002
1.206166e+003, 1.748672e+002
1.206648e+003, 1.742174e+002
1.207130e+003, 1.740125e+002
1.207612e+003, 1.741829e+002
1.208094e+003, 1.749249e+002
1.208576e+003, 1.755479e+002
1.209058e+003, 1.757349e+002
1.209540e+003, 1.756944e+002
1.210022e+003, 1.753480e+002
1.210505e+003, 1.748613e+002
1.210987e+003, 1.755306e+002
1.211469e+003, 1.771140e+002
1.211951e+003, 1.784648e+002
1.212433e+003, 1.791536e+002
1.212915e+003, 1.794348e+002
1.213397e+003, 1.791757e+002
1.213879e+003, 1.787479e+002
1.214361e+003, 1.783566e+002
1.214844e+003, 1.780174e+002
1.215326e+003, 1.778367e+002
1.215808e+003, 1.778120e+002
1.216290e+003, 1.779257e+002
1.216772e+003, 1.784514e+002
1.217254e+003, 1.787234e+002
1.217736e+003, 1.781637e+002
1.218218e+003, 1.776752e+002
1.218701e+003, 1.782916e+002
1.219183e+003, 1.797425e+002
1.219665e+003, 1.800548e+002
1.220147e+003, 1.794079e+002
1.220629e+003, 1.789110e+002
1.221111e+003, 1.794330e+002
1.221593e+003, 1.797239e+002
1.222075e+003, 1.791711e+002
1.222557e+003, 1.785727e+002
1.223040e+003, 1.788987e+002
1.223522e+003, 1.799036e+002
1.224004e+003, 1.803353e+002
1.224486e+003, 1.802375e+002
1.224968e+003, 1.800855e+002
1.225450e+003, 1.800520e+002
1.225932e+003, 1.800773e+002
1.226414e+003, 1.801728e+002
1.226896e+003, 1.802738e+002
1.227379e+003, 1.802786e+002
1.227861e+003, 1.802258e+002
1.228343e+003, 1.803564e+002
1.228825e+003, 1.806163e+002
1.229307e+003, 1.805928e+002
1.229789e+003, 1.795076e+002
1.230271e+003, 1.789800e+002
1.230753e+003, 1.796013e+002
1.231236e+003, 1.805135e+002
1.231718e+003, 1.803025e+002
1.232200e+003, 1.795588e+002
1.232682e+003, 1.803741e+002
1.233164e+003, 1.825876e+002
1.233646e+003, 1.837876e+002
1.234128e+003, 1.816605e+002
1.234610e+003, 1.802650e+002
1.235093e+003, 1.805274e+002
1.235575e+003, 1.815288e+002
1.236057e+003, 1.822276e+002
1.236539e+003, 1.826648e+002
1.237021e+003, 1.829445e+002
1.237503e+003, 1.830596e+002
1.237985e+003, 1.828802e+002
1.238467e+003, 1.817497e+002
1.238949e+003, 1.813142e+002
1.239432e+003, 1.820051e+002
1.239914e+003, 1.831417e+002
1.240396e+003, 1.839761e+002
1.240878e+003, 1.845014e+002
1.241360e+003, 1.845412e+002
1.241842e+003, 1.841349e+002
1.242324e+003, 1.839923e+002
1.242806e+003, 1.843235e+002
1.243288e+003, 1.848063e+002
1.243771e+003, 1.854778e+002
1.244253e+003, 1.860276e+002
1.244735e+003, 1.857466e+002
1.245217e+003, 1.852466e+002
1.245699e+003, 1.856227e+002
1.246181e+003, 1.869007e+002
1.246663e+003, 1.876503e+002
1.247145e+003, 1.876417e+002
1.247628e+003, 1.874073e+002
1.248110e+003, 1.869865e+002
1.248592e+003, 1.866330e+002
1.249074e+003, 1.866947e+002
1.249556e+003, 1.869957e+002
1.250038e+003, 1.873554e+002
1.250520e+003, 1.877565e+002
1.251002e+003, 1.882381e+002
1.251484e+003, 1.888969e+002
1.251967e+003, 1.891724e+002
1.252449e+003, 1.888672e+002
1.252931e+003, 1.884323e+002
1.253413e+003, 1.881094e+002
1.253895e+003, 1.880905e+002
1.254377e+003, 1.888314e+002
1.254859e+003, 1.902209e+002
1.255341e+003, 1.907337e+002
1.255823e+003, 1.902112e+002
1.256306e+003, 1.902064e+002
1.256788e+003, 1.911438e+002
1.257270e+003, 1.923095e+002
1.257752e+003, 1.935980e+002
1.258234e+003, 1.943621e+002
1.258716e+003, 1.934621e+002
1.259198e+003, 1.914332e+002
1.259680e+003, 1.910959e+002
1.260163e+003, 1.924680e+002
1.260645e+003, 1.933027e+002
1.261127e+003, 1.930065e+002
1.261609e+003, 1.927119e+002
1.262091e+003, 1.936124e+002
1.262573e+003, 1.944944e+002
1.263055e+003, 1.943559e+002
1.263537e+003, 1.935815e+002
1.264020e+003, 1.936454e+002
1.264502e+003, 1.944241e+002
1.264984e+003, 1.949581e+002
1.265466e+003, 1.949946e+002
1.265948e+003, 1.950131e+002
1.266430e+003, 1.953865e+002
1.266912e+003, 1.957079e+002
1.267394e+003, 1.957716e+002
1.267876e+003, 1.956449e+002
1.268359e+003, 1.953711e+002
1.268841e+003, 1.950662e+002
1.269323e+003, 1.952488e+002
1.269805e+003, 1.960968e+002
1.270287e+003, 1.968203e+002
1.270769e+003, 1.970876e+002
1.271251e+003, 1.971262e+002
1.271733e+003, 1.968909e+002
1.272215e+003, 1.966302e+002
1.272698e+003, 1.969740e+002
1.273180e+003, 1.976967e+002
1.273662e+003, 1.982984e+002
1.274144e+003, 1.986928e+002
1.274626e+003, 1.990208e+002
1.275108e+003, 1.994339e+002
1.275590e+003, 1.995166e+002
1.276072e+003, 1.989788e+002
1.276555e+003, 1.983572e+002
1.277037e+003, 1.986228e+002
1.277519e+003, 1.993654e+002
1.278001e+003, 1.999611e+002
1.278483e+003, 2.002858e+002
1.278965e+003, 2.008194e+002
1.279447e+003, 2.017694e+002
1.279929e+003, 2.020697e+002
1.280411e+003, 2.010624e+002
1.280894e+003, 2.002423e+002
1.281376e+003, 2.021534e+002
1.281858e+003, 2.048114e+002
1.282340e+003, 2.057624e+002
1.282822e+003, 2.048977e+002
1.283304e+003, 2.049349e+002
1.283786e+003, 2.059781e+002
1.284268e+003, 2.068402e+002
1.284750e+003, 2.072341e+002
1.285233e+003, 2.072496e+002
1.285715e+003, 2.065076e+002
1.286197e+003, 2.058291e+002
1.286679e+003, 2.059741e+002
1.287161e+003, 2.067750e+002
1.287643e+003, 2.076579e+002
1.288125e+003, 2.085933e+002
1.288607e+003, 2.090641e+002
1.289090e+003, 2.088467e+002
1.289572e+003, 2.088179e+002
1.290054e+003, 2.097805e+002
1.290536e+003, 2.108379e+002
1.291018e+003, 2.116417e+002
1.291500e+003, 2.121038e+002
1.291982e+003, 2.115368e+002
1.292464e+003, 2.104016e+002
1.292947e+003, 2.105024e+002
1.293429e+003, 2.122958e+002
1.293911e+003, 2.141496e+002
1.294393e+003, 2.156201e+002
1.294875e+003, 2.167198e+002
1.295357e+003, 2.173477e+002
1.295839e+003, 2.177182e+002
1.296321e+003, 2.182597e+002
1.296803e+003, 2.188766e+002
1.297286e+003, 2.193910e+002
1.297768e+003, 2.197740e+002
1.298250e+003, 2.199865e+002
1.298732e+003, 2.199664e+002
1.299214e+003, 2.199458e+002
1.299696e+003, 2.199628e+002
1.300178e+003, 2.201096e+002
1.300660e+003, 2.205484e+002
##END=



