##NAMES=Sazhinite-(La)
##RRUFFID=R120053
##IDEAL CHEMISTRY=Na_3_LaSi_6_O_15_&#183;2H_2_O
##LOCALITY=Aris quarry, near Windhoek, Namibia
##OWNER=RRUFF
##SOURCE=William W. Pinch
##DESCRIPTION=Thin platy white crystals, associated with reddish brown accicular tuperssuatsiate and colorless granular natrolite. Note that the b-cell edge is half of that reported.
##STATUS=The identification of this mineral has been confirmed only by single crystal X-ray diffraction.
##URL=rruff.info/R120053
99.22540, 0.0000000E+00
99.70752, 1.013382
100.1896, 4.320236
100.6718, 7.297913
101.1539, 7.661835
101.6360, 4.919174
102.1181, 3.384171
102.6002, 2.137878
103.0823, 1.457321
103.5645, 0.7945710
104.0466, 1.3931000E-02
104.5287, 0.5650790
105.0108, 0.7490690
105.4929, 0.9452510
105.9750, 2.7771000E-02
106.4572, 2.601486
106.9393, 7.241394
107.4214, 10.87108
107.9035, 14.10323
108.3856, 16.12961
108.8677, 16.01482
109.3499, 11.10405
109.8320, 6.682953
110.3141, 3.903076
110.7962, 3.192810
111.2783, 2.699280
111.7604, 2.097107
112.2426, 1.662979
112.7247, 1.824677
113.2068, 2.996048
113.6889, 4.496506
114.1710, 6.053787
114.6531, 7.625122
115.1353, 9.251114
115.6174, 11.10023
116.0995, 13.04303
116.5816, 14.78406
117.0637, 16.19080
117.5458, 17.35455
118.0280, 18.35037
118.5101, 19.16338
118.9922, 19.82486
119.4743, 20.37152
119.9564, 20.78314
120.4385, 20.95934
120.9207, 20.25841
121.4028, 19.46648
121.8849, 19.45918
122.3670, 20.46739
122.8491, 22.45306
123.3312, 26.25279
123.8134, 31.73009
124.2955, 36.17062
124.7776, 36.62231
125.2597, 34.42532
125.7418, 32.30156
126.2239, 31.19984
126.7061, 30.89348
127.1882, 31.06566
127.6703, 31.72310
128.1524, 32.80571
128.6345, 34.59637
129.1166, 36.89856
129.5988, 38.84221
130.0809, 39.50688
130.5630, 39.40884
131.0451, 40.50731
131.5272, 43.12473
132.0093, 46.16388
132.4915, 48.01106
132.9736, 48.66034
133.4557, 49.04124
133.9378, 49.35973
134.4199, 49.66023
134.9020, 50.82277
135.3842, 53.15723
135.8663, 56.05922
136.3484, 58.23468
136.8305, 59.48895
137.3126, 60.84413
137.7947, 62.86563
138.2769, 65.59224
138.7590, 68.87744
139.2411, 73.00154
139.7232, 77.60240
140.2053, 81.12691
140.6874, 83.68639
141.1696, 85.05206
141.6517, 84.72476
142.1338, 81.78159
142.6159, 79.68301
143.0980, 78.94193
143.5801, 79.48872
144.0623, 80.39029
144.5444, 81.91306
145.0265, 83.52921
145.5086, 84.78284
145.9907, 85.45374
146.4728, 86.15588
146.9550, 87.05588
147.4371, 88.17886
147.9192, 89.03690
148.4013, 89.70901
148.8834, 90.06683
149.3655, 89.98532
149.8477, 88.93750
150.3298, 87.99854
150.8119, 87.35294
151.2940, 87.02954
151.7761, 86.80585
152.2583, 87.00565
152.7404, 87.18271
153.2225, 86.86783
153.7046, 84.91968
154.1867, 83.49890
154.6688, 83.49652
155.1510, 85.51450
155.6331, 86.71193
156.1152, 86.19749
156.5973, 84.71596
157.0794, 83.14017
157.5615, 81.22156
158.0437, 79.83441
158.5258, 79.56171
159.0079, 80.98352
159.4900, 81.92809
159.9721, 81.16760
160.4542, 79.55972
160.9364, 78.60678
161.4185, 79.37302
161.9006, 80.53229
162.3827, 81.46216
162.8648, 82.26965
163.3469, 82.39301
163.8291, 81.21825
164.3112, 79.13734
164.7933, 77.12244
165.2754, 75.78749
165.7575, 74.59137
166.2396, 73.08600
166.7218, 71.00381
167.2039, 68.95102
167.6860, 67.15286
168.1681, 65.66681
168.6502, 64.61046
169.1323, 64.19717
169.6145, 64.20111
170.0966, 64.51703
170.5787, 65.57562
171.0608, 66.24774
171.5429, 65.11163
172.0250, 62.52792
172.5072, 60.27725
172.9893, 59.68384
173.4714, 60.01405
173.9535, 60.26923
174.4356, 60.14622
174.9177, 59.88818
175.3999, 59.90619
175.8820, 60.13004
176.3641, 60.01367
176.8462, 58.85376
177.3283, 57.10315
177.8104, 55.61374
178.2926, 54.69873
178.7747, 54.12207
179.2568, 53.72963
179.7389, 53.50851
180.2210, 53.07716
180.7031, 51.80309
181.1853, 50.03804
181.6674, 48.76828
182.1495, 48.58418
182.6316, 48.91595
183.1137, 48.59225
183.5958, 47.59436
184.0780, 46.59273
184.5601, 46.36026
185.0422, 46.71654
185.5243, 46.84193
186.0064, 46.22501
186.4885, 45.25752
186.9707, 45.20474
187.4528, 46.16306
187.9349, 47.10672
188.4170, 46.78903
188.8991, 45.36925
189.3812, 44.10625
189.8634, 43.44856
190.3455, 43.25598
190.8276, 42.94162
191.3097, 42.46350
191.7918, 42.07732
192.2739, 42.21066
192.7561, 42.84769
193.2382, 43.25174
193.7203, 43.11209
194.2024, 42.51486
194.6845, 42.03857
195.1666, 41.76682
195.6488, 41.30051
196.1309, 39.89192
196.6130, 37.43365
197.0951, 35.47873
197.5772, 34.69582
198.0593, 34.96381
198.5415, 34.94014
199.0236, 34.57858
199.5057, 34.07166
199.9878, 33.64706
200.4699, 33.31395
200.9520, 33.07072
201.4342, 32.98447
201.9163, 33.05351
202.3984, 32.88893
202.8805, 32.37386
203.3626, 31.87820
203.8447, 31.94931
204.3269, 32.68985
204.8090, 33.50845
205.2911, 34.19321
205.7732, 34.73801
206.2553, 35.45103
206.7374, 36.44362
207.2196, 37.41142
207.7017, 37.78284
208.1838, 37.27362
208.6659, 37.14238
209.1480, 37.88127
209.6301, 39.56064
210.1123, 41.21341
210.5944, 42.92888
211.0765, 44.50624
211.5586, 45.63655
212.0407, 46.22354
212.5228, 46.63445
213.0050, 47.06038
213.4871, 47.56570
213.9692, 47.41306
214.4513, 46.44026
214.9334, 44.98576
215.4155, 43.44247
215.8977, 41.70880
216.3798, 40.13712
216.8619, 38.88138
217.3440, 37.99083
217.8261, 37.10764
218.3082, 36.37108
218.7904, 35.60257
219.2725, 34.42859
219.7546, 32.65829
220.2367, 30.74658
220.7188, 28.83980
221.2009, 26.91608
221.6831, 25.03140
222.1652, 23.21982
222.6473, 21.43858
223.1294, 19.59483
223.6115, 17.34048
224.0936, 15.94290
224.5758, 15.93468
225.0579, 17.55768
225.5400, 17.76067
226.0221, 15.84010
226.5042, 13.21149
226.9863, 11.85022
227.4685, 12.61494
227.9506, 13.16809
228.4327, 12.75783
228.9148, 11.15854
229.3969, 9.651413
229.8790, 8.203049
230.3612, 6.924973
230.8433, 5.980545
231.3254, 5.554535
231.8075, 5.153473
232.2896, 4.688461
232.7717, 4.173050
233.2539, 3.451828
233.7360, 2.357086
234.2181, 1.227325
234.7002, 0.4313050
235.1823, 2.3804000E-02
235.6644, 0.1122740
236.1466, 0.1072080
236.6287, 0.7393650
237.1108, 1.082489
237.5929, 1.102875
238.0750, 0.8733830
238.5571, 0.4217220
239.0393, 0.4738620
239.5214, 1.169998
240.0035, 1.513046
240.4856, 1.490875
240.9677, 1.390640
241.4498, 1.113434
241.9320, 0.8578800
242.4141, 0.8558500
242.8962, 1.372864
243.3783, 1.651611
243.8604, 1.504944
244.3425, 0.9376980
244.8247, 0.4282530
245.3068, 2.6169000E-02
245.7889, 0.4065860
246.2710, 0.6631930
246.7531, 0.6119540
247.2352, 0.8048860
247.7174, 1.419571
248.1995, 2.422913
248.6816, 3.273148
249.1637, 4.108490
249.6458, 4.639923
250.1279, 4.552063
250.6101, 3.419510
251.0922, 2.615158
251.5743, 2.403824
252.0564, 2.718719
252.5385, 2.969986
253.0206, 2.956161
253.5028, 3.156647
253.9849, 4.005661
254.4670, 5.973267
254.9491, 7.430038
255.4312, 7.997284
255.9133, 7.876907
256.3955, 8.187103
256.8776, 9.038437
257.3597, 10.13779
257.8418, 11.35797
258.3239, 12.84846
258.8061, 14.02565
259.2882, 14.69090
259.7703, 15.03738
260.2524, 15.83801
260.7345, 17.35854
261.2166, 18.86392
261.6988, 19.93832
262.1809, 20.41653
262.6630, 21.03049
263.1451, 22.03671
263.6272, 23.10542
264.1093, 23.17120
264.5915, 21.78273
265.0736, 20.42531
265.5557, 19.84883
266.0378, 20.28474
266.5199, 20.63507
267.0020, 20.90288
267.4842, 21.06258
267.9663, 21.11794
268.4484, 21.17746
268.9305, 20.81639
269.4126, 19.70448
269.8947, 17.62459
270.3769, 16.01379
270.8590, 15.04851
271.3411, 14.29839
271.8232, 12.99443
272.3053, 10.96552
272.7874, 9.024872
273.2696, 7.466476
273.7517, 6.308655
274.2338, 5.212448
274.7159, 4.211029
275.1980, 3.191574
275.6801, 1.896088
276.1623, 0.2144320
276.6444, 1.062988
277.1265, 1.592789
277.6086, 1.424698
278.0907, 1.262741
278.5728, 1.075607
279.0550, 0.9650270
279.5371, 0.9596860
280.0192, 1.031631
280.5013, 1.606003
280.9834, 3.176956
281.4655, 5.351181
281.9477, 5.895630
282.4298, 4.577835
282.9119, 2.715439
283.3940, 1.355469
283.8761, 0.4979710
284.3582, 0.1927190
284.8404, 0.7185820
285.3225, 1.658035
285.8046, 1.680649
286.2867, 0.7366330
286.7688, 0.5758970
287.2509, 1.834747
287.7331, 3.053238
288.2152, 4.365814
288.6973, 5.819244
289.1794, 7.349838
289.6615, 8.938171
290.1436, 10.59276
290.6258, 11.87237
291.1079, 12.08749
291.5900, 11.57909
292.0721, 11.94325
292.5542, 13.54852
293.0363, 15.63155
293.5185, 16.96188
294.0006, 17.62852
294.4827, 18.33249
294.9648, 19.65779
295.4469, 21.33517
295.9290, 22.52733
296.4112, 23.09985
296.8933, 23.59465
297.3754, 24.63474
297.8575, 26.14531
298.3396, 27.87599
298.8217, 29.86079
299.3039, 31.93993
299.7860, 33.71054
300.2681, 35.17146
300.7502, 36.73474
301.2323, 38.92210
301.7144, 41.48146
302.1966, 43.69565
302.6787, 45.00255
303.1608, 46.08887
303.6429, 47.88708
304.1250, 50.35233
304.6071, 52.96956
305.0893, 55.28220
305.5714, 57.45747
306.0535, 59.69505
306.5356, 62.08372
307.0177, 64.54919
307.4998, 67.26416
307.9820, 70.16354
308.4641, 72.62282
308.9462, 74.05063
309.4283, 74.94110
309.9104, 75.75174
310.3925, 76.40259
310.8747, 77.19440
311.3568, 78.80830
311.8389, 80.86075
312.3210, 82.17593
312.8031, 81.70885
313.2852, 80.59857
313.7674, 79.63194
314.2495, 78.93698
314.7316, 78.54373
315.2137, 78.81900
315.6958, 79.32404
316.1779, 79.31842
316.6601, 78.43817
317.1422, 77.08734
317.6243, 75.39871
318.1064, 73.35896
318.5885, 71.30176
319.0706, 69.47879
319.5528, 67.65610
320.0349, 65.56735
320.5170, 62.56091
320.9991, 59.83229
321.4812, 57.89903
321.9633, 56.77341
322.4455, 55.58325
322.9276, 54.03412
323.4097, 52.40161
323.8918, 50.89224
324.3739, 49.57182
324.8560, 48.33252
325.3382, 47.26059
325.8203, 46.30020
326.3024, 45.13055
326.7845, 43.08255
327.2666, 41.28490
327.7487, 40.29643
328.2309, 40.97797
328.7130, 41.30289
329.1951, 40.97304
329.6772, 40.29498
330.1593, 40.06137
330.6414, 40.78532
331.1236, 41.36565
331.6057, 41.35602
332.0878, 40.42368
332.5699, 39.91563
333.0520, 39.93762
333.5341, 40.31651
334.0163, 40.78493
334.4984, 41.47400
334.9805, 41.99542
335.4626, 42.13316
335.9447, 41.84781
336.4268, 42.39453
336.9090, 44.11221
337.3911, 46.13841
337.8732, 47.63693
338.3553, 48.50700
338.8374, 49.01663
339.3195, 49.13632
339.8017, 49.00960
340.2838, 49.06772
340.7659, 49.46130
341.2480, 49.61029
341.7301, 48.71791
342.2122, 46.66989
342.6944, 45.82281
343.1765, 46.76489
343.6586, 48.50793
344.1407, 48.95091
344.6228, 48.09802
345.1049, 46.81490
345.5871, 45.46118
346.0692, 44.01968
346.5513, 42.59190
347.0334, 41.21373
347.5155, 39.69347
347.9977, 37.71445
348.4798, 35.34467
348.9619, 33.02065
349.4440, 31.07527
349.9261, 29.23865
350.4082, 26.90979
350.8904, 24.08713
351.3725, 21.14516
351.8546, 18.09360
352.3367, 15.15211
352.8188, 12.79396
353.3009, 11.37120
353.7831, 10.30635
354.2652, 8.843246
354.7473, 7.119598
355.2294, 5.774994
355.7115, 5.808960
356.1936, 6.169617
356.6758, 5.640259
357.1579, 3.782379
357.6400, 1.662308
358.1221, 0.4362640
358.6042, 2.234604
359.0863, 3.225510
359.5685, 2.281357
360.0506, 1.119141
360.5327, 0.9235530
361.0148, 1.900467
361.4969, 2.779205
361.9790, 3.145477
362.4612, 3.095932
362.9433, 2.739761
363.4254, 1.884216
363.9075, 0.9526980
364.3896, 0.1288300
364.8717, 1.295578
365.3539, 1.906326
365.8360, 1.371948
366.3181, 0.5303190
366.8002, 0.1264800
367.2823, 0.7198940
367.7644, 0.9193570
368.2466, 0.2808840
368.7287, 0.7996670
369.2108, 1.206726
369.6929, 0.3604130
370.1750, 0.5464170
370.6571, 1.083099
371.1393, 1.076416
371.6214, 1.310272
372.1035, 2.071686
372.5856, 2.859024
373.0677, 2.974457
373.5498, 2.095612
374.0320, 1.234161
374.5141, 0.6488490
374.9962, 0.3137970
375.4783, 0.2259980
375.9604, 1.090881
376.4425, 1.890045
376.9247, 2.224335
377.4068, 2.007126
377.8889, 1.972275
378.3710, 2.217041
378.8531, 2.689072
379.3352, 3.373474
379.8174, 4.291245
380.2995, 5.062408
380.7816, 5.241898
381.2637, 4.976379
381.7458, 5.315414
382.2279, 6.390381
382.7101, 7.730911
383.1922, 8.966217
383.6743, 10.04370
384.1564, 10.64850
384.6385, 10.42079
385.1206, 9.766418
385.6028, 9.328964
386.0849, 9.110672
386.5670, 9.142746
387.0491, 9.772980
387.5312, 10.60623
388.0133, 10.95807
388.4955, 10.47704
388.9776, 9.812729
389.4597, 9.717178
389.9418, 9.940369
390.4239, 9.762558
390.9060, 8.161118
391.3882, 6.425934
391.8703, 5.689957
392.3524, 6.262238
392.8345, 6.806976
393.3166, 6.618530
393.7987, 6.044800
394.2809, 5.527145
394.7630, 5.000793
395.2451, 4.735641
395.7272, 4.900925
396.2093, 5.476242
396.6914, 6.087234
397.1736, 6.872086
397.6557, 7.527603
398.1378, 7.865295
398.6199, 7.087433
399.1020, 6.970474
399.5841, 7.901352
400.0663, 9.506866
400.5484, 10.88254
401.0305, 11.65535
401.5126, 12.67244
401.9947, 14.34131
402.4768, 16.86273
402.9590, 18.81699
403.4411, 19.90962
403.9232, 20.77145
404.4053, 22.11580
404.8874, 24.05914
405.3695, 26.12936
405.8517, 28.32864
406.3338, 30.57761
406.8159, 32.49933
407.2980, 33.98361
407.7801, 35.69585
408.2622, 38.26273
408.7444, 41.61549
409.2265, 44.55980
409.7086, 46.90416
410.1907, 49.05789
410.6728, 51.68364
411.1549, 54.72629
411.6371, 57.78760
412.1192, 60.46211
412.6013, 63.05252
413.0834, 66.38286
413.5655, 70.43269
414.0476, 74.22595
414.5298, 76.70453
415.0119, 78.45001
415.4940, 80.44421
415.9761, 82.89844
416.4582, 85.57838
416.9403, 88.36719
417.4225, 91.39218
417.9046, 94.67288
418.3867, 98.48228
418.8688, 102.1286
419.3509, 105.0852
419.8330, 107.2832
420.3152, 109.2713
420.7973, 110.8336
421.2794, 112.5380
421.7615, 115.0153
422.2436, 119.6062
422.7257, 123.7226
423.2079, 126.6475
423.6900, 128.4017
424.1721, 129.8785
424.6542, 131.6491
425.1363, 132.7477
425.6184, 132.6441
426.1006, 130.2493
426.5827, 128.8288
427.0648, 128.9022
427.5469, 129.5984
428.0290, 129.4169
428.5111, 128.3252
428.9933, 126.4856
429.4754, 123.6649
429.9575, 119.8609
430.4396, 116.7374
430.9217, 114.4640
431.4038, 112.5659
431.8860, 110.6155
432.3681, 108.5958
432.8502, 106.5766
433.3323, 104.4112
433.8144, 102.4851
434.2965, 101.7364
434.7787, 102.0956
435.2608, 102.6846
435.7429, 102.9853
436.2250, 103.1720
436.7071, 103.6898
437.1892, 104.5727
437.6714, 105.5194
438.1535, 105.9615
438.6356, 106.3109
439.1177, 107.3098
439.5998, 109.5110
440.0819, 112.0850
440.5641, 114.2607
441.0462, 116.2155
441.5283, 118.5917
442.0104, 122.1090
442.4925, 125.8802
442.9746, 129.2699
443.4568, 132.1674
443.9389, 134.8767
444.4210, 137.3785
444.9031, 139.7752
445.3852, 142.1991
445.8673, 144.6168
446.3495, 147.0684
446.8316, 149.6045
447.3137, 152.2091
447.7958, 154.7291
448.2779, 157.2097
448.7600, 159.5206
449.2422, 161.6325
449.7243, 163.7368
450.2064, 165.2061
450.6885, 166.0045
451.1706, 166.2564
451.6527, 166.2105
452.1349, 165.9669
452.6170, 165.0472
453.0991, 163.1989
453.5812, 160.5516
454.0633, 158.1130
454.5454, 155.9303
455.0276, 153.6676
455.5097, 150.9413
455.9918, 147.8161
456.4739, 145.0105
456.9560, 142.7616
457.4381, 140.2841
457.9203, 136.2806
458.4024, 131.1487
458.8845, 126.0390
459.3666, 121.5713
459.8488, 117.3902
460.3309, 113.0957
460.8130, 108.7073
461.2951, 104.5207
461.7772, 101.3671
462.2593, 98.28616
462.7415, 94.37637
463.2236, 89.15042
463.7057, 83.58182
464.1878, 77.53726
464.6699, 71.56277
465.1520, 66.51122
465.6342, 63.87354
466.1163, 61.12872
466.5984, 57.23300
467.0805, 51.96185
467.5626, 47.34866
468.0447, 43.76196
468.5269, 40.59161
469.0090, 37.37735
469.4911, 33.94263
469.9732, 30.84583
470.4553, 28.11005
470.9374, 25.71721
471.4196, 23.62027
471.9017, 21.87006
472.3838, 20.27609
472.8659, 18.80688
473.3480, 17.44327
473.8301, 16.04066
474.3123, 14.59155
474.7944, 13.12674
475.2765, 11.60156
475.7586, 10.06798
476.2407, 8.722305
476.7228, 7.571014
477.2050, 6.694382
477.6871, 6.100418
478.1692, 5.852325
478.6513, 6.170151
479.1334, 7.548874
479.6155, 9.309235
480.0977, 10.79755
480.5798, 11.98979
481.0619, 13.18372
481.5440, 14.40263
482.0261, 15.76225
482.5082, 17.41353
482.9904, 19.78247
483.4725, 21.85533
483.9546, 23.24707
484.4367, 24.15909
484.9188, 24.99899
485.4009, 25.51938
485.8831, 26.30365
486.3652, 27.59882
486.8473, 29.43703
487.3294, 31.14355
487.8115, 32.53241
488.2936, 34.01234
488.7758, 35.94257
489.2579, 38.49742
489.7400, 40.91333
490.2221, 43.10965
490.7042, 45.16724
491.1863, 47.13150
491.6685, 48.99615
492.1506, 50.99455
492.6327, 53.13496
493.1148, 55.49756
493.5969, 58.62773
494.0790, 62.55692
494.5612, 65.75580
495.0433, 66.62234
495.5254, 65.97372
496.0075, 65.34393
496.4896, 65.01923
496.9717, 64.73724
497.4539, 64.41443
497.9360, 63.95966
498.4181, 63.21925
498.9002, 62.35228
499.3823, 60.97046
499.8644, 58.77274
500.3466, 55.78731
500.8287, 52.52309
501.3108, 48.94861
501.7929, 45.27628
502.2750, 41.62347
502.7571, 37.86099
503.2393, 34.33086
503.7214, 31.21674
504.2035, 28.26582
504.6856, 25.02699
505.1677, 21.04283
505.6498, 17.76187
506.1320, 15.63066
506.6141, 14.40739
507.0962, 12.92010
507.5783, 11.14194
508.0604, 9.204819
508.5425, 7.072830
509.0247, 4.787140
509.5068, 2.688416
509.9889, 0.7341460
510.4710, 0.7490840
510.9531, 0.9571690
511.4352, 0.3408660
511.9174, 0.2919010
512.3995, 1.568161
512.8816, 3.129745
513.3637, 3.926010
513.8458, 4.085724
514.3279, 4.029953
514.8101, 3.691315
515.2922, 3.419769
515.7743, 3.526428
516.2564, 4.071442
516.7385, 4.554977
517.2206, 4.898239
517.7028, 5.048965
518.1849, 4.962875
518.6670, 4.537979
519.1491, 3.994690
519.6312, 3.359467
520.1133, 2.620346
520.5955, 1.758148
521.0776, 0.9109190
521.5597, 0.3163150
522.0418, 2.212845
522.5239, 4.731857
523.0060, 6.665466
523.4882, 7.970154
523.9703, 8.868729
524.4524, 9.322571
524.9345, 9.402573
525.4166, 9.872879
525.8987, 10.81403
526.3809, 12.16193
526.8630, 14.01640
527.3451, 16.25502
527.8272, 18.45131
528.3093, 20.38301
528.7914, 22.27574
529.2736, 24.52742
529.7557, 27.02811
530.2378, 29.17693
530.7199, 29.94260
531.2020, 30.78503
531.6841, 32.86351
532.1663, 36.63266
532.6484, 40.24271
533.1305, 43.17915
533.6126, 45.79402
534.0947, 48.46648
534.5768, 51.66116
535.0590, 54.30505
535.5411, 56.24509
536.0232, 57.58635
536.5053, 58.40057
536.9874, 58.20871
537.4695, 58.67769
537.9517, 60.65121
538.4338, 63.99707
538.9159, 66.65961
539.3980, 68.54393
539.8801, 70.25546
540.3622, 72.42004
540.8444, 74.85016
541.3265, 76.88225
541.8086, 78.45987
542.2907, 79.57545
542.7728, 80.09294
543.2549, 80.15976
543.7371, 80.07970
544.2192, 79.66577
544.7013, 79.42892
545.1834, 79.77390
545.6655, 80.61728
546.1476, 81.60822
546.6298, 83.14935
547.1119, 84.37137
547.5940, 84.68138
548.0761, 83.73499
548.5582, 83.04156
549.0403, 82.42928
549.5225, 82.30496
550.0046, 83.04306
550.4867, 84.90042
550.9688, 87.11981
551.4509, 89.86670
551.9330, 92.76027
552.4152, 94.85983
552.8973, 96.08957
553.3794, 97.21266
553.8615, 98.42502
554.3436, 99.80115
554.8257, 101.5493
555.3079, 103.6536
555.7900, 106.1065
556.2721, 109.3107
556.7542, 112.7129
557.2363, 115.3052
557.7184, 116.8664
558.2006, 118.1645
558.6827, 119.6799
559.1648, 121.3277
559.6469, 123.0243
560.1290, 124.8437
560.6111, 126.4917
561.0933, 127.7760
561.5754, 128.7990
562.0575, 129.8042
562.5396, 130.6234
563.0217, 131.6398
563.5038, 133.1055
563.9860, 135.0646
564.4681, 136.4263
564.9502, 136.9270
565.4323, 137.3159
565.9144, 138.1280
566.3965, 139.3908
566.8787, 140.7178
567.3608, 142.1526
567.8429, 143.4397
568.3250, 144.1032
568.8071, 144.2618
569.2892, 144.3481
569.7714, 144.5029
570.2535, 144.5283
570.7356, 144.1656
571.2177, 143.5095
571.6998, 142.8251
572.1819, 142.0234
572.6641, 141.4098
573.1462, 141.4823
573.6283, 142.2586
574.1104, 142.2139
574.5925, 140.4636
575.0746, 138.0436
575.5568, 135.5745
576.0389, 132.9501
576.5210, 130.7201
577.0031, 129.1390
577.4852, 127.7662
577.9673, 126.0574
578.4495, 124.0173
578.9316, 121.5035
579.4137, 118.1548
579.8958, 114.5672
580.3779, 112.7489
580.8600, 112.6906
581.3422, 112.1280
581.8243, 109.2918
582.3064, 105.2195
582.7885, 102.1621
583.2706, 100.1113
583.7527, 98.39471
584.2349, 96.73936
584.7170, 95.01028
585.1991, 93.15079
585.6812, 91.26283
586.1633, 88.78320
586.6454, 84.69630
587.1276, 80.14230
587.6097, 76.56445
588.0918, 74.95486
588.5739, 73.42487
589.0560, 72.00482
589.5381, 70.48410
590.0203, 68.09262
590.5024, 64.26654
590.9845, 60.87552
591.4666, 58.89149
591.9487, 58.06984
592.4308, 56.04817
592.9130, 52.68008
593.3951, 49.29790
593.8772, 47.13446
594.3593, 45.79970
594.8414, 44.21359
595.3235, 42.28061
595.8057, 40.12767
596.2878, 37.76929
596.7699, 35.28455
597.2520, 32.80370
597.7341, 30.11838
598.2162, 27.76617
598.6984, 26.25546
599.1805, 25.25935
599.6626, 24.01015
600.1447, 21.91422
600.6268, 20.01007
601.1089, 18.73999
601.5911, 18.01180
602.0732, 16.82465
602.5553, 14.93115
603.0374, 13.06203
603.5195, 11.66731
604.0016, 10.77779
604.4838, 9.709961
604.9659, 8.464172
605.4480, 7.095596
605.9301, 5.483246
606.4122, 3.774796
606.8943, 2.459671
607.3765, 1.647629
607.8586, 1.191544
608.3407, 1.115479
608.8228, 1.274612
609.3049, 1.410690
609.7870, 1.616104
610.2692, 1.578506
610.7513, 0.9559630
611.2334, 7.2250001E-02
611.7155, 0.8548130
612.1976, 1.068924
612.6797, 1.226883
613.1619, 1.517288
613.6440, 1.957672
614.1261, 2.283600
614.6082, 2.566040
615.0903, 2.611359
615.5724, 2.091080
616.0546, 0.9858250
616.5367, 0.6819760
617.0188, 1.412643
617.5009, 2.224106
617.9830, 1.788589
618.4651, 0.5176700
618.9473, 0.3665160
619.4294, 0.4262390
619.9115, 0.2749940
620.3936, 0.4529720
620.8757, 0.8402560
621.3578, 1.190918
621.8400, 1.323822
622.3221, 1.483490
622.8042, 1.704880
623.2863, 2.014130
623.7684, 2.579407
624.2505, 3.874786
624.7327, 4.907822
625.2148, 5.105972
625.6969, 4.313812
626.1790, 4.694977
626.6611, 6.658997
627.1432, 8.720032
627.6254, 9.473999
628.1075, 9.068314
628.5896, 9.255676
629.0717, 10.24648
629.5538, 11.52299
630.0359, 12.76726
630.5181, 13.83339
631.0002, 14.36955
631.4823, 13.89319
631.9644, 13.51833
632.4465, 14.19899
632.9286, 15.52989
633.4108, 16.69435
633.8929, 17.35612
634.3750, 17.90775
634.8571, 18.24638
635.3392, 18.47742
635.8214, 19.40538
636.3035, 21.66167
636.7856, 23.59056
637.2677, 24.41037
637.7498, 24.11086
638.2319, 23.92896
638.7141, 23.89342
639.1962, 23.95079
639.6783, 24.11258
640.1604, 24.31067
640.6425, 24.30167
641.1246, 24.00926
641.6068, 23.72064
642.0889, 24.00812
642.5710, 24.42046
643.0531, 24.25372
643.5352, 22.71602
644.0173, 21.62537
644.4995, 22.23570
644.9816, 23.69714
645.4637, 24.47090
645.9458, 23.59822
646.4279, 22.76790
646.9100, 22.27318
647.3922, 22.02618
647.8743, 21.68797
648.3564, 21.20053
648.8385, 20.78308
649.3206, 20.54491
649.8027, 20.45169
650.2849, 20.33199
650.7670, 20.18867
651.2491, 20.18694
651.7312, 20.82156
652.2133, 21.53209
652.6954, 21.41518
653.1776, 20.33185
653.6597, 19.09119
654.1418, 18.00259
654.6239, 17.05357
655.1060, 16.23643
655.5881, 15.62524
656.0703, 15.00642
656.5524, 14.09677
657.0345, 13.29318
657.5166, 13.12225
657.9987, 13.83015
658.4808, 14.48584
658.9630, 14.99136
659.4451, 15.32895
659.9272, 15.46558
660.4093, 15.40257
660.8914, 15.14783
661.3735, 14.53571
661.8557, 13.88295
662.3378, 13.82404
662.8199, 14.22778
663.3020, 14.50197
663.7841, 14.23669
664.2662, 13.78825
664.7484, 13.23380
665.2305, 12.59331
665.7126, 12.46135
666.1947, 13.48799
666.6768, 14.66832
667.1589, 15.45782
667.6411, 15.75154
668.1232, 15.99603
668.6053, 16.03964
669.0874, 16.19893
669.5695, 16.92715
670.0516, 18.22993
670.5338, 19.23743
671.0159, 19.83229
671.4980, 20.10805
671.9801, 20.16646
672.4622, 20.01404
672.9443, 19.62578
673.4265, 18.75941
673.9086, 18.18967
674.3907, 18.64296
674.8728, 19.59277
675.3549, 20.14508
675.8370, 20.17390
676.3192, 19.89017
676.8013, 19.13770
677.2834, 18.02802
677.7655, 17.09196
678.2476, 16.36282
678.7297, 15.81636
679.2119, 15.52409
679.6940, 15.41524
680.1761, 15.13715
680.6582, 14.69272
681.1403, 14.06557
681.6224, 13.07982
682.1046, 11.91617
682.5867, 10.90752
683.0688, 10.05934
683.5509, 9.282913
684.0330, 8.362762
684.5151, 7.562851
684.9973, 7.165054
685.4794, 7.445953
685.9615, 7.437546
686.4436, 6.654617
686.9257, 5.741562
687.4078, 5.261078
687.8900, 5.480530
688.3721, 5.350250
688.8542, 4.745193
689.3363, 3.893890
689.8184, 3.147034
690.3005, 2.520111
690.7827, 1.914978
691.2648, 1.268936
691.7469, 0.7119290
692.2290, 0.4747470
692.7111, 0.4555510
693.1932, 0.4379270
693.6754, 0.3164370
694.1575, 0.1759800
694.6396, 0.1069180
695.1217, 6.2927000E-02
695.6038, 0.1369170
696.0859, 0.7706300
696.5681, 1.270691
697.0502, 1.512878
697.5323, 1.501007
698.0144, 1.177536
698.4965, 0.4407810
698.9786, 0.1955870
699.4608, 0.4448850
699.9429, 0.3563690
700.4250, 7.6766998E-02
700.9071, 0.3873600
701.3892, 0.9257200
701.8713, 1.966919
702.3535, 2.757797
702.8356, 2.251434
703.3177, 0.1335600
703.7998, 1.800827
704.2819, 2.778366
704.7640, 3.357697
705.2462, 3.946259
705.7283, 4.501190
706.2104, 5.168686
706.6925, 5.852295
707.1746, 6.758591
707.6567, 8.351807
708.1389, 10.67223
708.6210, 12.21915
709.1031, 12.66161
709.5852, 12.66229
710.0673, 13.04289
710.5494, 13.69414
711.0316, 14.35619
711.5137, 14.90010
711.9958, 15.48982
712.4779, 16.35049
712.9600, 17.32852
713.4421, 18.12039
713.9243, 18.66911
714.4064, 19.01921
714.8885, 19.18446
715.3706, 19.17075
715.8527, 18.93765
716.3348, 18.40089
716.8170, 17.94704
717.2991, 17.74817
717.7812, 17.70897
718.2633, 17.64049
718.7454, 17.51067
719.2275, 17.04068
719.7097, 15.83078
720.1918, 14.33800
720.6739, 13.00735
721.1560, 11.85072
721.6381, 10.75275
722.1202, 9.569092
722.6024, 8.522064
723.0845, 7.846725
723.5666, 7.639435
724.0487, 6.997162
724.5308, 5.581070
725.0129, 4.254288
725.4951, 3.622635
725.9772, 3.714203
726.4593, 3.624374
726.9414, 3.346863
727.4235, 2.910721
727.9056, 2.087250
728.3878, 1.187408
728.8699, 0.9382480
729.3520, 1.550476
729.8341, 2.031799
730.3162, 1.407898
730.7983, 0.5115970
731.2805, 0.1679380
731.7626, 1.036392
732.2447, 1.532562
732.7268, 1.367172
733.2089, 0.9367070
733.6910, 0.6744380
734.1732, 0.6200100
734.6553, 0.4634550
735.1374, 6.8389997E-02
735.6195, 0.2087400
736.1016, 0.5551610
736.5837, 1.951035
737.0659, 2.474396
737.5480, 1.264404
738.0301, 0.1951140
738.5122, 0.6073610
738.9943, 0.3744510
739.4764, 0.1782070
739.9586, 0.2315370
740.4407, 0.3395230
740.9228, 0.5389860
741.4049, 0.7427980
741.8870, 0.7287290
742.3691, 0.4013670
742.8513, 0.1341090
743.3334, 3.5262998E-02
743.8155, 4.2908002E-02
744.2976, 6.5948002E-02
744.7797, 0.2608340
745.2618, 0.2581940
745.7440, 0.4275360
746.2261, 1.127106
746.7082, 1.005661
747.1903, 0.2483670
747.6724, 0.4690700
748.1545, 0.8440090
748.6367, 1.137497
749.1188, 1.502823
749.6009, 1.921432
750.0830, 2.096283
750.5651, 1.894440
751.0472, 1.748230
751.5294, 1.926941
752.0115, 2.338257
752.4936, 2.279236
752.9757, 1.755920
753.4578, 1.234085
753.9399, 0.9139100
754.4221, 0.8352360
754.9042, 1.240570
755.3863, 2.112015
755.8684, 2.742523
756.3505, 2.533737
756.8326, 2.210220
757.3148, 2.106644
757.7969, 2.219254
758.2790, 2.839554
758.7611, 4.450958
759.2432, 5.754562
759.7253, 5.686798
760.2075, 4.259247
760.6896, 3.476395
761.1717, 3.493591
761.6538, 3.713577
762.1359, 3.451416
762.6180, 3.151886
763.1002, 3.706268
763.5823, 5.322693
764.0644, 6.735580
764.5465, 7.170258
765.0286, 7.208710
765.5107, 7.302490
765.9929, 7.491592
766.4750, 7.779785
766.9571, 8.214020
767.4392, 8.692444
767.9213, 9.128357
768.4034, 9.520370
768.8856, 9.850159
769.3677, 10.07489
769.8498, 10.44167
770.3319, 11.36687
770.8140, 12.57985
771.2961, 13.62465
771.7783, 14.40808
772.2604, 14.99786
772.7425, 15.23392
773.2246, 15.39153
773.7067, 15.77260
774.1888, 16.87314
774.6710, 17.42152
775.1531, 17.19661
775.6352, 16.68109
776.1173, 16.46622
776.5994, 16.55438
777.0815, 16.65047
777.5637, 16.75342
778.0458, 16.70258
778.5279, 16.11505
779.0100, 15.27570
779.4921, 14.70016
779.9742, 14.59468
780.4564, 14.66461
780.9385, 14.70161
781.4206, 14.86139
781.9027, 15.41948
782.3848, 17.06268
782.8669, 17.77727
783.3491, 17.08432
783.8312, 15.78239
784.3133, 15.16531
784.7954, 15.19421
785.2775, 15.15837
785.7596, 14.88220
786.2418, 14.53279
786.7239, 14.24774
787.2060, 14.06177
787.6881, 14.02951
788.1702, 14.41125
788.6523, 14.61244
789.1345, 14.17854
789.6166, 13.52399
790.0987, 13.36021
790.5808, 14.06560
791.0629, 14.41072
791.5450, 14.08102
792.0272, 13.52066
792.5093, 13.56227
792.9914, 14.15503
793.4735, 14.97450
793.9556, 16.17261
794.4377, 17.12921
794.9199, 16.85852
795.4020, 15.90295
795.8841, 15.25932
796.3662, 15.53954
796.8483, 15.85670
797.3304, 16.03796
797.8126, 16.07288
798.2947, 15.91534
798.7768, 15.45172
799.2589, 15.13773
799.7410, 15.12009
800.2231, 15.22302
800.7053, 15.29770
801.1874, 15.23254
801.6695, 14.47960
802.1516, 12.40955
802.6337, 10.34784
803.1158, 9.662613
803.5980, 9.726761
804.0801, 9.429749
804.5622, 7.920944
805.0443, 6.841553
805.5264, 6.646805
806.0085, 6.873672
806.4907, 6.603027
806.9728, 5.695969
807.4549, 5.209106
807.9370, 5.534805
808.4191, 6.031113
808.9012, 5.417358
809.3834, 4.107300
809.8655, 3.247879
810.3476, 3.580032
810.8297, 3.991760
811.3118, 3.710236
811.7939, 3.101547
812.2761, 2.793915
812.7582, 3.177429
813.2403, 3.422272
813.7224, 3.453659
814.2045, 3.298920
814.6866, 2.883865
815.1688, 2.227448
815.6509, 1.923279
816.1330, 2.212006
816.6151, 2.683868
817.0972, 2.902863
817.5793, 2.911392
818.0615, 2.778030
818.5436, 2.204056
819.0257, 1.927994
819.5078, 2.523178
819.9899, 3.448349
820.4720, 3.831146
820.9542, 3.351761
821.4363, 3.233032
821.9184, 3.796066
822.4005, 4.455338
822.8826, 4.039627
823.3647, 2.862198
823.8469, 2.395508
824.3290, 3.253860
824.8111, 4.196625
825.2932, 4.047272
825.7753, 3.400497
826.2574, 3.076584
826.7396, 3.416931
827.2217, 3.854645
827.7038, 4.446945
828.1859, 5.018295
828.6681, 5.338455
829.1502, 5.377884
829.6323, 5.478821
830.1144, 5.685776
830.5966, 5.961029
831.0787, 6.305786
831.5608, 6.673492
832.0429, 6.942062
832.5250, 6.980576
833.0071, 7.029236
833.4893, 7.640656
833.9714, 8.209824
834.4535, 8.060364
834.9356, 6.494247
835.4177, 5.647781
835.8998, 5.715393
836.3820, 6.006348
836.8641, 5.835876
837.3462, 5.343201
837.8283, 5.142639
838.3104, 5.329422
838.7925, 5.551117
839.2747, 5.465729
839.7568, 5.334274
840.2389, 5.474594
840.7210, 6.079819
841.2031, 6.528992
841.6852, 6.549713
842.1674, 6.135468
842.6495, 5.230362
843.1316, 3.728012
843.6137, 3.597610
844.0958, 5.061630
844.5779, 6.754166
845.0601, 7.488251
845.5422, 7.433380
846.0243, 6.835968
846.5064, 5.746033
846.9885, 4.981033
847.4706, 5.214935
847.9528, 5.812943
848.4349, 6.394135
848.9170, 6.875793
849.3991, 7.007156
849.8812, 6.615143
850.3633, 6.445694
850.8455, 7.263184
851.3276, 8.776581
851.8097, 8.886398
852.2918, 7.682800
852.7739, 6.813599
853.2560, 7.901947
853.7382, 9.441635
854.2203, 10.11676
854.7024, 9.955872
855.1845, 10.01929
855.6666, 10.61816
856.1487, 11.21684
856.6309, 11.74498
857.1130, 12.17015
857.5951, 12.35777
858.0772, 12.30904
858.5593, 12.08794
859.0414, 11.37093
859.5236, 10.77599
860.0057, 11.60173
860.4878, 13.36470
860.9699, 14.52322
861.4520, 13.53374
861.9341, 12.83945
862.4163, 13.88910
862.8984, 15.82149
863.3805, 16.18649
863.8626, 14.37756
864.3447, 13.49512
864.8268, 14.70277
865.3090, 16.65067
865.7911, 16.59035
866.2732, 15.12439
866.7553, 14.02742
867.2374, 14.16170
867.7195, 14.50305
868.2017, 14.64215
868.6838, 14.56351
869.1659, 14.20474
869.6480, 13.41707
870.1301, 12.66876
870.6122, 11.98111
871.0944, 11.38362
871.5765, 11.06389
872.0586, 10.92378
872.5407, 10.30983
873.0228, 9.012741
873.5049, 7.684067
873.9871, 6.716965
874.4692, 6.112213
874.9513, 5.943024
875.4334, 6.589966
875.9155, 6.729370
876.3976, 5.894501
876.8798, 4.977310
877.3619, 4.793427
877.8440, 5.382370
878.3261, 5.227676
878.8082, 4.207932
879.2903, 3.334976
879.7725, 3.918961
880.2546, 4.908539
880.7367, 4.799988
881.2188, 3.434799
881.7009, 2.427673
882.1830, 2.914444
882.6652, 3.318207
883.1473, 2.731979
883.6294, 1.210770
884.1115, 0.5147090
884.5936, 0.7231290
885.0757, 1.196457
885.5579, 1.771088
886.0400, 2.271072
886.5221, 2.333694
887.0042, 2.015289
887.4863, 1.567749
887.9684, 0.9249420
888.4506, 0.3651890
888.9327, 9.6634001E-02
889.4148, 0.3834690
889.8969, 9.4772004E-02
890.3790, 1.115204
890.8611, 1.612442
891.3433, 0.7692110
891.8254, 0.7054440
892.3075, 1.736282
892.7896, 2.297546
893.2717, 2.257706
893.7538, 1.118820
894.2360, 7.8064002E-02
894.7181, 0.1151280
895.2002, 0.1708370
895.6823, 0.4053800
896.1644, 0.4088130
896.6465, 0.6967010
897.1287, 1.356873
897.6108, 2.186874
898.0929, 3.371689
898.5750, 4.554428
899.0571, 3.971405
899.5392, 1.097794
900.0214, 1.350174
900.5035, 1.108643
900.9856, 0.2888640
901.4677, 1.665131
901.9498, 3.032150
902.4319, 3.496948
902.9141, 2.665833
903.3962, 1.647110
903.8783, 1.036102
904.3604, 0.8323360
904.8425, 1.213089
905.3246, 2.123856
905.8068, 2.674545
906.2889, 1.871033
906.7710, 0.7976840
907.2531, 0.2320860
907.7352, 0.1821900
908.2173, 0.3739010
908.6995, 1.058029
909.1816, 1.486801
909.6637, 1.350235
910.1458, 0.8719020
910.6279, 0.7543790
911.1100, 0.9641420
911.5922, 1.251877
912.0743, 1.772003
912.5564, 1.950424
913.0385, 0.9321140
913.5206, 0.7328490
914.0027, 2.120956
914.4849, 2.807632
914.9670, 3.427460
915.4491, 3.820267
915.9312, 4.393448
916.4133, 5.958130
916.8954, 8.427094
917.3776, 9.913818
917.8597, 10.08134
918.3418, 10.09181
918.8239, 11.02586
919.3060, 12.40143
919.7881, 13.65277
920.2703, 14.60503
920.7524, 15.92928
921.2345, 18.04424
921.7166, 20.11292
922.1987, 21.65433
922.6808, 22.69858
923.1630, 23.80888
923.6451, 24.99226
924.1272, 26.02922
924.6093, 26.58302
925.0914, 27.07220
925.5735, 27.80939
926.0557, 28.82870
926.5378, 30.24709
927.0199, 32.75568
927.5020, 34.84392
927.9841, 36.10710
928.4662, 36.80728
928.9484, 37.72374
929.4305, 38.81998
929.9126, 39.36659
930.3947, 38.96771
930.8768, 38.29893
931.3589, 37.94182
931.8411, 37.82382
932.3232, 37.87013
932.8053, 38.55765
933.2874, 38.51100
933.7695, 37.15648
934.2516, 35.64253
934.7338, 35.16455
935.2159, 35.68626
935.6980, 36.08975
936.1801, 36.31824
936.6622, 36.25815
937.1443, 35.22960
937.6265, 34.27260
938.1086, 34.58890
938.5907, 36.29352
939.0728, 37.76334
939.5549, 38.43425
940.0370, 39.25990
940.5192, 40.65823
941.0013, 42.44469
941.4834, 43.53139
941.9655, 44.05710
942.4476, 45.39670
942.9297, 48.93518
943.4119, 52.78909
943.8940, 55.34082
944.3761, 56.98901
944.8582, 58.54559
945.3403, 59.64630
945.8224, 61.56659
946.3046, 64.87308
946.7867, 68.42133
947.2688, 70.28113
947.7509, 70.82510
948.2330, 72.04861
948.7151, 74.24731
949.1973, 76.74823
949.6794, 79.84134
950.1615, 82.37292
950.6436, 83.14951
951.1257, 81.62985
951.6078, 80.26227
952.0900, 79.08780
952.5721, 77.99173
953.0542, 77.02524
953.5363, 76.07800
954.0184, 74.56235
954.5005, 72.55942
954.9827, 70.57300
955.4648, 69.20496
955.9469, 67.61551
956.4290, 64.90283
956.9111, 61.68845
957.3932, 59.72791
957.8754, 59.38220
958.3575, 59.06006
958.8396, 58.45721
959.3217, 57.68112
959.8038, 56.91675
960.2859, 56.21313
960.7681, 55.67639
961.2502, 55.37109
961.7323, 55.00461
962.2144, 54.17886
962.6965, 53.32596
963.1786, 52.77289
963.6608, 52.52716
964.1429, 52.91156
964.6250, 54.09067
965.1071, 55.19388
965.5892, 55.37897
966.0714, 55.13129
966.5535, 55.55942
967.0356, 56.51523
967.5177, 57.15057
967.9998, 56.28888
968.4819, 55.92209
968.9641, 57.09705
969.4462, 59.18033
969.9283, 60.80441
970.4104, 62.00012
970.8925, 62.68927
971.3746, 62.80667
971.8568, 62.40048
972.3389, 61.41736
972.8210, 60.04712
973.3031, 58.60318
973.7852, 57.27686
974.2673, 55.53192
974.7495, 53.11371
975.2316, 50.39828
975.7137, 47.50571
976.1958, 44.41415
976.6779, 41.76279
977.1600, 39.54044
977.6422, 37.62698
978.1243, 35.95236
978.6064, 34.48233
979.0885, 33.15240
979.5706, 31.99023
980.0527, 31.12067
980.5349, 30.63284
981.0170, 30.34525
981.4991, 30.31583
981.9812, 30.35562
982.4633, 30.10336
982.9454, 29.59338
983.4276, 28.92374
983.9097, 28.04889
984.3918, 27.25034
984.8739, 26.70734
985.3560, 26.33243
985.8381, 25.93906
986.3203, 25.25070
986.8024, 25.81787
987.2845, 28.00842
987.7666, 30.20029
988.2487, 31.03833
988.7308, 31.11719
989.2130, 31.86905
989.6951, 33.16745
990.1772, 34.32861
990.6593, 34.53549
991.1414, 35.09613
991.6235, 36.73703
992.1057, 38.98508
992.5878, 41.02734
993.0699, 42.89481
993.5520, 44.11539
994.0341, 44.42627
994.5162, 44.73401
994.9984, 46.16840
995.4805, 48.22821
995.9626, 50.32202
996.4447, 52.46448
996.9268, 54.15921
997.4089, 55.24908
997.8911, 56.01276
998.3732, 56.70615
998.8553, 57.26669
999.3374, 56.88257
999.8195, 55.65222
1000.302, 54.48959
1000.784, 54.19498
1001.266, 53.86200
1001.748, 52.33398
1002.230, 50.29529
1002.712, 49.70599
1003.194, 51.53329
1003.676, 52.50046
1004.159, 52.09369
1004.641, 51.06946
1005.123, 50.51602
1005.605, 50.09869
1006.087, 48.69116
1006.569, 45.89938
1007.051, 43.94370
1007.533, 44.54221
1008.016, 45.69672
1008.498, 46.47147
1008.980, 46.82431
1009.462, 45.71951
1009.944, 43.04648
1010.426, 40.57852
1010.908, 39.08026
1011.390, 38.36990
1011.872, 38.43689
1012.355, 39.10260
1012.837, 39.99673
1013.319, 41.85031
1013.801, 42.65808
1014.283, 41.85397
1014.765, 40.60217
1015.247, 40.27911
1015.729, 40.67697
1016.211, 40.53903
1016.694, 39.77136
1017.176, 39.13611
1017.658, 38.80640
1018.140, 39.10419
1018.622, 40.60330
1019.104, 43.11139
1019.586, 44.86292
1020.068, 45.61807
1020.551, 46.63583
1021.033, 48.41306
1021.515, 50.47528
1021.997, 51.99588
1022.479, 53.21680
1022.961, 54.56973
1023.443, 56.11047
1023.925, 57.94147
1024.407, 60.16290
1024.890, 62.61093
1025.372, 65.33621
1025.854, 68.31500
1026.336, 70.60297
1026.818, 72.21640
1027.300, 73.64771
1027.782, 74.89328
1028.264, 76.41498
1028.746, 78.91275
1029.229, 82.04568
1029.711, 84.50635
1030.193, 86.14023
1030.675, 87.37177
1031.157, 88.21985
1031.639, 88.81503
1032.121, 89.05719
1032.603, 89.26282
1033.086, 90.41907
1033.568, 92.92471
1034.050, 94.62247
1034.532, 93.48438
1035.014, 92.32120
1035.496, 93.05374
1035.978, 95.34470
1036.460, 95.27994
1036.943, 92.89719
1037.425, 90.29495
1037.907, 88.48343
1038.389, 86.92007
1038.871, 85.30927
1039.353, 83.54358
1039.835, 81.44009
1040.317, 78.62769
1040.799, 76.20053
1041.281, 74.38739
1041.764, 72.43900
1042.246, 69.60291
1042.728, 66.03952
1043.210, 62.10419
1043.692, 57.81067
1044.174, 53.64587
1044.656, 49.68222
1045.138, 46.04370
1045.621, 43.02274
1046.103, 40.31778
1046.585, 36.93506
1047.067, 32.87396
1047.549, 29.10440
1048.031, 25.98322
1048.513, 22.99597
1048.995, 19.48843
1049.478, 15.96744
1049.960, 12.96982
1050.442, 10.60672
1050.924, 8.940460
1051.406, 8.347046
1051.888, 7.456055
1052.370, 5.027802
1052.852, 1.970184
1053.334, 0.8576050
1053.817, 1.225220
1054.299, 1.533264
1054.781, 1.145447
1055.263, 0.5164490
1055.745, 0.3320620
1056.227, 1.286743
1056.709, 2.278198
1057.191, 3.311310
1057.673, 4.146484
1058.156, 4.771637
1058.638, 5.117676
1059.120, 5.041168
1059.602, 4.738220
1060.084, 4.216675
1060.566, 3.547211
1061.048, 3.294617
1061.530, 3.557190
1062.013, 4.010040
1062.495, 4.712891
1062.977, 5.269958
1063.459, 4.885620
1063.941, 3.927399
1064.423, 3.139160
1064.905, 2.792480
1065.387, 2.217438
1065.870, 0.8583370
1066.352, 0.3864750
1066.834, 0.8477170
1067.316, 0.7320860
1067.798, 1.891357
1068.280, 4.186646
1068.762, 6.356201
1069.244, 7.488953
1069.726, 8.583618
1070.208, 10.52640
1070.691, 12.72858
1071.173, 14.08148
1071.655, 14.05698
1072.137, 15.19699
1072.619, 17.74869
1073.101, 20.85416
1073.583, 23.95987
1074.065, 26.99612
1074.548, 29.79538
1075.030, 32.39453
1075.512, 35.29669
1075.994, 38.94852
1076.476, 42.34790
1076.958, 45.09839
1077.440, 47.71124
1077.922, 50.94211
1078.405, 54.83557
1078.887, 59.66739
1079.369, 65.67062
1079.851, 71.74158
1080.333, 76.90103
1080.815, 82.36093
1081.297, 88.84671
1081.779, 96.26819
1082.261, 103.2675
1082.744, 109.9080
1083.226, 117.3097
1083.708, 126.3362
1084.190, 135.7714
1084.672, 144.2158
1085.154, 152.4355
1085.636, 161.5693
1086.118, 171.6737
1086.601, 182.9214
1087.083, 195.5191
1087.565, 208.5193
1088.047, 221.2243
1088.529, 233.7829
1089.011, 246.8755
1089.493, 260.2677
1089.975, 273.2500
1090.458, 284.6801
1090.940, 296.8252
1091.422, 310.2917
1091.904, 324.2440
1092.386, 337.5916
1092.868, 350.2147
1093.350, 360.9397
1093.832, 369.5691
1094.314, 378.3392
1094.797, 390.6782
1095.279, 401.5024
1095.761, 407.3540
1096.243, 409.2190
1096.725, 411.2410
1097.207, 413.3859
1097.689, 414.3455
1098.171, 414.0149
1098.653, 411.5844
1099.136, 405.7295
1099.618, 397.6049
1100.100, 387.9979
1100.582, 376.5085
1101.064, 366.7597
1101.546, 359.3374
1102.028, 351.4011
1102.510, 341.0449
1102.993, 329.3788
1103.475, 317.9280
1103.957, 306.7211
1104.439, 295.8948
1104.921, 285.7852
1105.403, 275.8306
1105.885, 265.9102
1106.367, 256.4166
1106.849, 247.8267
1107.332, 240.0275
1107.814, 232.8413
1108.296, 226.1008
1108.778, 219.0799
1109.260, 210.6153
1109.742, 202.6486
1110.224, 196.0856
1110.706, 190.2863
1111.188, 184.1387
1111.671, 177.6240
1112.153, 171.0840
1112.635, 164.4008
1113.117, 158.2399
1113.599, 153.5444
1114.081, 149.1376
1114.563, 144.0354
1115.045, 138.3009
1115.528, 133.2578
1116.010, 128.9996
1116.492, 124.7584
1116.974, 120.2598
1117.456, 115.8552
1117.938, 112.0133
1118.420, 108.5141
1118.902, 105.0838
1119.385, 101.6945
1119.867, 98.11078
1120.349, 94.37878
1120.831, 90.27191
1121.313, 85.61133
1121.795, 80.72055
1122.277, 76.00983
1122.759, 71.51547
1123.241, 67.27277
1123.724, 63.31311
1124.206, 59.99884
1124.688, 57.52390
1125.170, 55.36716
1125.652, 53.28732
1126.134, 51.17175
1126.616, 48.07376
1127.098, 44.21249
1127.580, 40.90552
1128.063, 39.13760
1128.545, 37.72250
1129.027, 36.39569
1129.509, 35.04031
1129.991, 33.58362
1130.473, 32.01483
1130.955, 29.86206
1131.437, 27.05734
1131.920, 24.58096
1132.402, 23.38486
1132.884, 22.59753
1133.366, 21.64890
1133.848, 20.57776
1134.330, 19.60513
1134.812, 18.75412
1135.294, 17.86264
1135.776, 16.87167
1136.259, 15.96164
1136.741, 15.65076
1137.223, 15.28622
1137.705, 13.97830
1138.187, 11.60776
1138.669, 9.998840
1139.151, 9.218811
1139.633, 9.040344
1140.115, 9.679688
1140.598, 10.30865
1141.080, 9.465134
1141.562, 7.860901
1142.044, 6.639648
1142.526, 6.271210
1143.008, 5.385254
1143.490, 3.422043
1143.972, 2.045303
1144.455, 2.579071
1144.937, 4.005219
1145.419, 3.578857
1145.901, 2.044815
1146.383, 1.337509
1146.865, 3.127823
1147.347, 4.218033
1147.829, 3.961151
1148.312, 3.192932
1148.794, 2.411728
1149.276, 1.651779
1149.758, 1.294830
1150.240, 1.272095
1150.722, 1.171112
1151.204, 0.4016880
1151.686, 9.7961001E-02
1152.168, 1.070679
1152.651, 2.113190
1153.133, 1.645370
1153.615, 6.7107998E-02
1154.097, 0.8631290
1154.579, 0.6164550
1155.061, 0.1507260
1155.543, 0.1314700
1156.025, 0.3408660
1156.507, 0.5540470
1156.990, 0.7272800
1157.472, 0.7396090
1157.954, 0.5854190
1158.436, 0.4787450
1158.918, 0.4542240
1159.400, 0.4296720
1159.882, 0.2518620
1160.364, 0.1200710
1160.847, 0.3020480
1161.329, 0.6941830
1161.811, 0.7426610
1162.293, 0.4293370
1162.775, 7.3836997E-02
1163.257, 0.8562160
1163.739, 1.307739
1164.221, 0.3643490
1164.703, 0.8993840
1165.186, 1.399368
1165.668, 1.016159
1166.150, 0.4636690
1166.632, 0.3220980
1167.114, 0.6970060
1167.596, 0.3486630
1168.078, 3.6208998E-02
1168.560, 0.4682620
1169.042, 1.161102
1169.525, 0.9517360
1170.007, 0.7855680
1170.489, 1.447021
1170.971, 0.7690890
1171.453, 3.0990999E-02
1171.935, 0.4716030
1172.417, 0.5320890
1172.899, 0.1056520
1173.382, 1.070450
1173.864, 1.672195
1174.346, 1.525986
1174.828, 1.407791
1175.310, 1.339661
1175.792, 1.251328
1176.274, 1.046967
1176.756, 0.8167720
1177.239, 0.7269130
1177.721, 0.7221680
1178.203, 0.6872410
1178.685, 0.7654720
1179.167, 0.4549710
1179.649, 0.6264340
1180.131, 1.316879
1180.613, 0.1371770
1181.095, 2.516739
1181.578, 2.720276
1182.060, 1.184662
1182.542, 0.1287230
1183.024, 0.9171450
1183.506, 1.484268
1183.988, 1.496689
1184.470, 1.273117
1184.952, 1.064377
1185.434, 0.9402770
1185.917, 1.172211
1186.399, 1.723251
1186.881, 2.151398
1187.363, 2.397705
1187.845, 2.214584
1188.327, 1.185303
1188.809, 0.2452550
1189.291, 1.282471
1189.774, 3.533142
1190.256, 4.717255
1190.738, 4.575684
1191.220, 3.841965
1191.702, 1.835815
1192.184, 0.5942690
1192.666, 0.9065090
1193.148, 2.121796
1193.630, 3.398163
1194.113, 4.465790
1194.595, 4.099319
1195.077, 1.957153
1195.559, 0.2418670
1196.041, 0.1967160
1196.523, 0.6083680
1197.005, 1.151688
1197.487, 1.706955
1197.969, 1.929001
1198.452, 1.876282
1198.934, 1.700958
1199.416, 1.364883
1199.898, 1.304321
1200.380, 2.063080
1200.862, 2.771667
1201.344, 3.034378
1201.826, 2.922577
1202.309, 2.481720
1202.791, 1.865906
1203.273, 1.807846
1203.755, 2.803741
1204.237, 3.491180
1204.719, 2.979965
1205.201, 2.232712
1205.683, 1.647842
1206.166, 1.302032
1206.648, 1.887421
1207.130, 3.058899
1207.612, 3.269928
1208.094, 1.436783
1208.576, 0.2928920
1209.058, 1.369370
1209.540, 1.631882
1210.022, 0.5866700
1210.505, 1.429977
1210.987, 2.298065
1211.469, 2.167908
1211.951, 1.800064
1212.433, 1.412582
1212.915, 1.198013
1213.397, 1.290115
1213.879, 1.489182
1214.361, 1.646683
1214.844, 1.781601
1215.326, 2.113052
1215.808, 2.591125
1216.290, 2.984772
1216.772, 3.122040
1217.254, 3.238831
1217.736, 3.507874
1218.218, 3.664337
1218.701, 3.443588
1219.183, 2.902328
1219.665, 2.298889
1220.147, 1.689194
1220.629, 1.330643
1221.111, 1.307114
1221.593, 1.635757
1222.075, 2.871811
1222.557, 3.961929
1223.040, 3.606033
1223.522, 2.109222
1224.004, 0.5860290
1224.486, 0.7768400
1224.968, 0.9555660
1225.450, 2.242447
1225.932, 4.452332
1226.414, 4.270920
1226.896, 3.165344
1227.379, 2.857681
1227.861, 3.180298
1228.343, 3.139099
1228.825, 2.751511
1229.307, 2.533554
1229.789, 2.906464
1230.271, 3.257431
1230.753, 3.479263
1231.236, 3.655716
1231.718, 3.919067
1232.200, 4.216156
1232.682, 4.557571
1233.164, 4.913116
1233.646, 4.699478
1234.128, 2.753174
1234.610, 1.714066
1235.093, 2.361969
1235.575, 3.586594
1236.057, 3.902939
1236.539, 3.654510
1237.021, 3.451340
1237.503, 3.333572
1237.985, 3.576416
1238.467, 5.036346
1238.949, 5.880783
1239.432, 5.550323
1239.914, 4.968201
1240.396, 5.583633
1240.878, 6.812347
1241.360, 7.450836
1241.842, 7.427475
1242.324, 7.434845
1242.806, 7.763107
1243.288, 7.811783
1243.771, 7.482910
1244.253, 6.993805
1244.735, 6.491928
1245.217, 6.063034
1245.699, 5.892776
1246.181, 5.952805
1246.663, 6.574234
1247.145, 8.299454
1247.628, 9.192551
1248.110, 8.592804
1248.592, 7.600479
1249.074, 8.067001
1249.556, 8.971832
1250.038, 8.966003
1250.520, 7.968414
1251.002, 7.294403
1251.484, 6.966141
1251.967, 6.924683
1252.449, 7.206421
1252.931, 7.755447
1253.413, 8.980911
1253.895, 9.997711
1254.377, 9.583664
1254.859, 7.689301
1255.341, 6.589661
1255.823, 6.930634
1256.306, 7.183472
1256.788, 6.826813
1257.270, 6.423538
1257.752, 6.537704
1258.234, 6.846359
1258.716, 7.165833
1259.198, 7.435486
1259.680, 7.378220
1260.163, 6.970505
1260.645, 6.881073
1261.127, 7.322968
1261.609, 7.867355
1262.091, 8.462784
1262.573, 8.581696
1263.055, 7.688309
1263.537, 6.534988
1264.020, 5.141953
1264.502, 3.628754
1264.984, 3.331955
1265.466, 4.732651
1265.948, 6.072495
1266.430, 6.179077
1266.912, 6.044388
1267.394, 6.139450
1267.876, 6.342590
1268.359, 6.563477
1268.841, 6.772446
1269.323, 6.893311
1269.805, 6.957962
1270.287, 6.688980
1270.769, 5.579025
1271.251, 4.589081
1271.733, 4.071320
1272.215, 3.806183
1272.698, 3.301788
1273.180, 2.682632
1273.662, 2.209183
1274.144, 1.916443
1274.626, 1.889984
1275.108, 2.113251
1275.590, 2.696045
1276.072, 3.851334
1276.555, 5.022949
1277.037, 5.227859
1277.519, 4.840393
1278.001, 4.348282
1278.483, 3.825623
1278.965, 3.489594
1279.447, 3.346863
1279.929, 3.395325
1280.411, 3.689026
1280.894, 3.992416
1281.376, 4.024261
1281.858, 3.898773
1282.340, 3.825531
1282.822, 3.780380
1283.304, 3.149216
1283.786, 1.835754
1284.268, 1.068085
1284.750, 1.303253
1285.233, 1.634430
1285.715, 0.9483950
1286.197, 0.2439880
1286.679, 0.5135040
1287.161, 1.490662
1287.643, 2.009964
1288.125, 2.098190
1288.607, 2.093552
1289.090, 2.108383
1289.572, 1.838684
1290.054, 0.3320470
1290.536, 0.6286470
1291.018, 2.4582000E-02
1291.500, 1.698700
1291.982, 3.076675
1292.464, 4.035934
1292.947, 3.976868
1293.429, 2.674835
1293.911, 1.511353
1294.393, 1.329071
1294.875, 1.227554
1295.357, 0.8814850
1295.839, 6.4529002E-02
1296.321, 0.2234190
1296.803, 0.9430390
1297.286, 2.336624
1297.768, 4.493576
1298.250, 5.027786
1298.732, 3.092896
1299.214, 1.365875
1299.696, 0.2574770
1300.178, 6.3930000E-03
1300.660, 0.0000000E+00
##END=



