##NAMES=Sazhinite-(La)
##RRUFFID=R120053
##IDEAL CHEMISTRY=Na_3_LaSi_6_O_15_&#183;2H_2_O
##LOCALITY=Aris quarry, near Windhoek, Namibia
##OWNER=RRUFF
##SOURCE=William W. Pinch
##DESCRIPTION=Thin platy white crystals, associated with reddish brown accicular tuperssuatsiate and colorless granular natrolite. Note that the b-cell edge is half of that reported.
##STATUS=The identification of this mineral has been confirmed only by single crystal X-ray diffraction.
##URL=rruff.info/R120053
8.813672e+001, 1.796919e+002
8.861884e+001, 1.825374e+002
8.910095e+001, 1.850844e+002
8.958307e+001, 1.869369e+002
9.006519e+001, 1.888757e+002
9.054730e+001, 1.919346e+002
9.102942e+001, 1.963128e+002
9.151154e+001, 2.005541e+002
9.199365e+001, 2.039647e+002
9.247577e+001, 2.063824e+002
9.295789e+001, 2.072478e+002
9.344000e+001, 2.049133e+002
9.392212e+001, 2.008410e+002
9.440424e+001, 1.991382e+002
9.488635e+001, 2.005169e+002
9.536847e+001, 2.028683e+002
9.585059e+001, 2.031521e+002
9.633270e+001, 2.014504e+002
9.681482e+001, 1.994561e+002
9.729694e+001, 1.979613e+002
9.777905e+001, 1.969410e+002
9.826117e+001, 1.961792e+002
9.874329e+001, 1.955032e+002
9.922540e+001, 1.952216e+002
9.970752e+001, 1.965751e+002
1.001896e+002, 2.000714e+002
1.006718e+002, 2.031077e+002
1.011539e+002, 2.036017e+002
1.016360e+002, 2.008876e+002
1.021181e+002, 1.988754e+002
1.026002e+002, 1.981570e+002
1.030823e+002, 1.985692e+002
1.035645e+002, 1.989470e+002
1.040466e+002, 1.991585e+002
1.045287e+002, 1.995270e+002
1.050108e+002, 2.002494e+002
1.054929e+002, 2.009216e+002
1.059750e+002, 2.026722e+002
1.064572e+002, 2.061017e+002
1.069393e+002, 2.115112e+002
1.074214e+002, 2.158820e+002
1.079035e+002, 2.198289e+002
1.083856e+002, 2.225455e+002
1.088677e+002, 2.230981e+002
1.093499e+002, 2.188333e+002
1.098320e+002, 2.150380e+002
1.103141e+002, 2.128648e+002
1.107962e+002, 2.127431e+002
1.112783e+002, 2.128208e+002
1.117604e+002, 2.127733e+002
1.122426e+002, 2.128780e+002
1.127247e+002, 2.135633e+002
1.132068e+002, 2.152436e+002
1.136889e+002, 2.172389e+002
1.141710e+002, 2.192778e+002
1.146531e+002, 2.213186e+002
1.151353e+002, 2.234028e+002
1.156174e+002, 2.256997e+002
1.160995e+002, 2.280804e+002
1.165816e+002, 2.302499e+002
1.170637e+002, 2.320760e+002
1.175458e+002, 2.336503e+002
1.180280e+002, 2.350481e+002
1.185101e+002, 2.362547e+002
1.189922e+002, 2.373016e+002
1.194743e+002, 2.382257e+002
1.199564e+002, 2.390069e+002
1.204385e+002, 2.395449e+002
1.209207e+002, 2.391982e+002
1.214028e+002, 2.387529e+002
1.218849e+002, 2.390848e+002
1.223670e+002, 2.404249e+002
1.228491e+002, 2.427353e+002
1.233312e+002, 2.468527e+002
1.238134e+002, 2.526408e+002
1.242955e+002, 2.573853e+002
1.247776e+002, 2.581343e+002
1.252597e+002, 2.562281e+002
1.257418e+002, 2.543886e+002
1.262239e+002, 2.535648e+002
1.267061e+002, 2.535301e+002
1.271882e+002, 2.539678e+002
1.276703e+002, 2.548847e+002
1.281524e+002, 2.562220e+002
1.286345e+002, 2.582661e+002
1.291166e+002, 2.608205e+002
1.295988e+002, 2.630151e+002
1.300809e+002, 2.639295e+002
1.305630e+002, 2.640799e+002
1.310451e+002, 2.654259e+002
1.315272e+002, 2.682894e+002
1.320093e+002, 2.715721e+002
1.324915e+002, 2.736601e+002
1.329736e+002, 2.745472e+002
1.334557e+002, 2.751628e+002
1.339378e+002, 2.757126e+002
1.344199e+002, 2.762409e+002
1.349020e+002, 2.776277e+002
1.353842e+002, 2.801827e+002
1.358663e+002, 2.833015e+002
1.363484e+002, 2.856900e+002
1.368305e+002, 2.871535e+002
1.373126e+002, 2.887141e+002
1.377947e+002, 2.909373e+002
1.382769e+002, 2.938617e+002
1.387590e+002, 2.973409e+002
1.392411e+002, 3.016552e+002
1.397232e+002, 3.064425e+002
1.402053e+002, 3.101497e+002
1.406874e+002, 3.128879e+002
1.411696e+002, 3.144280e+002
1.416517e+002, 3.142708e+002
1.421338e+002, 3.114937e+002
1.426159e+002, 3.095570e+002
1.430980e+002, 3.089735e+002
1.435801e+002, 3.096742e+002
1.440623e+002, 3.107262e+002
1.445444e+002, 3.123959e+002
1.450265e+002, 3.141556e+002
1.455086e+002, 3.155494e+002
1.459907e+002, 3.163571e+002
1.464728e+002, 3.171927e+002
1.469550e+002, 3.182228e+002
1.474371e+002, 3.194726e+002
1.479192e+002, 3.204542e+002
1.484013e+002, 3.212466e+002
1.488834e+002, 3.217215e+002
1.493655e+002, 3.217539e+002
1.498477e+002, 3.208168e+002
1.503298e+002, 3.199854e+002
1.508119e+002, 3.194443e+002
1.512940e+002, 3.192223e+002
1.517761e+002, 3.190970e+002
1.522583e+002, 3.193921e+002
1.527404e+002, 3.196615e+002
1.532225e+002, 3.194360e+002
1.537046e+002, 3.175743e+002
1.541867e+002, 3.162371e+002
1.546688e+002, 3.163154e+002
1.551510e+002, 3.184112e+002
1.556331e+002, 3.196837e+002
1.561152e+002, 3.192415e+002
1.565973e+002, 3.178295e+002
1.570794e+002, 3.164461e+002
1.575615e+002, 3.147179e+002
1.580437e+002, 3.135197e+002
1.585258e+002, 3.134352e+002
1.590079e+002, 3.150440e+002
1.594900e+002, 3.161749e+002
1.599721e+002, 3.156022e+002
1.604542e+002, 3.141810e+002
1.609364e+002, 3.134100e+002
1.614185e+002, 3.143553e+002
1.619006e+002, 3.157032e+002
1.623827e+002, 3.168324e+002
1.628648e+002, 3.178300e+002
1.633469e+002, 3.181369e+002
1.638291e+002, 3.171076e+002
1.643112e+002, 3.151666e+002
1.647933e+002, 3.132866e+002
1.652754e+002, 3.120817e+002
1.657575e+002, 3.110107e+002
1.662396e+002, 3.096252e+002
1.667218e+002, 3.076572e+002
1.672039e+002, 3.057128e+002
1.676860e+002, 3.040177e+002
1.681681e+002, 3.026299e+002
1.686502e+002, 3.016675e+002
1.691323e+002, 3.013441e+002
1.696145e+002, 3.014340e+002
1.700966e+002, 3.018319e+002
1.705787e+002, 3.029683e+002
1.710608e+002, 3.037141e+002
1.715429e+002, 3.026479e+002
1.720250e+002, 3.001306e+002
1.725072e+002, 2.979433e+002
1.729893e+002, 2.974103e+002
1.734714e+002, 2.977982e+002
1.739535e+002, 2.981084e+002
1.744356e+002, 2.980378e+002
1.749177e+002, 2.978296e+002
1.753999e+002, 2.978949e+002
1.758820e+002, 2.981635e+002
1.763641e+002, 2.980895e+002
1.768462e+002, 2.969695e+002
1.773283e+002, 2.952564e+002
1.778104e+002, 2.938015e+002
1.782926e+002, 2.929180e+002
1.787747e+002, 2.923716e+002
1.792568e+002, 2.920075e+002
1.797389e+002, 2.918125e+002
1.802210e+002, 2.914051e+002
1.807031e+002, 2.901528e+002
1.811853e+002, 2.884074e+002
1.816674e+002, 2.871500e+002
1.821495e+002, 2.869640e+002
1.826316e+002, 2.872836e+002
1.831137e+002, 2.869459e+002
1.835958e+002, 2.859341e+002
1.840780e+002, 2.849228e+002
1.845601e+002, 2.846838e+002
1.850422e+002, 2.850315e+002
1.855243e+002, 2.851343e+002
1.860064e+002, 2.844850e+002
1.864885e+002, 2.834870e+002
1.869707e+002, 2.834156e+002
1.874528e+002, 2.843629e+002
1.879349e+002, 2.852989e+002
1.884170e+002, 2.849723e+002
1.888991e+002, 2.835418e+002
1.893812e+002, 2.822663e+002
1.898634e+002, 2.815943e+002
1.903455e+002, 2.813856e+002
1.908276e+002, 2.810533e+002
1.913097e+002, 2.805555e+002
1.917918e+002, 2.801479e+002
1.922739e+002, 2.802580e+002
1.927561e+002, 2.808701e+002
1.932382e+002, 2.812475e+002
1.937203e+002, 2.810795e+002
1.942024e+002, 2.804522e+002
1.946845e+002, 2.799442e+002
1.951666e+002, 2.796391e+002
1.956488e+002, 2.791378e+002
1.961309e+002, 2.776926e+002
1.966130e+002, 2.751961e+002
1.970951e+002, 2.732014e+002
1.975772e+002, 2.723771e+002
1.980593e+002, 2.726022e+002
1.985415e+002, 2.725341e+002
1.990236e+002, 2.721266e+002
1.995057e+002, 2.715722e+002
1.999878e+002, 2.710987e+002
2.004699e+002, 2.707152e+002
2.009520e+002, 2.704202e+002
2.014342e+002, 2.702807e+002
2.019163e+002, 2.702951e+002
2.023984e+002, 2.700745e+002
2.028805e+002, 2.695020e+002
2.033626e+002, 2.689476e+002
2.038447e+002, 2.689586e+002
2.043269e+002, 2.696377e+002
2.048090e+002, 2.703936e+002
2.052911e+002, 2.710143e+002
2.057732e+002, 2.714938e+002
2.062553e+002, 2.721403e+002
2.067374e+002, 2.730651e+002
2.072196e+002, 2.739639e+002
2.077017e+002, 2.742651e+002
2.081838e+002, 2.736845e+002
2.086659e+002, 2.734807e+002
2.091480e+002, 2.741459e+002
2.096301e+002, 2.757504e+002
2.101123e+002, 2.773272e+002
2.105944e+002, 2.789656e+002
2.110765e+002, 2.804648e+002
2.115586e+002, 2.815159e+002
2.120407e+002, 2.820226e+002
2.125228e+002, 2.823522e+002
2.130050e+002, 2.826958e+002
2.134871e+002, 2.831178e+002
2.139692e+002, 2.828808e+002
2.144513e+002, 2.818227e+002
2.149334e+002, 2.802813e+002
2.154155e+002, 2.786496e+002
2.158977e+002, 2.768260e+002
2.163798e+002, 2.751628e+002
2.168619e+002, 2.738141e+002
2.173440e+002, 2.728290e+002
2.178261e+002, 2.718498e+002
2.183082e+002, 2.710109e+002
2.187904e+002, 2.700644e+002
2.192725e+002, 2.686274e+002
2.197546e+002, 2.665558e+002
2.202367e+002, 2.643482e+002
2.207188e+002, 2.621508e+002
2.212009e+002, 2.599433e+002
2.216831e+002, 2.577772e+002
2.221652e+002, 2.556800e+002
2.226473e+002, 2.536042e+002
2.231294e+002, 2.514255e+002
2.236115e+002, 2.487334e+002
2.240936e+002, 2.467575e+002
2.245758e+002, 2.461329e+002
2.250579e+002, 2.472185e+002
2.255400e+002, 2.469974e+002
2.260221e+002, 2.447347e+002
2.265042e+002, 2.418144e+002
2.269863e+002, 2.401774e+002
2.274685e+002, 2.406302e+002
2.279506e+002, 2.408094e+002
2.284327e+002, 2.400208e+002
2.289148e+002, 2.380996e+002
2.293969e+002, 2.363477e+002
2.298790e+002, 2.347110e+002
2.303612e+002, 2.332812e+002
2.308433e+002, 2.322063e+002
2.313254e+002, 2.316556e+002
2.318075e+002, 2.311293e+002
2.322896e+002, 2.305385e+002
2.327717e+002, 2.298968e+002
2.332539e+002, 2.290488e+002
2.337360e+002, 2.278268e+002
2.342181e+002, 2.265693e+002
2.347002e+002, 2.256451e+002
2.351823e+002, 2.251090e+002
2.356644e+002, 2.248439e+002
2.361466e+002, 2.249340e+002
2.366287e+002, 2.254364e+002
2.371108e+002, 2.256494e+002
2.375929e+002, 2.255393e+002
2.380750e+002, 2.251790e+002
2.385571e+002, 2.245962e+002
2.390393e+002, 2.235692e+002
2.395214e+002, 2.227414e+002
2.400035e+002, 2.222666e+002
2.404856e+002, 2.221570e+002
2.409677e+002, 2.221255e+002
2.414498e+002, 2.222710e+002
2.419320e+002, 2.223948e+002
2.424141e+002, 2.222650e+002
2.428962e+002, 2.216159e+002
2.433783e+002, 2.212046e+002
2.438604e+002, 2.212178e+002
2.443425e+002, 2.216504e+002
2.448247e+002, 2.220242e+002
2.453068e+002, 2.223422e+002
2.457889e+002, 2.225854e+002
2.462710e+002, 2.227038e+002
2.467531e+002, 2.225131e+002
2.472352e+002, 2.225653e+002
2.477174e+002, 2.230380e+002
2.481995e+002, 2.238982e+002
2.486816e+002, 2.246044e+002
2.491637e+002, 2.252951e+002
2.496458e+002, 2.256816e+002
2.501279e+002, 2.254487e+002
2.506101e+002, 2.241711e+002
2.510922e+002, 2.232217e+002
2.515743e+002, 2.228652e+002
2.520564e+002, 2.230347e+002
2.525385e+002, 2.231402e+002
2.530206e+002, 2.229802e+002
2.535028e+002, 2.230343e+002
2.539849e+002, 2.237370e+002
2.544670e+002, 2.255584e+002
2.549491e+002, 2.268690e+002
2.554312e+002, 2.272899e+002
2.559133e+002, 2.270229e+002
2.563955e+002, 2.271862e+002
2.568776e+002, 2.278904e+002
2.573597e+002, 2.288421e+002
2.578418e+002, 2.299140e+002
2.583239e+002, 2.312556e+002
2.588061e+002, 2.322835e+002
2.592882e+002, 2.327993e+002
2.597703e+002, 2.329964e+002
2.602524e+002, 2.336478e+002
2.607345e+002, 2.350194e+002
2.612166e+002, 2.363762e+002
2.616988e+002, 2.373024e+002
2.621809e+002, 2.376328e+002
2.626630e+002, 2.380993e+002
2.631451e+002, 2.389585e+002
2.636272e+002, 2.398806e+002
2.641093e+002, 2.398002e+002
2.645915e+002, 2.382660e+002
2.650736e+002, 2.367633e+002
2.655557e+002, 2.360420e+002
2.660378e+002, 2.363336e+002
2.665199e+002, 2.365401e+002
2.670020e+002, 2.366646e+002
2.674842e+002, 2.366815e+002
2.679663e+002, 2.365946e+002
2.684484e+002, 2.365124e+002
2.689305e+002, 2.360102e+002
2.694126e+002, 2.347577e+002
2.698947e+002, 2.325378e+002
2.703769e+002, 2.307876e+002
2.708590e+002, 2.296835e+002
2.713411e+002, 2.287952e+002
2.718232e+002, 2.273537e+002
2.723053e+002, 2.251879e+002
2.727874e+002, 2.231110e+002
2.732696e+002, 2.214170e+002
2.737517e+002, 2.201243e+002
2.742338e+002, 2.188939e+002
2.747159e+002, 2.177590e+002
2.751980e+002, 2.166068e+002
2.756801e+002, 2.151793e+002
2.761623e+002, 2.133665e+002
2.766444e+002, 2.119595e+002
2.771265e+002, 2.113024e+002
2.776086e+002, 2.113458e+002
2.780907e+002, 2.113856e+002
2.785728e+002, 2.114531e+002
2.790550e+002, 2.114465e+002
2.795371e+002, 2.113371e+002
2.800192e+002, 2.111529e+002
2.805013e+002, 2.104688e+002
2.809834e+002, 2.087910e+002
2.814655e+002, 2.065137e+002
2.819477e+002, 2.058711e+002
2.824298e+002, 2.070960e+002
2.829119e+002, 2.088701e+002
2.833940e+002, 2.101454e+002
2.838761e+002, 2.109212e+002
2.843582e+002, 2.111473e+002
2.848404e+002, 2.105447e+002
2.853225e+002, 2.095312e+002
2.858046e+002, 2.094378e+002
2.862867e+002, 2.103143e+002
2.867688e+002, 2.115621e+002
2.872509e+002, 2.127584e+002
2.877331e+002, 2.139160e+002
2.882152e+002, 2.151690e+002
2.886973e+002, 2.165640e+002
2.891794e+002, 2.180372e+002
2.896615e+002, 2.195692e+002
2.901436e+002, 2.211685e+002
2.906258e+002, 2.223939e+002
2.911079e+002, 2.225559e+002
2.915900e+002, 2.219954e+002
2.920721e+002, 2.223086e+002
2.925542e+002, 2.238640e+002
2.930363e+002, 2.258989e+002
2.935185e+002, 2.271829e+002
2.940006e+002, 2.278033e+002
2.944827e+002, 2.284618e+002
2.949648e+002, 2.297428e+002
2.954469e+002, 2.313770e+002
2.959290e+002, 2.325271e+002
2.964112e+002, 2.330587e+002
2.968933e+002, 2.335190e+002
2.973754e+002, 2.345379e+002
2.978575e+002, 2.360367e+002
2.983396e+002, 2.377566e+002
2.988217e+002, 2.397297e+002
2.993039e+002, 2.417922e+002
2.997860e+002, 2.435397e+002
3.002681e+002, 2.449466e+002
3.007502e+002, 2.463750e+002
3.012323e+002, 2.483259e+002
3.017144e+002, 2.505862e+002
3.021966e+002, 2.525504e+002
3.026787e+002, 2.536743e+002
3.031608e+002, 2.545884e+002
3.036429e+002, 2.561561e+002
3.041250e+002, 2.583394e+002
3.046071e+002, 2.606555e+002
3.050893e+002, 2.626740e+002
3.055714e+002, 2.645815e+002
3.060535e+002, 2.666091e+002
3.065356e+002, 2.688504e+002
3.070177e+002, 2.712406e+002
3.074998e+002, 2.739246e+002
3.079820e+002, 2.768062e+002
3.084641e+002, 2.792425e+002
3.089462e+002, 2.806300e+002
3.094283e+002, 2.814505e+002
3.099104e+002, 2.821583e+002
3.103925e+002, 2.826981e+002
3.108747e+002, 2.834234e+002
3.113568e+002, 2.850221e+002
3.118389e+002, 2.870682e+002
3.123210e+002, 2.883646e+002
3.128031e+002, 2.878322e+002
3.132852e+002, 2.866275e+002
3.137674e+002, 2.855714e+002
3.142495e+002, 2.847769e+002
3.147316e+002, 2.842410e+002
3.152137e+002, 2.843289e+002
3.156958e+002, 2.846441e+002
3.161779e+002, 2.845087e+002
3.166601e+002, 2.835576e+002
3.171422e+002, 2.821774e+002
3.176243e+002, 2.804834e+002
3.181064e+002, 2.784601e+002
3.185885e+002, 2.764247e+002
3.190706e+002, 2.746251e+002
3.195528e+002, 2.728273e+002
3.200349e+002, 2.707650e+002
3.205170e+002, 2.677866e+002
3.209991e+002, 2.650876e+002
3.214812e+002, 2.631855e+002
3.219633e+002, 2.620926e+002
3.224455e+002, 2.609367e+002
3.229276e+002, 2.594234e+002
3.234097e+002, 2.578283e+002
3.238918e+002, 2.563579e+002
3.243739e+002, 2.550780e+002
3.248560e+002, 2.538808e+002
3.253382e+002, 2.528525e+002
3.258203e+002, 2.519373e+002
3.263024e+002, 2.508144e+002
3.267845e+002, 2.488147e+002
3.272666e+002, 2.470669e+002
3.277487e+002, 2.461298e+002
3.282309e+002, 2.468643e+002
3.287130e+002, 2.472437e+002
3.291951e+002, 2.469699e+002
3.296772e+002, 2.463494e+002
3.301593e+002, 2.461749e+002
3.306414e+002, 2.469595e+002
3.311236e+002, 2.476020e+002
3.316057e+002, 2.476561e+002
3.320878e+002, 2.467890e+002
3.325699e+002, 2.463477e+002
3.330520e+002, 2.464380e+002
3.335341e+002, 2.468915e+002
3.340163e+002, 2.475102e+002
3.344984e+002, 2.484346e+002
3.349805e+002, 2.492297e+002
3.354626e+002, 2.496356e+002
3.359447e+002, 2.496132e+002
3.364268e+002, 2.504160e+002
3.369090e+002, 2.523876e+002
3.373911e+002, 2.546721e+002
3.378732e+002, 2.564381e+002
3.383553e+002, 2.576163e+002
3.388374e+002, 2.585371e+002
3.393195e+002, 2.592088e+002
3.398017e+002, 2.596725e+002
3.402838e+002, 2.602423e+002
3.407659e+002, 2.610346e+002
3.412480e+002, 2.615007e+002
3.417301e+002, 2.608753e+002
3.422122e+002, 2.590787e+002
3.426944e+002, 2.585196e+002
3.431765e+002, 2.598120e+002
3.436586e+002, 2.619102e+002
3.441407e+002, 2.626523e+002
3.446228e+002, 2.620218e+002
3.451049e+002, 2.609050e+002
3.455871e+002, 2.596815e+002
3.460692e+002, 2.583493e+002
3.465513e+002, 2.570255e+002
3.470334e+002, 2.557523e+002
3.475155e+002, 2.543380e+002
3.479977e+002, 2.524659e+002
3.484798e+002, 2.502040e+002
3.489619e+002, 2.479888e+002
3.494440e+002, 2.461532e+002
3.499261e+002, 2.444273e+002
3.504082e+002, 2.422101e+002
3.508904e+002, 2.395000e+002
3.513725e+002, 2.366715e+002
3.518546e+002, 2.337343e+002
3.523367e+002, 2.309081e+002
3.528188e+002, 2.286661e+002
3.533009e+002, 2.273604e+002
3.537831e+002, 2.264135e+002
3.542652e+002, 2.250692e+002
3.547473e+002, 2.234652e+002
3.552294e+002, 2.222410e+002
3.557115e+002, 2.223961e+002
3.561936e+002, 2.228786e+002
3.566758e+002, 2.224718e+002
3.571579e+002, 2.207372e+002
3.576400e+002, 2.187412e+002
3.581221e+002, 2.167678e+002
3.586042e+002, 2.150965e+002
3.590863e+002, 2.142354e+002
3.595685e+002, 2.153126e+002
3.600506e+002, 2.166107e+002
3.605327e+002, 2.169444e+002
3.610148e+002, 2.161077e+002
3.614969e+002, 2.153718e+002
3.619790e+002, 2.151514e+002
3.624612e+002, 2.153500e+002
3.629433e+002, 2.158584e+002
3.634254e+002, 2.168691e+002
3.639075e+002, 2.179582e+002
3.643896e+002, 2.191993e+002
3.648717e+002, 2.205269e+002
3.653539e+002, 2.212994e+002
3.658360e+002, 2.209275e+002
3.663181e+002, 2.202492e+002
3.668002e+002, 2.197567e+002
3.672823e+002, 2.193289e+002
3.677644e+002, 2.192966e+002
3.682466e+002, 2.201039e+002
3.687287e+002, 2.213545e+002
3.692108e+002, 2.219324e+002
3.696929e+002, 2.212576e+002
3.701750e+002, 2.205231e+002
3.706571e+002, 2.201600e+002
3.711393e+002, 2.203418e+002
3.716214e+002, 2.202845e+002
3.721035e+002, 2.197012e+002
3.725856e+002, 2.190939e+002
3.730677e+002, 2.191608e+002
3.735498e+002, 2.202243e+002
3.740320e+002, 2.212722e+002
3.745141e+002, 2.220453e+002
3.749962e+002, 2.225691e+002
3.754783e+002, 2.232984e+002
3.759604e+002, 2.243533e+002
3.764425e+002, 2.253429e+002
3.769247e+002, 2.258680e+002
3.774068e+002, 2.258420e+002
3.778889e+002, 2.259987e+002
3.783710e+002, 2.264354e+002
3.788531e+002, 2.270997e+002
3.793352e+002, 2.279767e+002
3.798174e+002, 2.290874e+002
3.802995e+002, 2.300518e+002
3.807816e+002, 2.304248e+002
3.812637e+002, 2.303531e+002
3.817458e+002, 2.308862e+002
3.822279e+002, 2.321555e+002
3.827101e+002, 2.336906e+002
3.831922e+002, 2.351207e+002
3.836743e+002, 2.363932e+002
3.841564e+002, 2.371932e+002
3.846385e+002, 2.371609e+002
3.851206e+002, 2.367021e+002
3.856028e+002, 2.364604e+002
3.860849e+002, 2.364380e+002
3.865670e+002, 2.366661e+002
3.870491e+002, 2.374925e+002
3.875312e+002, 2.385220e+002
3.880133e+002, 2.390702e+002
3.884955e+002, 2.387856e+002
3.889776e+002, 2.383178e+002
3.894597e+002, 2.384188e+002
3.899418e+002, 2.388386e+002
3.904239e+002, 2.388574e+002
3.909060e+002, 2.374526e+002
3.913882e+002, 2.359140e+002
3.918703e+002, 2.353742e+002
3.923524e+002, 2.361419e+002
3.928345e+002, 2.368811e+002
3.933166e+002, 2.368862e+002
3.937987e+002, 2.365051e+002
3.942809e+002, 2.361792e+002
3.947630e+002, 2.358437e+002
3.952451e+002, 2.357685e+002
3.957272e+002, 2.361226e+002
3.962093e+002, 2.368854e+002
3.966914e+002, 2.376822e+002
3.971736e+002, 2.386506e+002
3.976557e+002, 2.394870e+002
3.981378e+002, 2.400029e+002
3.986199e+002, 2.394009e+002
3.991020e+002, 2.394577e+002
3.995841e+002, 2.405605e+002
4.000663e+002, 2.423362e+002
4.005484e+002, 2.438802e+002
4.010305e+002, 2.448192e+002
4.015126e+002, 2.460002e+002
4.019947e+002, 2.478308e+002
4.024768e+002, 2.505120e+002
4.029590e+002, 2.526243e+002
4.034411e+002, 2.538734e+002
4.039232e+002, 2.548903e+002
4.044053e+002, 2.563885e+002
4.048874e+002, 2.584846e+002
4.053695e+002, 2.607066e+002
4.058517e+002, 2.630569e+002
4.063338e+002, 2.654562e+002
4.068159e+002, 2.675279e+002
4.072980e+002, 2.691617e+002
4.077801e+002, 2.710231e+002
4.082622e+002, 2.737387e+002
4.087444e+002, 2.772398e+002
4.092265e+002, 2.803320e+002
4.097086e+002, 2.828238e+002
4.101907e+002, 2.851245e+002
4.106728e+002, 2.878968e+002
4.111549e+002, 2.910855e+002
4.116371e+002, 2.942924e+002
4.121192e+002, 2.971120e+002
4.126013e+002, 2.998470e+002
4.130834e+002, 3.033214e+002
4.135655e+002, 3.075148e+002
4.140476e+002, 3.114511e+002
4.145298e+002, 3.140722e+002
4.150119e+002, 3.159622e+002
4.154940e+002, 3.181327e+002
4.159761e+002, 3.208568e+002
4.164582e+002, 3.239168e+002
4.169403e+002, 3.271451e+002
4.174225e+002, 3.305475e+002
4.179046e+002, 3.341297e+002
4.183867e+002, 3.382253e+002
4.188688e+002, 3.422161e+002
4.193509e+002, 3.455692e+002
4.198330e+002, 3.481834e+002
4.203152e+002, 3.505813e+002
4.207973e+002, 3.525275e+002
4.212794e+002, 3.545587e+002
4.217615e+002, 3.573006e+002
4.222436e+002, 3.620847e+002
4.227257e+002, 3.663504e+002
4.232079e+002, 3.694120e+002
4.236900e+002, 3.713086e+002
4.241721e+002, 3.729457e+002
4.246542e+002, 3.749067e+002
4.251363e+002, 3.762291e+002
4.256184e+002, 3.763580e+002
4.261006e+002, 3.741517e+002
4.265827e+002, 3.728688e+002
4.270648e+002, 3.730715e+002
4.275469e+002, 3.739099e+002
4.280290e+002, 3.739175e+002
4.285111e+002, 3.730446e+002
4.289933e+002, 3.714193e+002
4.294754e+002, 3.688233e+002
4.299575e+002, 3.652877e+002
4.304396e+002, 3.624777e+002
4.309217e+002, 3.605206e+002
4.314038e+002, 3.588792e+002
4.318860e+002, 3.571271e+002
4.323681e+002, 3.552646e+002
4.328502e+002, 3.533789e+002
4.333323e+002, 3.513256e+002
4.338144e+002, 3.495067e+002
4.342965e+002, 3.488640e+002
4.347787e+002, 3.493281e+002
4.352608e+002, 3.500207e+002
4.357429e+002, 3.504238e+002
4.362250e+002, 3.507117e+002
4.367071e+002, 3.513296e+002
4.371892e+002, 3.523112e+002
4.376714e+002, 3.533554e+002
4.381535e+002, 3.538939e+002
4.386356e+002, 3.543383e+002
4.391177e+002, 3.554310e+002
4.395998e+002, 3.577248e+002
4.400819e+002, 3.603900e+002
4.405641e+002, 3.626557e+002
4.410462e+002, 3.646992e+002
4.415283e+002, 3.671628e+002
4.420104e+002, 3.707661e+002
4.424925e+002, 3.746221e+002
4.429746e+002, 3.780952e+002
4.434568e+002, 3.810749e+002
4.439389e+002, 3.838649e+002
4.444210e+002, 3.864460e+002
4.449031e+002, 3.889207e+002
4.453852e+002, 3.914212e+002
4.458673e+002, 3.939142e+002
4.463495e+002, 3.964396e+002
4.468316e+002, 3.990482e+002
4.473137e+002, 4.017238e+002
4.477958e+002, 4.043134e+002
4.482779e+002, 4.068622e+002
4.487600e+002, 4.092399e+002
4.492422e+002, 4.114171e+002
4.497243e+002, 4.135853e+002
4.502064e+002, 4.151172e+002
4.506885e+002, 4.159766e+002
4.511706e+002, 4.162881e+002
4.516527e+002, 4.163004e+002
4.521349e+002, 4.161135e+002
4.526170e+002, 4.152491e+002
4.530991e+002, 4.134278e+002
4.535812e+002, 4.107975e+002
4.540633e+002, 4.083958e+002
4.545454e+002, 4.062497e+002
4.550276e+002, 4.039716e+002
4.555097e+002, 4.011540e+002
4.559918e+002, 3.978947e+002
4.564739e+002, 3.949442e+002
4.569560e+002, 3.925506e+002
4.574381e+002, 3.899426e+002
4.579203e+002, 3.858196e+002
4.584024e+002, 3.805603e+002
4.588845e+002, 3.752933e+002
4.593666e+002, 3.706404e+002
4.598488e+002, 3.662527e+002
4.603309e+002, 3.617408e+002
4.608130e+002, 3.571373e+002
4.612951e+002, 3.527562e+002
4.617772e+002, 3.494352e+002
4.622593e+002, 3.462169e+002
4.627415e+002, 3.422047e+002
4.632236e+002, 3.369170e+002
4.637057e+002, 3.313238e+002
4.641878e+002, 3.253012e+002
4.646699e+002, 3.193491e+002
4.651520e+002, 3.143187e+002
4.656342e+002, 3.117010e+002
4.661163e+002, 3.089749e+002
4.665984e+002, 3.050967e+002
4.670805e+002, 2.998419e+002
4.675626e+002, 2.952438e+002
4.680447e+002, 2.916710e+002
4.685269e+002, 2.885133e+002
4.690090e+002, 2.853105e+002
4.694911e+002, 2.818860e+002
4.699732e+002, 2.787982e+002
4.704553e+002, 2.760702e+002
4.709374e+002, 2.736839e+002
4.714196e+002, 2.715923e+002
4.719017e+002, 2.698462e+002
4.723838e+002, 2.682551e+002
4.728659e+002, 2.667875e+002
4.733480e+002, 2.654241e+002
4.738301e+002, 2.640199e+002
4.743123e+002, 2.625669e+002
4.747944e+002, 2.610956e+002
4.752765e+002, 2.595617e+002
4.757586e+002, 2.580174e+002
4.762407e+002, 2.566591e+002
4.767228e+002, 2.554930e+002
4.772050e+002, 2.545992e+002
4.776871e+002, 2.539856e+002
4.781692e+002, 2.537154e+002
4.786513e+002, 2.540088e+002
4.791334e+002, 2.553610e+002
4.796155e+002, 2.570930e+002
4.800977e+002, 2.585514e+002
4.805798e+002, 2.597124e+002
4.810619e+002, 2.608738e+002
4.815440e+002, 2.620589e+002
4.820261e+002, 2.633833e+002
4.825082e+002, 2.649978e+002
4.829904e+002, 2.673283e+002
4.834725e+002, 2.693610e+002
4.839546e+002, 2.707110e+002
4.844367e+002, 2.715800e+002
4.849188e+002, 2.723756e+002
4.854009e+002, 2.728504e+002
4.858831e+002, 2.735875e+002
4.863652e+002, 2.748338e+002
4.868473e+002, 2.766215e+002
4.873294e+002, 2.782758e+002
4.878115e+002, 2.796105e+002
4.882936e+002, 2.810342e+002
4.887758e+002, 2.829061e+002
4.892579e+002, 2.854008e+002
4.897400e+002, 2.877549e+002
4.902221e+002, 2.898880e+002
4.907042e+002, 2.918810e+002
4.911863e+002, 2.937795e+002
4.916685e+002, 2.955772e+002
4.921506e+002, 2.975075e+002
4.926327e+002, 2.995786e+002
4.931148e+002, 3.018707e+002
4.935969e+002, 3.049291e+002
4.940790e+002, 3.087853e+002
4.945612e+002, 3.119100e+002
4.950433e+002, 3.127012e+002
4.955254e+002, 3.119760e+002
4.960075e+002, 3.112684e+002
4.964896e+002, 3.108644e+002
4.969717e+002, 3.105015e+002
4.974539e+002, 3.100960e+002
4.979360e+002, 3.095568e+002
4.984181e+002, 3.087301e+002
4.989002e+002, 3.077749e+002
4.993823e+002, 3.063028e+002
4.998644e+002, 3.040127e+002
5.003466e+002, 3.009328e+002
5.008287e+002, 2.975721e+002
5.013108e+002, 2.938995e+002
5.017929e+002, 2.901274e+002
5.022750e+002, 2.863731e+002
5.027571e+002, 2.825071e+002
5.032393e+002, 2.788716e+002
5.037214e+002, 2.756506e+002
5.042035e+002, 2.725915e+002
5.046856e+002, 2.692432e+002
5.051677e+002, 2.651483e+002
5.056498e+002, 2.617553e+002
5.061320e+002, 2.595109e+002
5.066141e+002, 2.581733e+002
5.070962e+002, 2.565706e+002
5.075783e+002, 2.546759e+002
5.080604e+002, 2.526212e+002
5.085425e+002, 2.503706e+002
5.090247e+002, 2.479653e+002
5.095068e+002, 2.457460e+002
5.099889e+002, 2.436702e+002
5.104710e+002, 2.420645e+002
5.109531e+002, 2.417333e+002
5.114352e+002, 2.422260e+002
5.119174e+002, 2.421506e+002
5.123995e+002, 2.407493e+002
5.128816e+002, 2.390624e+002
5.133637e+002, 2.381412e+002
5.138458e+002, 2.378573e+002
5.143279e+002, 2.377897e+002
5.148101e+002, 2.380058e+002
5.152922e+002, 2.381555e+002
5.157743e+002, 2.379276e+002
5.162564e+002, 2.372620e+002
5.167385e+002, 2.366588e+002
5.172206e+002, 2.361970e+002
5.177028e+002, 2.359291e+002
5.181849e+002, 2.358994e+002
5.186670e+002, 2.362099e+002
5.191491e+002, 2.366400e+002
5.196312e+002, 2.371630e+002
5.201133e+002, 2.377906e+002
5.205955e+002, 2.385417e+002
5.210776e+002, 2.392779e+002
5.215597e+002, 2.403938e+002
5.220418e+002, 2.421783e+002
5.225239e+002, 2.445845e+002
5.230060e+002, 2.464045e+002
5.234882e+002, 2.475948e+002
5.239703e+002, 2.483782e+002
5.244524e+002, 2.487161e+002
5.249345e+002, 2.486794e+002
5.254166e+002, 2.490322e+002
5.258987e+002, 2.498551e+002
5.263809e+002, 2.510840e+002
5.268630e+002, 2.528187e+002
5.273451e+002, 2.549368e+002
5.278272e+002, 2.570118e+002
5.283093e+002, 2.588215e+002
5.287914e+002, 2.605915e+002
5.292736e+002, 2.627197e+002
5.297557e+002, 2.650962e+002
5.302378e+002, 2.671201e+002
5.307199e+002, 2.677601e+002
5.312020e+002, 2.684762e+002
5.316841e+002, 2.704276e+002
5.321663e+002, 2.740690e+002
5.326484e+002, 2.775506e+002
5.331305e+002, 2.803579e+002
5.336126e+002, 2.828430e+002
5.340947e+002, 2.853850e+002
5.345768e+002, 2.884486e+002
5.350590e+002, 2.909608e+002
5.355411e+002, 2.927685e+002
5.360232e+002, 2.939768e+002
5.365053e+002, 2.946575e+002
5.369874e+002, 2.943315e+002
5.374695e+002, 2.946658e+002
5.379517e+002, 2.965041e+002
5.384338e+002, 2.997141e+002
5.389159e+002, 3.022403e+002
5.393980e+002, 3.039877e+002
5.398801e+002, 3.055618e+002
5.403622e+002, 3.075884e+002
5.408444e+002, 3.098800e+002
5.413265e+002, 3.117731e+002
5.418086e+002, 3.132112e+002
5.422907e+002, 3.141868e+002
5.427728e+002, 3.145638e+002
5.432549e+002, 3.144897e+002
5.437371e+002, 3.142682e+002
5.442192e+002, 3.137124e+002
5.447013e+002, 3.133332e+002
5.451834e+002, 3.135354e+002
5.456655e+002, 3.142356e+002
5.461476e+002, 3.150829e+002
5.466298e+002, 3.164800e+002
5.471119e+002, 3.175576e+002
5.475940e+002, 3.177228e+002
5.480761e+002, 3.166312e+002
5.485582e+002, 3.157922e+002
5.490403e+002, 3.150340e+002
5.495225e+002, 3.147634e+002
5.500046e+002, 3.153508e+002
5.504867e+002, 3.170483e+002
5.509688e+002, 3.191049e+002
5.514509e+002, 3.216919e+002
5.519330e+002, 3.244275e+002
5.524152e+002, 3.263723e+002
5.528973e+002, 3.274456e+002
5.533794e+002, 3.283963e+002
5.538615e+002, 3.293891e+002
5.543436e+002, 3.304955e+002
5.548257e+002, 3.319596e+002
5.553079e+002, 3.337690e+002
5.557900e+002, 3.359080e+002
5.562721e+002, 3.387698e+002
5.567542e+002, 3.418085e+002
5.572363e+002, 3.440189e+002
5.577184e+002, 3.451948e+002
5.582006e+002, 3.461397e+002
5.586827e+002, 3.473709e+002
5.591648e+002, 3.487533e+002
5.596469e+002, 3.501382e+002
5.601290e+002, 3.515947e+002
5.606111e+002, 3.529070e+002
5.610933e+002, 3.539352e+002
5.615754e+002, 3.547549e+002
5.620575e+002, 3.555592e+002
5.625396e+002, 3.561708e+002
5.630217e+002, 3.569873e+002
5.635038e+002, 3.582664e+002
5.639860e+002, 3.600481e+002
5.644681e+002, 3.612355e+002
5.649502e+002, 3.615651e+002
5.654323e+002, 3.617870e+002
5.659144e+002, 3.624370e+002
5.663965e+002, 3.635444e+002
5.668787e+002, 3.647205e+002
5.673608e+002, 3.660045e+002
5.678429e+002, 3.671410e+002
5.683250e+002, 3.676807e+002
5.688071e+002, 3.677243e+002
5.692892e+002, 3.676743e+002
5.697714e+002, 3.676919e+002
5.702535e+002, 3.676307e+002
5.707356e+002, 3.672560e+002
5.712177e+002, 3.666295e+002
5.716998e+002, 3.659842e+002
5.721819e+002, 3.652203e+002
5.726641e+002, 3.646288e+002
5.731462e+002, 3.647113e+002
5.736283e+002, 3.655042e+002
5.741104e+002, 3.655048e+002
5.745925e+002, 3.638264e+002
5.750746e+002, 3.614985e+002
5.755568e+002, 3.591310e+002
5.760389e+002, 3.566047e+002
5.765210e+002, 3.544508e+002
5.770031e+002, 3.529173e+002
5.774852e+002, 3.515609e+002
5.779673e+002, 3.498321e+002
5.784495e+002, 3.477301e+002
5.789316e+002, 3.451159e+002
5.794137e+002, 3.416188e+002
5.798958e+002, 3.378811e+002
5.803779e+002, 3.359124e+002
5.808600e+002, 3.357036e+002
5.813422e+002, 3.349901e+002
5.818243e+002, 3.320025e+002
5.823064e+002, 3.277783e+002
5.827885e+002, 3.245684e+002
5.832706e+002, 3.223646e+002
5.837527e+002, 3.204948e+002
5.842349e+002, 3.186862e+002
5.847170e+002, 3.168038e+002
5.851991e+002, 3.147910e+002
5.856812e+002, 3.127496e+002
5.861633e+002, 3.101164e+002
5.866454e+002, 3.058756e+002
5.871276e+002, 3.011671e+002
5.876097e+002, 2.974340e+002
5.880918e+002, 2.956685e+002
5.885739e+002, 2.939825e+002
5.890560e+002, 2.924066e+002
5.895381e+002, 2.907301e+002
5.900203e+002, 2.881830e+002
5.905024e+002, 2.842015e+002
5.909845e+002, 2.806552e+002
5.914666e+002, 2.785161e+002
5.919487e+002, 2.775396e+002
5.924308e+002, 2.753633e+002
5.929130e+002, 2.718408e+002
5.933951e+002, 2.683044e+002
5.938772e+002, 2.659870e+002
5.943593e+002, 2.644985e+002
5.948414e+002, 2.627589e+002
5.953235e+002, 2.606727e+002
5.958057e+002, 2.583668e+002
5.962878e+002, 2.558557e+002
5.967699e+002, 2.532185e+002
5.972520e+002, 2.505855e+002
5.977341e+002, 2.477483e+002
5.982162e+002, 2.452445e+002
5.986984e+002, 2.435825e+002
5.991805e+002, 2.424354e+002
5.996626e+002, 2.410355e+002
6.001447e+002, 2.387892e+002
6.006268e+002, 2.367350e+002
6.011089e+002, 2.353152e+002
6.015911e+002, 2.344376e+002
6.020732e+002, 2.331014e+002
6.025553e+002, 2.310592e+002
6.030374e+002, 2.290417e+002
6.035195e+002, 2.274990e+002
6.040016e+002, 2.264618e+002
6.044838e+002, 2.252467e+002
6.049659e+002, 2.238540e+002
6.054480e+002, 2.223389e+002
6.059301e+002, 2.205804e+002
6.064122e+002, 2.187262e+002
6.068943e+002, 2.172657e+002
6.073765e+002, 2.163087e+002
6.078586e+002, 2.157081e+002
6.083407e+002, 2.154881e+002
6.088228e+002, 2.155039e+002
6.093049e+002, 2.154972e+002
6.097870e+002, 2.155604e+002
6.102692e+002, 2.153811e+002
6.107513e+002, 2.146174e+002
6.112334e+002, 2.134487e+002
6.117155e+002, 2.125268e+002
6.121976e+002, 2.121749e+002
6.126797e+002, 2.118808e+002
6.131619e+002, 2.114560e+002
6.136440e+002, 2.108831e+002
6.141261e+002, 2.104268e+002
6.146082e+002, 2.100163e+002
6.150903e+002, 2.098454e+002
6.155724e+002, 2.102426e+002
6.160546e+002, 2.112270e+002
6.165367e+002, 2.114116e+002
6.170188e+002, 2.105632e+002
6.175009e+002, 2.096359e+002
6.179830e+002, 2.099579e+002
6.184651e+002, 2.111174e+002
6.189473e+002, 2.118916e+002
6.194294e+002, 2.118423e+002
6.199115e+002, 2.115830e+002
6.203936e+002, 2.116539e+002
6.208757e+002, 2.119350e+002
6.213578e+002, 2.121803e+002
6.218400e+002, 2.122086e+002
6.223221e+002, 2.122644e+002
6.228042e+002, 2.123826e+002
6.232863e+002, 2.125893e+002
6.237684e+002, 2.130525e+002
6.242505e+002, 2.142463e+002
6.247327e+002, 2.151782e+002
6.252148e+002, 2.152757e+002
6.256969e+002, 2.143833e+002
6.261790e+002, 2.146645e+002
6.266611e+002, 2.165287e+002
6.271432e+002, 2.184902e+002
6.276254e+002, 2.191450e+002
6.281075e+002, 2.186403e+002
6.285896e+002, 2.187285e+002
6.290717e+002, 2.196198e+002
6.295538e+002, 2.207965e+002
6.300359e+002, 2.219397e+002
6.305181e+002, 2.229054e+002
6.310002e+002, 2.233403e+002
6.314823e+002, 2.227596e+002
6.319644e+002, 2.222762e+002
6.324465e+002, 2.228447e+002
6.329286e+002, 2.240601e+002
6.334108e+002, 2.251035e+002
6.338929e+002, 2.256383e+002
6.343750e+002, 2.260559e+002
6.348571e+002, 2.262568e+002
6.353392e+002, 2.263498e+002
6.358214e+002, 2.271396e+002
6.363035e+002, 2.292559e+002
6.367856e+002, 2.310396e+002
6.372677e+002, 2.317114e+002
6.377498e+002, 2.312622e+002
6.382319e+002, 2.309191e+002
6.387141e+002, 2.306836e+002
6.391962e+002, 2.305107e+002
6.396783e+002, 2.304281e+002
6.401604e+002, 2.303837e+002
6.406425e+002, 2.301537e+002
6.411246e+002, 2.296878e+002
6.416068e+002, 2.292659e+002
6.420889e+002, 2.294259e+002
6.425710e+002, 2.297106e+002
6.430531e+002, 2.294080e+002
6.435352e+002, 2.277066e+002
6.440173e+002, 2.264198e+002
6.444995e+002, 2.267700e+002
6.449816e+002, 2.279231e+002
6.454637e+002, 2.284218e+002
6.459458e+002, 2.274085e+002
6.464279e+002, 2.264724e+002
6.469100e+002, 2.258780e+002
6.473922e+002, 2.255347e+002
6.478743e+002, 2.251035e+002
6.483564e+002, 2.245263e+002
6.488385e+002, 2.240227e+002
6.493206e+002, 2.236992e+002
6.498027e+002, 2.235215e+002
6.502849e+002, 2.233181e+002
6.507670e+002, 2.230919e+002
6.512491e+002, 2.230081e+002
6.517312e+002, 2.235615e+002
6.522133e+002, 2.241916e+002
6.526954e+002, 2.239951e+002
6.531776e+002, 2.228330e+002
6.536597e+002, 2.215144e+002
6.541418e+002, 2.203487e+002
6.546239e+002, 2.193234e+002
6.551060e+002, 2.184308e+002
6.555881e+002, 2.177450e+002
6.560703e+002, 2.170524e+002
6.565524e+002, 2.160698e+002
6.570345e+002, 2.151941e+002
6.575166e+002, 2.149519e+002
6.579987e+002, 2.155894e+002
6.584808e+002, 2.161755e+002
6.589630e+002, 2.166123e+002
6.594451e+002, 2.168820e+002
6.599272e+002, 2.169516e+002
6.604093e+002, 2.168224e+002
6.608914e+002, 2.165023e+002
6.613735e+002, 2.158257e+002
6.618557e+002, 2.151093e+002
6.623378e+002, 2.149876e+002
6.628199e+002, 2.153294e+002
6.633020e+002, 2.155425e+002
6.637841e+002, 2.152170e+002
6.642662e+002, 2.147092e+002
6.647484e+002, 2.140962e+002
6.652305e+002, 2.134021e+002
6.657126e+002, 2.132262e+002
6.661947e+002, 2.142124e+002
6.666768e+002, 2.153499e+002
6.671589e+002, 2.160952e+002
6.676411e+002, 2.163420e+002
6.681232e+002, 2.165401e+002
6.686053e+002, 2.165543e+002
6.690874e+002, 2.167317e+002
6.695695e+002, 2.175277e+002
6.700516e+002, 2.189115e+002
6.705338e+002, 2.200081e+002
6.710159e+002, 2.207081e+002
6.714980e+002, 2.211171e+002
6.719801e+002, 2.213332e+002
6.724622e+002, 2.213596e+002
6.729443e+002, 2.211517e+002
6.734265e+002, 2.204305e+002
6.739086e+002, 2.199350e+002
6.743907e+002, 2.204495e+002
6.748728e+002, 2.215095e+002
6.753549e+002, 2.222233e+002
6.758370e+002, 2.223854e+002
6.763192e+002, 2.221550e+002
6.768013e+002, 2.214036e+002
6.772834e+002, 2.202927e+002
6.777655e+002, 2.193603e+002
6.782476e+002, 2.186218e+002
6.787297e+002, 2.180627e+002
6.792119e+002, 2.177551e+002
6.796940e+002, 2.176309e+002
6.801761e+002, 2.173300e+002
6.806582e+002, 2.168483e+002
6.811403e+002, 2.161656e+002
6.816224e+002, 2.151273e+002
6.821046e+002, 2.139136e+002
6.825867e+002, 2.128542e+002
6.830688e+002, 2.119528e+002
6.835509e+002, 2.111170e+002
6.840330e+002, 2.101304e+002
6.845151e+002, 2.092656e+002
6.849973e+002, 2.088161e+002
6.854794e+002, 2.090541e+002
6.859615e+002, 2.090058e+002
6.864436e+002, 2.081837e+002
6.869257e+002, 2.072336e+002
6.874078e+002, 2.067177e+002
6.878900e+002, 2.069025e+002
6.883721e+002, 2.067261e+002
6.888542e+002, 2.060478e+002
6.893363e+002, 2.051299e+002
6.898184e+002, 2.043453e+002
6.903005e+002, 2.036888e+002
6.907827e+002, 2.030566e+002
6.912648e+002, 2.023857e+002
6.917469e+002, 2.018064e+002
6.922290e+002, 2.015498e+002
6.927111e+002, 2.015131e+002
6.931932e+002, 2.014783e+002
6.936754e+002, 2.013402e+002
6.941575e+002, 2.011851e+002
6.946396e+002, 2.011044e+002
6.951217e+002, 2.010499e+002
6.956038e+002, 2.008387e+002
6.960859e+002, 2.001930e+002
6.965681e+002, 1.996816e+002
6.970502e+002, 1.994301e+002
6.975323e+002, 1.994369e+002
6.980144e+002, 1.997615e+002
6.984965e+002, 2.005013e+002
6.989786e+002, 2.011421e+002
6.994608e+002, 2.013969e+002
6.999429e+002, 2.013149e+002
7.004250e+002, 2.010428e+002
7.009071e+002, 2.005873e+002
7.013892e+002, 2.000589e+002
7.018713e+002, 1.990293e+002
7.023535e+002, 1.982522e+002
7.028356e+002, 1.987749e+002
7.033177e+002, 2.009114e+002
7.037998e+002, 2.028656e+002
7.042819e+002, 2.038638e+002
7.047640e+002, 2.044646e+002
7.052462e+002, 2.050754e+002
7.057283e+002, 2.056533e+002
7.062104e+002, 2.063445e+002
7.066925e+002, 2.070525e+002
7.071746e+002, 2.079839e+002
7.076567e+002, 2.096029e+002
7.081389e+002, 2.119498e+002
7.086210e+002, 2.135239e+002
7.091031e+002, 2.139942e+002
7.095852e+002, 2.140234e+002
7.100673e+002, 2.144332e+002
7.105494e+002, 2.151143e+002
7.110316e+002, 2.158069e+002
7.115137e+002, 2.163820e+002
7.119958e+002, 2.170036e+002
7.124779e+002, 2.178968e+002
7.129600e+002, 2.189080e+002
7.134421e+002, 2.197337e+002
7.139243e+002, 2.203169e+002
7.144064e+002, 2.207021e+002
7.148885e+002, 2.209031e+002
7.153706e+002, 2.209258e+002
7.158527e+002, 2.207297e+002
7.163348e+002, 2.202306e+002
7.168170e+002, 2.198150e+002
7.172991e+002, 2.196550e+002
7.177812e+002, 2.196553e+002
7.182633e+002, 2.196269e+002
7.187454e+002, 2.195378e+002
7.192275e+002, 2.191091e+002
7.197097e+002, 2.179411e+002
7.201918e+002, 2.164908e+002
7.206739e+002, 2.152032e+002
7.211560e+002, 2.140902e+002
7.216381e+002, 2.130364e+002
7.221202e+002, 2.118975e+002
7.226024e+002, 2.108958e+002
7.230845e+002, 2.102663e+002
7.235666e+002, 2.101053e+002
7.240487e+002, 2.095098e+002
7.245308e+002, 2.081409e+002
7.250129e+002, 2.068618e+002
7.254951e+002, 2.062783e+002
7.259772e+002, 2.064185e+002
7.264593e+002, 2.063777e+002
7.269414e+002, 2.061494e+002
7.274235e+002, 2.057624e+002
7.279056e+002, 2.049880e+002
7.283878e+002, 2.041371e+002
7.288699e+002, 2.039367e+002
7.293520e+002, 2.045974e+002
7.298341e+002, 2.051268e+002
7.303162e+002, 2.045505e+002
7.307983e+002, 2.037013e+002
7.312805e+002, 2.034044e+002
7.317626e+002, 2.043196e+002
7.322447e+002, 2.048625e+002
7.327268e+002, 2.047436e+002
7.332089e+002, 2.043592e+002
7.336910e+002, 2.041427e+002
7.341732e+002, 2.041341e+002
7.346553e+002, 2.040236e+002
7.351374e+002, 2.036749e+002
7.356195e+002, 2.034444e+002
7.361016e+002, 2.042553e+002
7.365837e+002, 2.056985e+002
7.370659e+002, 2.062695e+002
7.375480e+002, 2.051075e+002
7.380301e+002, 2.036963e+002
7.385122e+002, 2.033329e+002
7.389943e+002, 2.036153e+002
7.394764e+002, 2.038616e+002
7.399586e+002, 2.038589e+002
7.404407e+002, 2.038021e+002
7.409228e+002, 2.036544e+002
7.414049e+002, 2.035030e+002
7.418870e+002, 2.035702e+002
7.423691e+002, 2.039514e+002
7.428513e+002, 2.042731e+002
7.433334e+002, 2.044269e+002
7.438155e+002, 2.044747e+002
7.442976e+002, 2.046395e+002
7.447797e+002, 2.048908e+002
7.452618e+002, 2.049459e+002
7.457440e+002, 2.043175e+002
7.462261e+002, 2.036764e+002
7.467082e+002, 2.038598e+002
7.471903e+002, 2.046835e+002
7.476724e+002, 2.054710e+002
7.481545e+002, 2.059192e+002
7.486367e+002, 2.062914e+002
7.491188e+002, 2.067412e+002
7.496009e+002, 2.072513e+002
7.500830e+002, 2.075214e+002
7.505651e+002, 2.074153e+002
7.510472e+002, 2.073653e+002
7.515294e+002, 2.076426e+002
7.520115e+002, 2.081584e+002
7.524936e+002, 2.082076e+002
7.529757e+002, 2.077951e+002
7.534578e+002, 2.073966e+002
7.539399e+002, 2.072395e+002
7.544221e+002, 2.073552e+002
7.549042e+002, 2.079700e+002
7.553863e+002, 2.090500e+002
7.558684e+002, 2.098685e+002
7.563505e+002, 2.098012e+002
7.568326e+002, 2.095799e+002
7.573148e+002, 2.095737e+002
7.577969e+002, 2.097848e+002
7.582790e+002, 2.105128e+002
7.587611e+002, 2.122607e+002
7.592432e+002, 2.137342e+002
7.597253e+002, 2.139013e+002
7.602075e+002, 2.127578e+002
7.606896e+002, 2.122267e+002
7.611717e+002, 2.123622e+002
7.616538e+002, 2.126666e+002
7.621359e+002, 2.124837e+002
7.626180e+002, 2.122611e+002
7.631002e+002, 2.128900e+002
7.635823e+002, 2.145787e+002
7.640644e+002, 2.160612e+002
7.645465e+002, 2.165656e+002
7.650286e+002, 2.166739e+002
7.655107e+002, 2.168377e+002
7.659929e+002, 2.170970e+002
7.664750e+002, 2.174555e+002
7.669571e+002, 2.179601e+002
7.674392e+002, 2.185090e+002
7.679213e+002, 2.190155e+002
7.684034e+002, 2.194782e+002
7.688856e+002, 2.198786e+002
7.693677e+002, 2.201738e+002
7.698498e+002, 2.206109e+002
7.703319e+002, 2.216064e+002
7.708140e+002, 2.228897e+002
7.712961e+002, 2.240049e+002
7.717783e+002, 2.248588e+002
7.722604e+002, 2.255191e+002
7.727425e+002, 2.258257e+002
7.732246e+002, 2.260538e+002
7.737067e+002, 2.265052e+002
7.741888e+002, 2.276758e+002
7.746710e+002, 2.282939e+002
7.751531e+002, 2.281384e+002
7.756352e+002, 2.276923e+002
7.761173e+002, 2.275469e+002
7.765994e+002, 2.277045e+002
7.770815e+002, 2.278696e+002
7.775637e+002, 2.280409e+002
7.780458e+002, 2.280576e+002
7.785279e+002, 2.275368e+002
7.790100e+002, 2.267637e+002
7.794921e+002, 2.262542e+002
7.799742e+002, 2.262146e+002
7.804564e+002, 2.263502e+002
7.809385e+002, 2.264526e+002
7.814206e+002, 2.266775e+002
7.819027e+002, 2.273004e+002
7.823848e+002, 2.290079e+002
7.828669e+002, 2.297861e+002
7.833491e+002, 2.291575e+002
7.838312e+002, 2.279181e+002
7.843133e+002, 2.273627e+002
7.847954e+002, 2.274539e+002
7.852775e+002, 2.274822e+002
7.857596e+002, 2.272685e+002
7.862418e+002, 2.269843e+002
7.867239e+002, 2.267705e+002
7.872060e+002, 2.266526e+002
7.876881e+002, 2.266854e+002
7.881702e+002, 2.271340e+002
7.886523e+002, 2.274053e+002
7.891345e+002, 2.270429e+002
7.896166e+002, 2.264512e+002
7.900987e+002, 2.263485e+002
7.905808e+002, 2.271170e+002
7.910629e+002, 2.275281e+002
7.915450e+002, 2.272652e+002
7.920272e+002, 2.267717e+002
7.925093e+002, 2.268808e+002
7.929914e+002, 2.275430e+002
7.934735e+002, 2.284388e+002
7.939556e+002, 2.297039e+002
7.944377e+002, 2.307214e+002
7.949199e+002, 2.305092e+002
7.954020e+002, 2.296168e+002
7.958841e+002, 2.290478e+002
7.963662e+002, 2.294167e+002
7.968483e+002, 2.298137e+002
7.973304e+002, 2.300683e+002
7.978126e+002, 2.301777e+002
7.982947e+002, 2.300979e+002
7.987768e+002, 2.297191e+002
7.992589e+002, 2.294980e+002
7.997410e+002, 2.295727e+002
8.002231e+002, 2.297557e+002
8.007053e+002, 2.299027e+002
8.011874e+002, 2.299078e+002
8.016695e+002, 2.292254e+002
8.021516e+002, 2.272248e+002
8.026337e+002, 2.252319e+002
8.031158e+002, 2.246157e+002
8.035980e+002, 2.247614e+002
8.040801e+002, 2.245741e+002
8.045622e+002, 2.231694e+002
8.050443e+002, 2.221663e+002
8.055264e+002, 2.220408e+002
8.060085e+002, 2.223355e+002
8.064907e+002, 2.221316e+002
8.069728e+002, 2.212899e+002
8.074549e+002, 2.208667e+002
8.079370e+002, 2.212554e+002
8.084191e+002, 2.218156e+002
8.089012e+002, 2.212664e+002
8.093834e+002, 2.200202e+002
8.098655e+002, 2.192229e+002
8.103476e+002, 2.196174e+002
8.108297e+002, 2.200936e+002
8.113118e+002, 2.198786e+002
8.117939e+002, 2.193373e+002
8.122761e+002, 2.190967e+002
8.127582e+002, 2.195447e+002
8.132403e+002, 2.198496e+002
8.137224e+002, 2.199408e+002
8.142045e+002, 2.198459e+002
8.146866e+002, 2.194909e+002
8.151688e+002, 2.188948e+002
8.156509e+002, 2.186512e+002
8.161330e+002, 2.190007e+002
8.166151e+002, 2.195334e+002
8.170972e+002, 2.198132e+002
8.175793e+002, 2.198822e+002
8.180615e+002, 2.198088e+002
8.185436e+002, 2.192944e+002
8.190257e+002, 2.190781e+002
8.195078e+002, 2.197318e+002
8.199899e+002, 2.207153e+002
8.204720e+002, 2.211590e+002
8.209542e+002, 2.207409e+002
8.214363e+002, 2.206781e+002
8.219184e+002, 2.212896e+002
8.224005e+002, 2.220041e+002
8.228826e+002, 2.216514e+002
8.233647e+002, 2.205373e+002
8.238469e+002, 2.201243e+002
8.243290e+002, 2.210239e+002
8.248111e+002, 2.220159e+002
8.252932e+002, 2.219219e+002
8.257753e+002, 2.213242e+002
8.262574e+002, 2.210202e+002
8.267396e+002, 2.213553e+002
8.272217e+002, 2.217986e+002
8.277038e+002, 2.224146e+002
8.281859e+002, 2.230251e+002
8.286681e+002, 2.233947e+002
8.291502e+002, 2.234859e+002
8.296323e+002, 2.236346e+002
8.301144e+002, 2.238820e+002
8.305966e+002, 2.241817e+002
8.310787e+002, 2.245289e+002
8.315608e+002, 2.248734e+002
8.320429e+002, 2.251026e+002
8.325250e+002, 2.251218e+002
8.330071e+002, 2.252092e+002
8.334893e+002, 2.258726e+002
8.339714e+002, 2.264732e+002
8.344535e+002, 2.262741e+002
8.349356e+002, 2.245957e+002
8.354177e+002, 2.236039e+002
8.358998e+002, 2.235309e+002
8.363820e+002, 2.237550e+002
8.368641e+002, 2.235854e+002
8.373462e+002, 2.231081e+002
8.378283e+002, 2.229074e+002
8.383104e+002, 2.230818e+002
8.387925e+002, 2.232934e+002
8.392747e+002, 2.231824e+002
8.397568e+002, 2.229865e+002
8.402389e+002, 2.230129e+002
8.407210e+002, 2.234326e+002
8.412031e+002, 2.236248e+002
8.416852e+002, 2.234281e+002
8.421674e+002, 2.229798e+002
8.426495e+002, 2.221564e+002
8.431316e+002, 2.207344e+002
8.436137e+002, 2.206300e+002
8.440958e+002, 2.220368e+002
8.445779e+002, 2.235895e+002
8.450601e+002, 2.241578e+002
8.455422e+002, 2.239927e+002
8.460243e+002, 2.233524e+002
8.465064e+002, 2.222614e+002
8.469885e+002, 2.215116e+002
8.474706e+002, 2.217404e+002
8.479528e+002, 2.222798e+002
8.484349e+002, 2.227715e+002
8.489170e+002, 2.232178e+002
8.493991e+002, 2.233848e+002
8.498812e+002, 2.230647e+002
8.503633e+002, 2.229733e+002
8.508455e+002, 2.238608e+002
8.513276e+002, 2.254073e+002
8.518097e+002, 2.255284e+002
8.522918e+002, 2.243474e+002
8.527739e+002, 2.235322e+002
8.532560e+002, 2.246848e+002
8.537382e+002, 2.262798e+002
8.542203e+002, 2.269967e+002
8.547024e+002, 2.268505e+002
8.551845e+002, 2.269216e+002
8.556666e+002, 2.275913e+002
8.561487e+002, 2.283027e+002
8.566309e+002, 2.289445e+002
8.571130e+002, 2.294842e+002
8.575951e+002, 2.297872e+002
8.580772e+002, 2.298548e+002
8.585593e+002, 2.297510e+002
8.590414e+002, 2.291523e+002
8.595236e+002, 2.286766e+002
8.600057e+002, 2.296226e+002
8.604878e+002, 2.315068e+002
8.609699e+002, 2.327876e+002
8.614520e+002, 2.319213e+002
8.619341e+002, 2.313510e+002
8.624163e+002, 2.325255e+002
8.628984e+002, 2.345837e+002
8.633805e+002, 2.350755e+002
8.638626e+002, 2.333944e+002
8.643447e+002, 2.326408e+002
8.648268e+002, 2.339783e+002
8.653090e+002, 2.360571e+002
8.657911e+002, 2.361287e+002
8.662732e+002, 2.347957e+002
8.667553e+002, 2.338327e+002
8.672374e+002, 2.341020e+002
8.677195e+002, 2.345794e+002
8.682017e+002, 2.348556e+002
8.686838e+002, 2.349151e+002
8.691659e+002, 2.346955e+002
8.696480e+002, 2.340480e+002
8.701301e+002, 2.334409e+002
8.706122e+002, 2.328955e+002
8.710944e+002, 2.324413e+002
8.715765e+002, 2.322659e+002
8.720586e+002, 2.322712e+002
8.725407e+002, 2.318037e+002
8.730228e+002, 2.306541e+002
8.735049e+002, 2.294740e+002
8.739871e+002, 2.286565e+002
8.744692e+002, 2.282024e+002
8.749513e+002, 2.281849e+002
8.754334e+002, 2.289846e+002
8.759155e+002, 2.292778e+002
8.763976e+002, 2.285978e+002
8.768798e+002, 2.278365e+002
8.773619e+002, 2.278096e+002
8.778440e+002, 2.285566e+002
8.783261e+002, 2.285610e+002
8.788082e+002, 2.277014e+002
8.792903e+002, 2.269897e+002
8.797725e+002, 2.277361e+002
8.802546e+002, 2.288892e+002
8.807367e+002, 2.289452e+002
8.812188e+002, 2.277456e+002
8.817009e+002, 2.269052e+002
8.821830e+002, 2.275599e+002
8.826652e+002, 2.281328e+002
8.831473e+002, 2.277168e+002
8.836294e+002, 2.263670e+002
8.841115e+002, 2.258438e+002
8.845936e+002, 2.262267e+002
8.850757e+002, 2.268761e+002
8.855579e+002, 2.276282e+002
8.860400e+002, 2.283069e+002
8.865221e+002, 2.285494e+002
8.870042e+002, 2.284120e+002
8.874863e+002, 2.281466e+002
8.879684e+002, 2.276872e+002
8.884506e+002, 2.273122e+002
8.889327e+002, 2.270367e+002
8.894148e+002, 2.269380e+002
8.898969e+002, 2.274168e+002
8.903790e+002, 2.288186e+002
8.908611e+002, 2.295089e+002
8.913433e+002, 2.288598e+002
8.918254e+002, 2.275806e+002
8.923075e+002, 2.267472e+002
8.927896e+002, 2.263859e+002
8.932717e+002, 2.266285e+002
8.937538e+002, 2.279729e+002
8.942360e+002, 2.292213e+002
8.947181e+002, 2.296237e+002
8.952002e+002, 2.295484e+002
8.956823e+002, 2.295261e+002
8.961644e+002, 2.297366e+002
8.966465e+002, 2.296643e+002
8.971287e+002, 2.292215e+002
8.976108e+002, 2.286110e+002
8.980929e+002, 2.276482e+002
8.985750e+002, 2.266906e+002
8.990571e+002, 2.275025e+002
8.995392e+002, 2.306084e+002
9.000214e+002, 2.332905e+002
9.005035e+002, 2.332839e+002
9.009856e+002, 2.321273e+002
9.014677e+002, 2.309941e+002
9.019498e+002, 2.298666e+002
9.024319e+002, 2.296437e+002
9.029141e+002, 2.307197e+002
9.033962e+002, 2.319858e+002
9.038783e+002, 2.328461e+002
9.043604e+002, 2.333017e+002
9.048425e+002, 2.331777e+002
9.053246e+002, 2.325247e+002
9.058068e+002, 2.322319e+002
9.062889e+002, 2.332939e+002
9.067710e+002, 2.346274e+002
9.072531e+002, 2.354544e+002
9.077352e+002, 2.357667e+002
9.082173e+002, 2.358390e+002
9.086995e+002, 2.354191e+002
9.091816e+002, 2.352558e+002
9.096637e+002, 2.356593e+002
9.101458e+002, 2.364059e+002
9.106279e+002, 2.367931e+002
9.111100e+002, 2.368537e+002
9.115922e+002, 2.368374e+002
9.120743e+002, 2.365899e+002
9.125564e+002, 2.366855e+002
9.130385e+002, 2.379793e+002
9.135206e+002, 2.399207e+002
9.140027e+002, 2.415857e+002
9.144849e+002, 2.425497e+002
9.149670e+002, 2.434473e+002
9.154491e+002, 2.441183e+002
9.159312e+002, 2.449701e+002
9.164133e+002, 2.468138e+002
9.168954e+002, 2.495622e+002
9.173776e+002, 2.513287e+002
9.178597e+002, 2.517764e+002
9.183418e+002, 2.520674e+002
9.188239e+002, 2.532823e+002
9.193060e+002, 2.549391e+002
9.197881e+002, 2.564720e+002
9.202703e+002, 2.577061e+002
9.207524e+002, 2.593125e+002
9.212345e+002, 2.617099e+002
9.217166e+002, 2.640613e+002
9.221987e+002, 2.658857e+002
9.226808e+002, 2.672132e+002
9.231630e+002, 2.686070e+002
9.236451e+002, 2.700741e+002
9.241272e+002, 2.713950e+002
9.246093e+002, 2.722329e+002
9.250914e+002, 2.730064e+002
9.255735e+002, 2.740281e+002
9.260557e+002, 2.753321e+002
9.265378e+002, 2.770353e+002
9.270199e+002, 2.798289e+002
9.275020e+002, 2.822022e+002
9.279841e+002, 2.837506e+002
9.284662e+002, 2.847361e+002
9.289484e+002, 2.859380e+002
9.294305e+002, 2.873197e+002
9.299126e+002, 2.881519e+002
9.303947e+002, 2.880386e+002
9.308768e+002, 2.876555e+002
9.313589e+002, 2.875840e+002
9.318411e+002, 2.877517e+002
9.323232e+002, 2.880837e+002
9.328053e+002, 2.890569e+002
9.332874e+002, 2.892959e+002
9.337695e+002, 2.882270e+002
9.342516e+002, 2.869986e+002
9.347338e+002, 2.868077e+002
9.352159e+002, 2.876170e+002
9.356980e+002, 2.883058e+002
9.361801e+002, 2.888195e+002
9.366622e+002, 2.890503e+002
9.371443e+002, 2.883204e+002
9.376265e+002, 2.876556e+002
9.381086e+002, 2.882566e+002
9.385907e+002, 2.902459e+002
9.390728e+002, 2.920103e+002
9.395549e+002, 2.929885e+002
9.400370e+002, 2.941137e+002
9.405192e+002, 2.958057e+002
9.410013e+002, 2.978922e+002
9.414834e+002, 2.993081e+002
9.419655e+002, 3.001879e+002
9.424476e+002, 3.018703e+002
9.429297e+002, 3.057328e+002
9.434119e+002, 3.098945e+002
9.438940e+002, 3.127428e+002
9.443761e+002, 3.146844e+002
9.448582e+002, 3.165375e+002
9.453403e+002, 3.179413e+002
9.458224e+002, 3.201801e+002
9.463046e+002, 3.238265e+002
9.467867e+002, 3.277397e+002
9.472688e+002, 3.299798e+002
9.477509e+002, 3.308831e+002
9.482330e+002, 3.324068e+002
9.487151e+002, 3.348915e+002
9.491973e+002, 3.376982e+002
9.496794e+002, 3.411775e+002
9.501615e+002, 3.441573e+002
9.506436e+002, 3.454147e+002
9.511257e+002, 3.443709e+002
9.516078e+002, 3.434054e+002
9.520900e+002, 3.425653e+002
9.525721e+002, 3.417891e+002
9.530542e+002, 3.411580e+002
9.535363e+002, 3.405584e+002
9.540184e+002, 3.393881e+002
9.545005e+002, 3.377460e+002
9.549827e+002, 3.361592e+002
9.554648e+002, 3.352402e+002
9.559469e+002, 3.341714e+002
9.564290e+002, 3.320507e+002
9.569111e+002, 3.293887e+002
9.573932e+002, 3.277971e+002
9.578754e+002, 3.277044e+002
9.583575e+002, 3.276366e+002
9.588396e+002, 3.273423e+002
9.593217e+002, 3.269578e+002
9.598038e+002, 3.266675e+002
9.602859e+002, 3.264637e+002
9.607681e+002, 3.263711e+002
9.612502e+002, 3.264424e+002
9.617323e+002, 3.264105e+002
9.622144e+002, 3.259028e+002
9.626965e+002, 3.253880e+002
9.631786e+002, 3.252264e+002
9.636608e+002, 3.254028e+002
9.641429e+002, 3.261549e+002
9.646250e+002, 3.276305e+002
9.651071e+002, 3.289936e+002
9.655892e+002, 3.294322e+002
9.660714e+002, 3.294457e+002
9.665535e+002, 3.301716e+002
9.670356e+002, 3.314467e+002
9.675177e+002, 3.323897e+002
9.679998e+002, 3.318040e+002
9.684819e+002, 3.317026e+002
9.689641e+002, 3.331515e+002
9.694462e+002, 3.355218e+002
9.699283e+002, 3.374595e+002
9.704104e+002, 3.389755e+002
9.708925e+002, 3.399213e+002
9.713746e+002, 3.402530e+002
9.718568e+002, 3.400597e+002
9.723389e+002, 3.392881e+002
9.728210e+002, 3.381279e+002
9.733031e+002, 3.368926e+002
9.737852e+002, 3.357735e+002
9.742673e+002, 3.342343e+002
9.747495e+002, 3.320204e+002
9.752316e+002, 3.295078e+002
9.757137e+002, 3.268166e+002
9.761958e+002, 3.239249e+002
9.766779e+002, 3.214719e+002
9.771600e+002, 3.194464e+002
9.776422e+002, 3.177283e+002
9.781243e+002, 3.162475e+002
9.786064e+002, 3.149698e+002
9.790885e+002, 3.138306e+002
9.795706e+002, 3.128576e+002
9.800527e+002, 3.121757e+002
9.805349e+002, 3.118739e+002
9.810170e+002, 3.117708e+002
9.814991e+002, 3.119243e+002
9.819812e+002, 3.121454e+002
9.824633e+002, 3.120728e+002
9.829454e+002, 3.117409e+002
9.834276e+002, 3.112477e+002
9.839097e+002, 3.105477e+002
9.843918e+002, 3.099223e+002
9.848739e+002, 3.095508e+002
9.853560e+002, 3.093458e+002
9.858381e+002, 3.091206e+002
9.863203e+002, 3.085988e+002
9.868024e+002, 3.093308e+002
9.872845e+002, 3.116845e+002
9.877666e+002, 3.140378e+002
9.882487e+002, 3.150356e+002
9.887308e+002, 3.152725e+002
9.892130e+002, 3.161807e+002
9.896951e+002, 3.176337e+002
9.901772e+002, 3.189477e+002
9.906593e+002, 3.193057e+002
9.911414e+002, 3.200157e+002
9.916235e+002, 3.218042e+002
9.921057e+002, 3.241981e+002
9.925878e+002, 3.263844e+002
9.930699e+002, 3.283941e+002
9.935520e+002, 3.297552e+002
9.940341e+002, 3.302047e+002
9.945162e+002, 3.306493e+002
9.949984e+002, 3.322187e+002
9.954805e+002, 3.344116e+002
9.959626e+002, 3.366367e+002
9.964447e+002, 3.389086e+002
9.969268e+002, 3.407309e+002
9.974089e+002, 3.419464e+002
9.978911e+002, 3.428338e+002
9.983732e+002, 3.436347e+002
9.988553e+002, 3.442640e+002
9.993374e+002, 3.439026e+002
9.998195e+002, 3.426438e+002
1.000302e+003, 3.414087e+002
1.000784e+003, 3.410065e+002
1.001266e+003, 3.405450e+002
1.001748e+003, 3.388889e+002
1.002230e+003, 3.367339e+002
1.002712e+003, 3.360511e+002
1.003194e+003, 3.378152e+002
1.003676e+003, 3.387285e+002
1.004159e+003, 3.382512e+002
1.004641e+003, 3.371302e+002
1.005123e+003, 3.364412e+002
1.005605e+003, 3.358569e+002
1.006087e+003, 3.342987e+002
1.006569e+003, 3.314014e+002
1.007051e+003, 3.293768e+002
1.007533e+003, 3.299205e+002
1.008016e+003, 3.310435e+002
1.008498e+003, 3.318453e+002
1.008980e+003, 3.322706e+002
1.009462e+003, 3.312383e+002
1.009944e+003, 3.286357e+002
1.010426e+003, 3.262361e+002
1.010908e+003, 3.248041e+002
1.011390e+003, 3.241578e+002
1.011872e+003, 3.242867e+002
1.012355e+003, 3.250121e+002
1.012837e+003, 3.259635e+002
1.013319e+003, 3.278717e+002
1.013801e+003, 3.287312e+002
1.014283e+003, 3.279756e+002
1.014765e+003, 3.267692e+002
1.015247e+003, 3.264893e+002
1.015729e+003, 3.269285e+002
1.016211e+003, 3.268301e+002
1.016694e+003, 3.260999e+002
1.017176e+003, 3.254997e+002
1.017658e+003, 3.252023e+002
1.018140e+003, 3.255295e+002
1.018622e+003, 3.270554e+002
1.019104e+003, 3.295879e+002
1.019586e+003, 3.313616e+002
1.020068e+003, 3.321368e+002
1.020551e+003, 3.331724e+002
1.021033e+003, 3.349650e+002
1.021515e+003, 3.370400e+002
1.021997e+003, 3.385710e+002
1.022479e+003, 3.398003e+002
1.022961e+003, 3.411597e+002
1.023443e+003, 3.427050e+002
1.023925e+003, 3.445386e+002
1.024407e+003, 3.467606e+002
1.024890e+003, 3.492070e+002
1.025372e+003, 3.519285e+002
1.025854e+003, 3.549015e+002
1.026336e+003, 3.571817e+002
1.026818e+003, 3.587854e+002
1.027300e+003, 3.602049e+002
1.027782e+003, 3.614365e+002
1.028264e+003, 3.629420e+002
1.028746e+003, 3.654216e+002
1.029229e+003, 3.685347e+002
1.029711e+003, 3.709738e+002
1.030193e+003, 3.725844e+002
1.030675e+003, 3.737910e+002
1.031157e+003, 3.746124e+002
1.031639e+003, 3.751792e+002
1.032121e+003, 3.753913e+002
1.032603e+003, 3.755652e+002
1.033086e+003, 3.766880e+002
1.033568e+003, 3.791585e+002
1.034050e+003, 3.808195e+002
1.034532e+003, 3.796429e+002
1.035014e+003, 3.784396e+002
1.035496e+003, 3.791303e+002
1.035978e+003, 3.813778e+002
1.036460e+003, 3.812679e+002
1.036943e+003, 3.788383e+002
1.037425e+003, 3.761875e+002
1.037907e+003, 3.743258e+002
1.038389e+003, 3.727106e+002
1.038871e+003, 3.710462e+002
1.039353e+003, 3.692249e+002
1.039835e+003, 3.670640e+002
1.040317e+003, 3.641923e+002
1.040799e+003, 3.617042e+002
1.041281e+003, 3.598284e+002
1.041764e+003, 3.578157e+002
1.042246e+003, 3.549137e+002
1.042728e+003, 3.512828e+002
1.043210e+003, 3.472783e+002
1.043692e+003, 3.429140e+002
1.044174e+003, 3.386768e+002
1.044656e+003, 3.346391e+002
1.045138e+003, 3.309249e+002
1.045621e+003, 3.278266e+002
1.046103e+003, 3.250427e+002
1.046585e+003, 3.215794e+002
1.047067e+003, 3.174362e+002
1.047549e+003, 3.135829e+002
1.048031e+003, 3.103763e+002
1.048513e+003, 3.073018e+002
1.048995e+003, 3.037050e+002
1.049478e+003, 3.000930e+002
1.049960e+003, 2.970028e+002
1.050442e+003, 2.945457e+002
1.050924e+003, 2.927839e+002
1.051406e+003, 2.920934e+002
1.051888e+003, 2.911036e+002
1.052370e+003, 2.885748e+002
1.052852e+003, 2.854149e+002
1.053334e+003, 2.841984e+002
1.053817e+003, 2.844604e+002
1.054299e+003, 2.846609e+002
1.054781e+003, 2.841637e+002
1.055263e+003, 2.834239e+002
1.055745e+003, 2.824631e+002
1.056227e+003, 2.813949e+002
1.056709e+003, 2.802889e+002
1.057191e+003, 2.791405e+002
1.057673e+003, 2.781897e+002
1.058156e+003, 2.774491e+002
1.058638e+003, 2.769882e+002
1.059120e+003, 2.769506e+002
1.059602e+003, 2.771402e+002
1.060084e+003, 2.775490e+002
1.060566e+003, 2.781062e+002
1.061048e+003, 2.782467e+002
1.061530e+003, 2.778721e+002
1.062013e+003, 2.773074e+002
1.062495e+003, 2.764931e+002
1.062977e+003, 2.758253e+002
1.063459e+003, 2.760998e+002
1.063941e+003, 2.769490e+002
1.064423e+003, 2.776286e+002
1.064905e+003, 2.778665e+002
1.065387e+003, 2.783322e+002
1.065870e+003, 2.795817e+002
1.066352e+003, 2.807162e+002
1.066834e+003, 2.810660e+002
1.067316e+003, 2.808377e+002
1.067798e+003, 2.818830e+002
1.068280e+003, 2.840630e+002
1.068762e+003, 2.861161e+002
1.069244e+003, 2.871312e+002
1.069726e+003, 2.881070e+002
1.070208e+003, 2.899297e+002
1.070691e+003, 2.920106e+002
1.071173e+003, 2.932410e+002
1.071655e+003, 2.930929e+002
1.072137e+003, 2.941082e+002
1.072619e+003, 2.965341e+002
1.073101e+003, 2.995127e+002
1.073583e+003, 3.024904e+002
1.074065e+003, 3.053974e+002
1.074548e+003, 3.080663e+002
1.075030e+003, 3.105341e+002
1.075512e+003, 3.133039e+002
1.075994e+003, 3.168223e+002
1.076476e+003, 3.200873e+002
1.076958e+003, 3.227024e+002
1.077440e+003, 3.251787e+002
1.077922e+003, 3.282720e+002
1.078405e+003, 3.320269e+002
1.078887e+003, 3.367192e+002
1.079369e+003, 3.425820e+002
1.079851e+003, 3.485116e+002
1.080333e+003, 3.535288e+002
1.080815e+003, 3.588453e+002
1.081297e+003, 3.651866e+002
1.081779e+003, 3.724626e+002
1.082261e+003, 3.793154e+002
1.082744e+003, 3.858085e+002
1.083226e+003, 3.930619e+002
1.083708e+003, 4.019392e+002
1.084190e+003, 4.112242e+002
1.084672e+003, 4.195176e+002
1.085154e+003, 4.275854e+002
1.085636e+003, 4.365664e+002
1.086118e+003, 4.465172e+002
1.086601e+003, 4.576105e+002
1.087083e+003, 4.700531e+002
1.087565e+003, 4.828973e+002
1.088047e+003, 4.954456e+002
1.088529e+003, 5.078466e+002
1.089011e+003, 5.207808e+002
1.089493e+003, 5.340140e+002
1.089975e+003, 5.468365e+002
1.090458e+003, 5.581060e+002
1.090940e+003, 5.700898e+002
1.091422e+003, 5.833942e+002
1.091904e+003, 5.971835e+002
1.092386e+003, 6.103676e+002
1.092868e+003, 6.228264e+002
1.093350e+003, 6.333864e+002
1.093832e+003, 6.418479e+002
1.094314e+003, 6.504385e+002
1.094797e+003, 6.626088e+002
1.095279e+003, 6.732634e+002
1.095761e+003, 6.789446e+002
1.096243e+003, 6.806131e+002
1.096725e+003, 6.823926e+002
1.097207e+003, 6.843083e+002
1.097689e+003, 6.850644e+002
1.098171e+003, 6.845447e+002
1.098653e+003, 6.819313e+002
1.099136e+003, 6.758970e+002
1.099618e+003, 6.675950e+002
1.100100e+003, 6.578098e+002
1.100582e+003, 6.461393e+002
1.101064e+003, 6.362069e+002
1.101546e+003, 6.285999e+002
1.102028e+003, 6.204778e+002
1.102510e+003, 6.099308e+002
1.102993e+003, 5.980680e+002
1.103475e+003, 5.864265e+002
1.103957e+003, 5.750359e+002
1.104439e+003, 5.640258e+002
1.104921e+003, 5.537267e+002
1.105403e+003, 5.435605e+002
1.105885e+003, 5.333821e+002
1.106367e+003, 5.236033e+002
1.106849e+003, 5.147828e+002
1.107332e+003, 5.067984e+002
1.107814e+003, 4.994289e+002
1.108296e+003, 4.925033e+002
1.108778e+003, 4.852880e+002
1.109260e+003, 4.765927e+002
1.109742e+003, 4.683710e+002
1.110224e+003, 4.615708e+002
1.110706e+003, 4.555565e+002
1.111188e+003, 4.491640e+002
1.111671e+003, 4.423618e+002
1.112153e+003, 4.355468e+002
1.112635e+003, 4.286685e+002
1.113117e+003, 4.223200e+002
1.113599e+003, 4.174427e+002
1.114081e+003, 4.128663e+002
1.114563e+003, 4.076117e+002
1.115045e+003, 4.017695e+002
1.115528e+003, 3.966989e+002
1.116010e+003, 3.924662e+002
1.116492e+003, 3.882746e+002
1.116974e+003, 3.838221e+002
1.117456e+003, 3.794485e+002
1.117938e+003, 3.756120e+002
1.118420e+003, 3.720845e+002
1.118902e+003, 3.686117e+002
1.119385e+003, 3.651906e+002
1.119867e+003, 3.615971e+002
1.120349e+003, 3.578913e+002
1.120831e+003, 3.538385e+002
1.121313e+003, 3.492146e+002
1.121795e+003, 3.443055e+002
1.122277e+003, 3.394807e+002
1.122759e+003, 3.348117e+002
1.123241e+003, 3.304576e+002
1.123724e+003, 3.263576e+002
1.124206e+003, 3.228547e+002
1.124688e+003, 3.201789e+002
1.125170e+003, 3.177952e+002
1.125652e+003, 3.155082e+002
1.126134e+003, 3.131945e+002
1.126616e+003, 3.098979e+002
1.127098e+003, 3.058336e+002
1.127580e+003, 3.023194e+002
1.128063e+003, 3.003412e+002
1.128545e+003, 2.987194e+002
1.129027e+003, 2.971937e+002
1.129509e+003, 2.956440e+002
1.129991e+003, 2.939939e+002
1.130473e+003, 2.922306e+002
1.130955e+003, 2.898683e+002
1.131437e+003, 2.868314e+002
1.131920e+003, 2.841460e+002
1.132402e+003, 2.827577e+002
1.132884e+003, 2.817782e+002
1.133366e+003, 2.806374e+002
1.133848e+003, 2.793741e+002
1.134330e+003, 2.781984e+002
1.134812e+003, 2.771212e+002
1.135294e+003, 2.760101e+002
1.135776e+003, 2.748184e+002
1.136259e+003, 2.737165e+002
1.136741e+003, 2.732138e+002
1.137223e+003, 2.726576e+002
1.137705e+003, 2.711454e+002
1.138187e+003, 2.685354e+002
1.138669e+003, 2.666850e+002
1.139151e+003, 2.656753e+002
1.139633e+003, 2.652788e+002
1.140115e+003, 2.657091e+002
1.140598e+003, 2.661317e+002
1.141080e+003, 2.650810e+002
1.141562e+003, 2.632669e+002
1.142044e+003, 2.618300e+002
1.142526e+003, 2.612447e+002
1.143008e+003, 2.601532e+002
1.143490e+003, 2.579924e+002
1.143972e+003, 2.564202e+002
1.144455e+003, 2.567575e+002
1.144937e+003, 2.579829e+002
1.145419e+003, 2.573480e+002
1.145901e+003, 2.556046e+002
1.146383e+003, 2.546997e+002
1.146865e+003, 2.562982e+002
1.147347e+003, 2.571923e+002
1.147829e+003, 2.567313e+002
1.148312e+003, 2.557509e+002
1.148794e+003, 2.547518e+002
1.149276e+003, 2.537835e+002
1.149758e+003, 2.532314e+002
1.150240e+003, 2.530154e+002
1.150722e+003, 2.526990e+002
1.151204e+003, 2.516565e+002
1.151686e+003, 2.510123e+002
1.152168e+003, 2.516286e+002
1.152651e+003, 2.523805e+002
1.153133e+003, 2.516982e+002
1.153615e+003, 2.497840e+002
1.154097e+003, 2.487854e+002
1.154579e+003, 2.488266e+002
1.155061e+003, 2.490822e+002
1.155543e+003, 2.491517e+002
1.156025e+003, 2.491506e+002
1.156507e+003, 2.491571e+002
1.156990e+003, 2.491267e+002
1.157472e+003, 2.489375e+002
1.157954e+003, 2.485863e+002
1.158436e+003, 2.482889e+002
1.158918e+003, 2.480774e+002
1.159400e+003, 2.478675e+002
1.159882e+003, 2.475058e+002
1.160364e+003, 2.471930e+002
1.160847e+003, 2.471960e+002
1.161329e+003, 2.474079e+002
1.161811e+003, 2.472721e+002
1.162293e+003, 2.467690e+002
1.162775e+003, 2.460690e+002
1.163257e+003, 2.450852e+002
1.163739e+003, 2.444341e+002
1.164221e+003, 2.451856e+002
1.164703e+003, 2.462720e+002
1.165186e+003, 2.466026e+002
1.165668e+003, 2.460490e+002
1.166150e+003, 2.453135e+002
1.166632e+003, 2.443216e+002
1.167114e+003, 2.436761e+002
1.167596e+003, 2.437456e+002
1.168078e+003, 2.439545e+002
1.168560e+003, 2.432891e+002
1.169042e+003, 2.424359e+002
1.169525e+003, 2.424818e+002
1.170007e+003, 2.440551e+002
1.170489e+003, 2.445559e+002
1.170971e+003, 2.437176e+002
1.171453e+003, 2.427545e+002
1.171935e+003, 2.421499e+002
1.172417e+003, 2.419297e+002
1.172899e+003, 2.424107e+002
1.173382e+003, 2.432198e+002
1.173864e+003, 2.436663e+002
1.174346e+003, 2.433655e+002
1.174828e+003, 2.430935e+002
1.175310e+003, 2.428719e+002
1.175792e+003, 2.426297e+002
1.176274e+003, 2.422714e+002
1.176756e+003, 2.418792e+002
1.177239e+003, 2.416183e+002
1.177721e+003, 2.414483e+002
1.178203e+003, 2.412557e+002
1.178685e+003, 2.411773e+002
1.179167e+003, 2.407089e+002
1.179649e+003, 2.394688e+002
1.180131e+003, 2.386201e+002
1.180613e+003, 2.399185e+002
1.181095e+003, 2.421455e+002
1.181578e+003, 2.421969e+002
1.182060e+003, 2.405098e+002
1.182542e+003, 2.393032e+002
1.183024e+003, 2.399420e+002
1.183506e+003, 2.403604e+002
1.183988e+003, 2.402249e+002
1.184470e+003, 2.398542e+002
1.184952e+003, 2.394992e+002
1.185434e+003, 2.392297e+002
1.185917e+003, 2.393172e+002
1.186399e+003, 2.397245e+002
1.186881e+003, 2.400095e+002
1.187363e+003, 2.401133e+002
1.187845e+003, 2.397885e+002
1.188327e+003, 2.386181e+002
1.188809e+003, 2.375376e+002
1.189291e+003, 2.384353e+002
1.189774e+003, 2.405473e+002
1.190256e+003, 2.415933e+002
1.190738e+003, 2.413143e+002
1.191220e+003, 2.404442e+002
1.191702e+003, 2.383026e+002
1.192184e+003, 2.369264e+002
1.192666e+003, 2.371050e+002
1.193148e+003, 2.381876e+002
1.193630e+003, 2.393321e+002
1.194113e+003, 2.402686e+002
1.194595e+003, 2.397718e+002
1.195077e+003, 2.375001e+002
1.195559e+003, 2.356561e+002
1.196041e+003, 2.354833e+002
1.196523e+003, 2.357685e+002
1.197005e+003, 2.361863e+002
1.197487e+003, 2.366175e+002
1.197969e+003, 2.367180e+002
1.198452e+003, 2.365453e+002
1.198934e+003, 2.362510e+002
1.199416e+003, 2.357971e+002
1.199898e+003, 2.356199e+002
1.200380e+003, 2.362632e+002
1.200862e+003, 2.368574e+002
1.201344e+003, 2.370067e+002
1.201826e+003, 2.367824e+002
1.202309e+003, 2.362299e+002
1.202791e+003, 2.355034e+002
1.203273e+003, 2.353358e+002
1.203755e+003, 2.362234e+002
1.204237e+003, 2.368036e+002
1.204719e+003, 2.361860e+002
1.205201e+003, 2.353336e+002
1.205683e+003, 2.346459e+002
1.206166e+003, 2.341983e+002
1.206648e+003, 2.346829e+002
1.207130e+003, 2.357546e+002
1.207612e+003, 2.358668e+002
1.208094e+003, 2.339358e+002
1.208576e+003, 2.321093e+002
1.209058e+003, 2.309392e+002
1.209540e+003, 2.305948e+002
1.210022e+003, 2.315475e+002
1.210505e+003, 2.334731e+002
1.210987e+003, 2.342512e+002
1.211469e+003, 2.340576e+002
1.211951e+003, 2.336726e+002
1.212433e+003, 2.332549e+002
1.212915e+003, 2.329848e+002
1.213397e+003, 2.330073e+002
1.213879e+003, 2.331309e+002
1.214361e+003, 2.332097e+002
1.214844e+003, 2.332645e+002
1.215326e+003, 2.335168e+002
1.215808e+003, 2.339190e+002
1.216290e+003, 2.342397e+002
1.216772e+003, 2.343056e+002
1.217254e+003, 2.343526e+002
1.217736e+003, 2.345572e+002
1.218218e+003, 2.346557e+002
1.218701e+003, 2.343714e+002
1.219183e+003, 2.337602e+002
1.219665e+003, 2.330873e+002
1.220147e+003, 2.324145e+002
1.220629e+003, 2.320153e+002
1.221111e+003, 2.319982e+002
1.221593e+003, 2.323609e+002
1.222075e+003, 2.335769e+002
1.222557e+003, 2.346022e+002
1.223040e+003, 2.341800e+002
1.223522e+003, 2.326193e+002
1.224004e+003, 2.310419e+002
1.224486e+003, 2.296618e+002
1.224968e+003, 2.294906e+002
1.225450e+003, 2.326789e+002
1.225932e+003, 2.348574e+002
1.226414e+003, 2.346750e+002
1.226896e+003, 2.336108e+002
1.227379e+003, 2.333333e+002
1.227861e+003, 2.336068e+002
1.228343e+003, 2.335084e+002
1.228825e+003, 2.330690e+002
1.229307e+003, 2.328264e+002
1.229789e+003, 2.332048e+002
1.230271e+003, 2.335661e+002
1.230753e+003, 2.337605e+002
1.231236e+003, 2.338902e+002
1.231718e+003, 2.341021e+002
1.232200e+003, 2.343495e+002
1.232682e+003, 2.346397e+002
1.233164e+003, 2.349064e+002
1.233646e+003, 2.346420e+002
1.234128e+003, 2.326547e+002
1.234610e+003, 2.315788e+002
1.235093e+003, 2.321924e+002
1.235575e+003, 2.333838e+002
1.236057e+003, 2.336687e+002
1.236539e+003, 2.333887e+002
1.237021e+003, 2.331624e+002
1.237503e+003, 2.330791e+002
1.237985e+003, 2.334003e+002
1.238467e+003, 2.348497e+002
1.238949e+003, 2.356537e+002
1.239432e+003, 2.352854e+002
1.239914e+003, 2.346761e+002
1.240396e+003, 2.352913e+002
1.240878e+003, 2.365011e+002
1.241360e+003, 2.371130e+002
1.241842e+003, 2.370645e+002
1.242324e+003, 2.370518e+002
1.242806e+003, 2.373621e+002
1.243288e+003, 2.374034e+002
1.243771e+003, 2.370152e+002
1.244253e+003, 2.364500e+002
1.244735e+003, 2.358900e+002
1.245217e+003, 2.354430e+002
1.245699e+003, 2.351976e+002
1.246181e+003, 2.351838e+002
1.246663e+003, 2.357807e+002
1.247145e+003, 2.374742e+002
1.247628e+003, 2.382982e+002
1.248110e+003, 2.376445e+002
1.248592e+003, 2.366938e+002
1.249074e+003, 2.371689e+002
1.249556e+003, 2.380494e+002
1.250038e+003, 2.380239e+002
1.250520e+003, 2.370272e+002
1.251002e+003, 2.363236e+002
1.251484e+003, 2.359555e+002
1.251967e+003, 2.358974e+002
1.252449e+003, 2.361629e+002
1.252931e+003, 2.366762e+002
1.253413e+003, 2.379033e+002
1.253895e+003, 2.389378e+002
1.254377e+003, 2.384988e+002
1.254859e+003, 2.367081e+002
1.255341e+003, 2.359820e+002
1.255823e+003, 2.364636e+002
1.256306e+003, 2.367342e+002
1.256788e+003, 2.364161e+002
1.257270e+003, 2.360675e+002
1.257752e+003, 2.362251e+002
1.258234e+003, 2.365668e+002
1.258716e+003, 2.368964e+002
1.259198e+003, 2.371695e+002
1.259680e+003, 2.371080e+002
1.260163e+003, 2.367075e+002
1.260645e+003, 2.366621e+002
1.261127e+003, 2.371759e+002
1.261609e+003, 2.377546e+002
1.262091e+003, 2.383470e+002
1.262573e+003, 2.385423e+002
1.263055e+003, 2.379778e+002
1.263537e+003, 2.368410e+002
1.264020e+003, 2.354517e+002
1.264502e+003, 2.339513e+002
1.264984e+003, 2.336712e+002
1.265466e+003, 2.350945e+002
1.265948e+003, 2.364421e+002
1.266430e+003, 2.365521e+002
1.266912e+003, 2.364155e+002
1.267394e+003, 2.365096e+002
1.267876e+003, 2.367571e+002
1.268359e+003, 2.370061e+002
1.268841e+003, 2.372280e+002
1.269323e+003, 2.373677e+002
1.269805e+003, 2.374405e+002
1.270287e+003, 2.371761e+002
1.270769e+003, 2.360717e+002
1.271251e+003, 2.350881e+002
1.271733e+003, 2.345778e+002
1.272215e+003, 2.343210e+002
1.272698e+003, 2.338271e+002
1.273180e+003, 2.332207e+002
1.273662e+003, 2.327628e+002
1.274144e+003, 2.324877e+002
1.274626e+003, 2.324817e+002
1.275108e+003, 2.327259e+002
1.275590e+003, 2.333311e+002
1.276072e+003, 2.345102e+002
1.276555e+003, 2.357079e+002
1.277037e+003, 2.359409e+002
1.277519e+003, 2.355829e+002
1.278001e+003, 2.351208e+002
1.278483e+003, 2.346187e+002
1.278965e+003, 2.343018e+002
1.279447e+003, 2.341770e+002
1.279929e+003, 2.342429e+002
1.280411e+003, 2.345548e+002
1.280894e+003, 2.348767e+002
1.281376e+003, 2.349253e+002
1.281858e+003, 2.348162e+002
1.282340e+003, 2.347504e+002
1.282822e+003, 2.347127e+002
1.283304e+003, 2.340886e+002
1.283786e+003, 2.327821e+002
1.284268e+003, 2.320220e+002
1.284750e+003, 2.322636e+002
1.285233e+003, 2.326006e+002
1.285715e+003, 2.319203e+002
1.286197e+003, 2.312218e+002
1.286679e+003, 2.314973e+002
1.287161e+003, 2.324803e+002
1.287643e+003, 2.330049e+002
1.288125e+003, 2.330975e+002
1.288607e+003, 2.330960e+002
1.289090e+003, 2.331123e+002
1.289572e+003, 2.328419e+002
1.290054e+003, 2.313327e+002
1.290536e+003, 2.303678e+002
1.291018e+003, 2.310149e+002
1.291500e+003, 2.326808e+002
1.291982e+003, 2.340490e+002
1.292464e+003, 2.349969e+002
1.292947e+003, 2.349305e+002
1.293429e+003, 2.336218e+002
1.293911e+003, 2.325040e+002
1.294393e+003, 2.323070e+002
1.294875e+003, 2.321884e+002
1.295357e+003, 2.318228e+002
1.295839e+003, 2.315065e+002
1.296321e+003, 2.317753e+002
1.296803e+003, 2.325460e+002
1.297286e+003, 2.340081e+002
1.297768e+003, 2.362513e+002
1.298250e+003, 2.369292e+002
1.298732e+003, 2.351911e+002
1.299214e+003, 2.335709e+002
1.299696e+003, 2.325855e+002
1.300178e+003, 2.324107e+002
1.300660e+003, 2.332806e+002
##END=



