##NAMES=Sulfoborite
##RRUFFID=R140689
##IDEAL CHEMISTRY=Mg_3_[B(OH)_4_]_2_(S^6+^O_4_)(OH,F)_2_
##LOCALITY=Gröna mine, Bernburg, Stassfurt Potash Deposit, Saxony-Anhalt, Germany
##OWNER=RRUFF
##SOURCE=Rock Currier
##DESCRIPTION=Colorless prismatic orthorhombic crystals. Locality is listed as 'Bernburg-Gröna, Bezirk Halle', 'Gröna Mine, Bernburg' is a guess.
##STATUS=The identification of this mineral has been confirmed only by single crystal X-ray diffraction.
##URL=rruff.info/R140689
98.18860, 0.0000000E+00
98.67072, 0.1232910
99.15283, 1.888794
99.63495, 6.008423
100.1171, 11.87158
100.5992, 18.81958
101.0813, 26.80835
101.5634, 36.61096
102.0455, 48.38684
102.5277, 59.67139
103.0098, 69.02417
103.4919, 76.32275
103.9740, 83.07422
104.4561, 88.60620
104.9382, 90.30603
105.4204, 87.73145
105.9025, 80.42151
106.3846, 70.15149
106.8667, 58.33752
107.3488, 45.40601
107.8309, 31.83752
108.3131, 20.82434
108.7952, 11.39563
109.2773, 4.280640
109.7594, 0.2178960
110.2415, 0.8781740
110.7236, 0.1038820
111.2058, 3.042603
111.6879, 7.735718
112.1700, 13.46130
112.6521, 21.66772
113.1342, 30.76233
113.6163, 37.76624
114.0985, 42.39612
114.5806, 44.87805
115.0627, 44.64734
115.5448, 42.30298
116.0269, 41.08691
116.5090, 43.45764
116.9912, 48.32703
117.4733, 53.61499
117.9554, 58.83154
118.4375, 63.22717
118.9196, 67.76880
119.4017, 72.53186
119.8839, 77.45544
120.3660, 82.66003
120.8481, 88.93250
121.3302, 93.33105
121.8123, 96.39600
122.2944, 97.79175
122.7766, 97.06909
123.2587, 94.24023
123.7408, 90.00610
124.2229, 85.55725
124.7050, 81.09863
125.1871, 76.23645
125.6693, 70.40063
126.1514, 63.82300
126.6335, 56.69080
127.1156, 48.81384
127.5977, 40.52209
128.0798, 32.65735
128.5620, 24.66626
129.0441, 17.87988
129.5262, 13.18152
130.0083, 10.24487
130.4904, 7.777588
130.9725, 5.089600
131.4547, 2.564941
131.9368, 0.9466550
132.4189, 0.7982180
132.9010, 0.9426270
133.3831, 5.3589001E-02
133.8652, 2.082642
134.3474, 4.030151
134.8295, 5.031616
135.3116, 5.430176
135.7937, 5.544189
136.2758, 5.469238
136.7579, 5.057373
137.2401, 4.038330
137.7222, 1.928833
138.2043, 0.2416990
138.6864, 1.905640
139.1685, 3.297729
139.6507, 4.898682
140.1328, 7.074951
140.6149, 9.849365
141.0970, 12.27551
141.5791, 13.52209
142.0612, 15.18750
142.5434, 18.20874
143.0255, 22.11707
143.5076, 25.73035
143.9897, 27.94385
144.4718, 28.54395
144.9539, 29.02979
145.4361, 29.77466
145.9182, 30.01953
146.4003, 29.42773
146.8824, 28.00293
147.3645, 25.68921
147.8466, 22.26001
148.3288, 17.19446
148.8109, 13.09375
149.2930, 10.55188
149.7751, 8.679077
150.2572, 6.463867
150.7393, 3.576294
151.2215, 0.8613280
151.7036, 0.2700200
152.1857, 4.3945000E-02
152.6678, 0.7001950
153.1499, 1.422241
153.6320, 2.234497
154.1142, 3.059937
154.5963, 3.487549
155.0784, 4.598022
155.5605, 7.475342
156.0426, 12.81299
156.5247, 18.71753
157.0069, 24.04761
157.4890, 28.83752
157.9711, 35.04736
158.4532, 43.49329
158.9353, 53.39233
159.4174, 64.42188
159.8996, 76.54504
160.3817, 89.34009
160.8638, 102.8690
161.3459, 117.9192
161.8280, 130.8723
162.3102, 142.4668
162.7923, 151.2192
163.2744, 156.3391
163.7565, 157.5269
164.2386, 154.3369
164.7207, 145.3138
165.2029, 125.8059
165.6850, 107.7050
166.1671, 90.76147
166.6492, 75.95691
167.1313, 64.00854
167.6134, 55.34070
168.0956, 49.68262
168.5777, 46.47815
169.0598, 47.85303
169.5419, 49.42590
170.0240, 51.68970
170.5061, 53.80078
170.9883, 54.59314
171.4704, 53.42529
171.9525, 50.58911
172.4346, 47.14185
172.9167, 43.04321
173.3988, 38.51526
173.8810, 32.68927
174.3631, 26.33917
174.8452, 21.73480
175.3273, 20.63422
175.8094, 21.95612
176.2915, 21.55597
176.7737, 17.99670
177.2558, 14.45239
177.7379, 12.61938
178.2200, 12.46228
178.7021, 13.53931
179.1842, 16.23499
179.6664, 19.87640
180.1485, 23.06769
180.6306, 25.31940
181.1127, 27.43646
181.5948, 30.33484
182.0769, 34.13324
182.5591, 37.99567
183.0412, 41.34314
183.5233, 44.53632
184.0054, 47.99231
184.4875, 51.84644
184.9696, 55.97760
185.4518, 60.40033
185.9339, 65.81653
186.4160, 69.79718
186.8981, 72.15839
187.3802, 72.62640
187.8623, 70.62042
188.3445, 65.65527
188.8266, 58.26038
189.3087, 50.20294
189.7908, 40.43652
190.2729, 31.47559
190.7550, 23.40973
191.2372, 16.47638
191.7193, 11.11707
192.2014, 7.760864
192.6835, 6.203796
193.1656, 4.737732
193.6477, 3.570435
194.1299, 2.359619
194.6120, 0.7397460
195.0941, 0.8729250
195.5762, 1.843140
196.0583, 1.806702
196.5404, 0.8430790
197.0226, 0.9471440
197.5047, 4.751465
197.9868, 8.064270
198.4689, 9.597900
198.9510, 10.00873
199.4331, 10.81268
199.9153, 13.07428
200.3974, 16.78717
200.8795, 21.00958
201.3616, 26.33673
201.8437, 31.47046
202.3258, 35.94421
202.8080, 39.75726
203.2901, 43.12518
203.7722, 46.32733
204.2543, 49.19501
204.7364, 50.81531
205.2185, 50.47675
205.7007, 49.60028
206.1828, 49.62457
206.6649, 50.34283
207.1470, 49.52686
207.6291, 45.03125
208.1112, 37.52142
208.5934, 30.99194
209.0755, 25.43646
209.5576, 21.03894
210.0397, 18.52197
210.5218, 17.95056
211.0039, 17.45758
211.4861, 15.25330
211.9682, 12.35297
212.4503, 10.88074
212.9324, 12.31409
213.4145, 14.62256
213.8967, 15.05188
214.3788, 13.12811
214.8609, 11.42596
215.3430, 11.27313
215.8251, 12.28058
216.3072, 14.27716
216.7894, 17.77545
217.2715, 21.71765
217.7536, 24.33673
218.2357, 25.45276
218.7178, 25.65094
219.1999, 24.34613
219.6821, 22.60358
220.1642, 21.80548
220.6463, 22.85779
221.1284, 24.70667
221.6105, 24.87103
222.0926, 22.55994
222.5748, 20.10864
223.0569, 18.16205
223.5390, 16.54407
224.0211, 15.06799
224.5032, 13.66205
224.9853, 12.33539
225.4675, 11.05261
225.9496, 9.787964
226.4317, 8.661682
226.9138, 7.296997
227.3959, 6.204163
227.8780, 6.033447
228.3602, 7.135742
228.8423, 9.139954
229.3244, 10.89203
229.8065, 12.52814
230.2886, 13.61145
230.7707, 13.33942
231.2529, 12.77759
231.7350, 13.23767
232.2171, 15.35211
232.6992, 18.59955
233.1813, 21.09686
233.6634, 22.33319
234.1456, 23.05908
234.6277, 23.39941
235.1098, 23.31671
235.5919, 22.74225
236.0740, 21.63757
236.5561, 20.01740
237.0383, 17.92261
237.5204, 13.49933
238.0025, 10.81158
238.4846, 11.68848
238.9667, 14.07629
239.4488, 15.26001
239.9310, 14.00470
240.4131, 11.28949
240.8952, 9.764526
241.3773, 10.26703
241.8594, 10.89185
242.3415, 11.26837
242.8237, 11.69604
243.3058, 12.61621
243.7879, 14.24976
244.2700, 16.43756
244.7521, 18.84100
245.2342, 21.78925
245.7164, 23.98212
246.1985, 24.76038
246.6806, 24.85059
247.1627, 25.05688
247.6448, 25.57635
248.1269, 26.59070
248.6091, 28.69366
249.0912, 32.37610
249.5733, 35.24866
250.0554, 36.58923
250.5375, 36.94684
251.0196, 36.95496
251.5018, 36.70599
251.9839, 36.54364
252.4660, 37.24054
252.9481, 38.90436
253.4302, 39.91724
253.9123, 39.39880
254.3945, 38.18634
254.8766, 37.63019
255.3587, 38.14569
255.8408, 38.79059
256.3229, 38.42017
256.8051, 37.17554
257.2872, 35.49933
257.7693, 32.70532
258.2514, 29.77124
258.7335, 28.30658
259.2156, 28.63947
259.6978, 29.95605
260.1799, 32.01538
260.6620, 34.56421
261.1441, 36.69531
261.6262, 37.47742
262.1083, 37.86047
262.5905, 39.54163
263.0726, 42.87396
263.5547, 46.53137
264.0368, 49.13116
264.5189, 51.26123
265.0010, 54.16779
265.4832, 58.85687
265.9653, 64.32764
266.4474, 69.03412
266.9295, 72.88452
267.4116, 76.30817
267.8937, 78.17676
268.3759, 80.04041
268.8580, 84.54388
269.3401, 93.91351
269.8222, 104.9968
270.3043, 113.0496
270.7864, 117.5235
271.2686, 121.4105
271.7507, 126.9597
272.2328, 132.4153
272.7149, 135.8737
273.1970, 136.8789
273.6791, 135.6602
274.1613, 132.2382
274.6434, 126.3202
275.1255, 119.4772
275.6076, 111.6463
276.0897, 103.3695
276.5718, 94.79272
277.0540, 85.84106
277.5361, 77.20667
278.0182, 69.73322
278.5003, 63.58301
278.9824, 57.62695
279.4645, 51.51007
279.9467, 45.56165
280.4288, 40.14581
280.9109, 35.30658
281.3930, 30.61499
281.8751, 25.18103
282.3572, 18.81049
282.8394, 14.23541
283.3215, 13.70074
283.8036, 13.71783
284.2857, 12.03839
284.7678, 8.764832
285.2499, 5.697693
285.7321, 4.837891
286.2142, 6.263489
286.6963, 6.727539
287.1784, 5.108459
287.6605, 3.387146
288.1426, 2.672913
288.6248, 2.709351
289.1069, 2.546753
289.5890, 1.155701
290.0711, 1.302917
290.5532, 2.531799
291.0353, 1.501953
291.5175, 0.4646000
291.9996, 0.3526000
292.4817, 0.8720090
292.9638, 1.442688
293.4459, 1.761963
293.9280, 1.834351
294.4102, 1.565613
294.8923, 0.2672120
295.3744, 0.2569580
295.8565, 1.143433
296.3386, 3.321716
296.8207, 4.767944
297.3029, 4.686218
297.7850, 3.630127
298.2671, 2.979248
298.7492, 2.975891
299.2313, 2.867615
299.7134, 2.075623
300.1956, 1.301697
300.6777, 1.406677
301.1598, 2.699829
301.6419, 4.297852
302.1240, 4.631653
302.6061, 3.269714
303.0883, 1.850403
303.5704, 0.3370970
304.0525, 0.9527590
304.5346, 1.546570
305.0167, 1.442139
305.4988, 1.384216
305.9810, 2.523865
306.4631, 5.303894
306.9452, 7.181580
307.4273, 7.241089
307.9094, 6.927795
308.3915, 6.697571
308.8737, 6.662170
309.3558, 6.862610
309.8379, 7.231384
310.3200, 7.736084
310.8021, 9.071777
311.2842, 12.32526
311.7664, 15.34741
312.2485, 17.39276
312.7306, 18.61017
313.2127, 19.44183
313.6948, 20.14532
314.1769, 20.71893
314.6591, 21.09235
315.1412, 20.78754
315.6233, 20.99561
316.1054, 22.43512
316.5875, 24.43256
317.0696, 26.03876
317.5518, 26.74298
318.0339, 26.99109
318.5160, 27.98462
318.9981, 30.30304
319.4802, 32.19971
319.9623, 33.36511
320.4445, 34.00391
320.9266, 34.15070
321.4087, 33.82855
321.8908, 33.35107
322.3729, 33.07440
322.8550, 32.85486
323.3372, 33.35870
323.8193, 35.93878
324.3014, 38.32074
324.7835, 38.88690
325.2656, 37.61676
325.7477, 35.97266
326.2299, 35.65808
326.7120, 36.88257
327.1941, 37.09711
327.6762, 35.12329
328.1583, 33.10443
328.6404, 31.76813
329.1226, 31.12683
329.6047, 31.03339
330.0868, 31.57605
330.5689, 32.61566
331.0510, 33.17828
331.5331, 32.82581
332.0153, 32.65497
332.4974, 33.11011
332.9795, 33.97888
333.4616, 34.99115
333.9437, 36.08459
334.4258, 37.16675
334.9080, 38.04175
335.3901, 38.76874
335.8722, 39.17834
336.3543, 39.26544
336.8365, 39.04187
337.3186, 38.06122
337.8007, 36.12280
338.2828, 34.81793
338.7649, 36.65106
339.2470, 42.13708
339.7292, 46.82800
340.2113, 49.15308
340.6934, 50.91559
341.1755, 53.16376
341.6576, 55.94287
342.1397, 58.82111
342.6219, 61.35071
343.1040, 63.57623
343.5861, 66.07544
344.0682, 68.80627
344.5503, 71.93030
345.0324, 75.82727
345.5146, 80.14130
345.9967, 83.98383
346.4788, 86.62024
346.9609, 88.53955
347.4430, 90.97144
347.9251, 94.06482
348.4073, 97.02966
348.8894, 99.53253
349.3715, 101.8314
349.8536, 104.1163
350.3357, 106.2839
350.8178, 108.7458
351.3000, 112.4169
351.7821, 117.4223
352.2642, 121.5744
352.7463, 123.9404
353.2284, 125.2681
353.7105, 126.1699
354.1927, 126.5837
354.6748, 127.1172
355.1569, 128.6127
355.6390, 130.8103
356.1211, 132.2266
356.6032, 132.3635
357.0854, 131.9617
357.5675, 131.7583
358.0496, 131.6833
358.5317, 131.3395
359.0138, 130.1097
359.4959, 128.5867
359.9781, 127.9977
360.4602, 128.6559
360.9423, 129.3232
361.4244, 129.3677
361.9065, 128.6741
362.3886, 127.0050
362.8708, 123.5880
363.3529, 120.0590
363.8350, 117.5911
364.3171, 116.0365
364.7992, 114.7456
365.2813, 113.6404
365.7635, 112.5065
366.2456, 110.7775
366.7277, 108.3381
367.2098, 105.7686
367.6919, 103.3946
368.1740, 101.1100
368.6562, 98.56464
369.1383, 95.60168
369.6204, 92.55939
370.1025, 89.93317
370.5846, 87.74237
371.0667, 85.11005
371.5489, 81.37286
372.0310, 77.65765
372.5131, 75.19049
372.9952, 73.92548
373.4773, 72.72345
373.9594, 70.74475
374.4416, 68.03192
374.9237, 65.47681
375.4058, 63.20587
375.8879, 60.97357
376.3700, 58.58081
376.8521, 56.15680
377.3343, 54.01630
377.8164, 52.35480
378.2985, 51.01373
378.7806, 49.61945
379.2627, 48.18695
379.7448, 46.83411
380.2270, 45.64868
380.7091, 44.50354
381.1912, 43.08905
381.6733, 41.41779
382.1554, 40.04913
382.6375, 39.63239
383.1197, 40.37024
383.6018, 41.10620
384.0839, 42.40576
384.5660, 43.16858
385.0481, 42.37250
385.5302, 40.59601
386.0124, 39.31592
386.4945, 39.55273
386.9766, 40.96240
387.4587, 41.70673
387.9408, 41.54840
388.4229, 40.91870
388.9051, 39.24005
389.3872, 37.41626
389.8693, 36.54663
390.3514, 36.94012
390.8335, 37.72833
391.3156, 37.55792
391.7978, 36.23230
392.2799, 34.45337
392.7620, 30.91351
393.2441, 28.06989
393.7262, 27.77106
394.2083, 29.49573
394.6905, 31.08392
395.1726, 30.63519
395.6547, 28.41461
396.1368, 27.19525
396.6189, 27.49298
397.1010, 28.13483
397.5832, 28.45941
398.0653, 28.95294
398.5474, 30.57971
399.0295, 33.96466
399.5116, 37.48932
399.9937, 38.23523
400.4759, 35.63464
400.9580, 33.22070
401.4401, 32.14178
401.9222, 31.30853
402.4043, 29.91516
402.8864, 27.93915
403.3686, 26.00183
403.8507, 24.77399
404.3328, 24.01562
404.8149, 22.52728
405.2970, 19.81433
405.7791, 17.26996
406.2613, 15.91107
406.7434, 15.38824
407.2255, 15.06720
407.7076, 14.95898
408.1897, 14.78748
408.6718, 14.26727
409.1540, 13.39807
409.6361, 12.16376
410.1182, 10.09979
410.6003, 8.080811
411.0824, 7.778259
411.5645, 9.734497
412.0467, 11.17603
412.5288, 10.30121
413.0109, 8.260376
413.4930, 7.275085
413.9751, 7.883606
414.4572, 8.618835
414.9394, 7.836548
415.4215, 5.452087
415.9036, 3.735474
416.3857, 3.204590
416.8678, 3.003174
417.3499, 2.568909
417.8321, 1.985596
418.3142, 1.730835
418.7963, 2.189453
419.2784, 2.970215
419.7605, 2.682617
420.2426, 1.1475000E-02
420.7248, 1.894226
421.2069, 2.379883
421.6890, 2.012634
422.1711, 1.065552
422.6532, 0.2901610
423.1353, 1.537903
423.6175, 2.063354
424.0996, 1.791565
424.5817, 1.163513
425.0638, 0.1525880
425.5459, 1.434509
426.0280, 2.713501
426.5102, 3.716858
426.9923, 3.846313
427.4744, 2.668640
427.9565, 0.7129520
428.4386, 0.2001340
428.9207, 0.5867920
429.4029, 1.269531
429.8850, 1.705200
430.3671, 1.897583
430.8492, 1.795898
431.3313, 1.415222
431.8134, 0.8790280
432.2956, 0.2481690
432.7777, 0.4826660
433.2598, 1.053589
433.7419, 1.583130
434.2241, 1.749084
434.7062, 0.8819580
435.1883, 0.3588870
435.6704, 0.6707760
436.1525, 0.7324830
436.6346, 3.034058
437.1168, 5.127808
437.5989, 7.037231
438.0810, 8.472595
438.5631, 9.105835
439.0452, 9.354553
439.5273, 9.763428
440.0095, 10.37958
440.4916, 10.78137
440.9737, 10.40063
441.4558, 9.711182
441.9379, 9.953186
442.4200, 11.46503
442.9022, 12.66925
443.3843, 11.74420
443.8664, 9.226257
444.3485, 8.395508
444.8306, 11.19116
445.3127, 14.00293
445.7949, 14.46301
446.2770, 13.29010
446.7591, 12.47607
447.2412, 12.87372
447.7233, 13.82031
448.2054, 13.98804
448.6876, 12.57666
449.1697, 12.26740
449.6518, 14.22955
450.1339, 16.56555
450.6160, 17.57788
451.0981, 17.40338
451.5803, 17.50812
452.0624, 19.14838
452.5445, 22.17694
453.0266, 24.60547
453.5087, 25.52283
453.9908, 26.86932
454.4730, 29.11218
454.9551, 31.79260
455.4372, 34.52533
455.9193, 37.16174
456.4014, 39.66748
456.8835, 41.71069
457.3657, 43.04102
457.8478, 44.54865
458.3299, 46.20569
458.8120, 48.02588
459.2941, 50.32959
459.7762, 52.90729
460.2584, 55.17499
460.7405, 56.82971
461.2226, 57.80414
461.7047, 57.50262
462.1868, 55.40936
462.6689, 54.59076
463.1511, 57.08881
463.6332, 60.81934
464.1153, 63.73730
464.5974, 65.67322
465.0795, 67.16699
465.5616, 68.45563
466.0438, 69.55847
466.5259, 70.25696
467.0080, 70.30432
467.4901, 71.01233
467.9722, 73.76263
468.4543, 78.15643
468.9365, 81.96039
469.4186, 84.98712
469.9007, 87.67560
470.3828, 89.69940
470.8649, 91.45837
471.3470, 93.97443
471.8292, 97.62537
472.3113, 101.7492
472.7934, 105.5565
473.2755, 109.4386
473.7576, 111.6339
474.2397, 110.5646
474.7219, 109.1521
475.2040, 109.3214
475.6861, 110.6993
476.1682, 111.8131
476.6503, 111.6813
477.1324, 110.4290
477.6146, 108.6272
478.0967, 105.9263
478.5788, 103.0292
479.0609, 101.2203
479.5430, 98.68457
480.0251, 93.10852
480.5073, 84.74341
480.9894, 76.62396
481.4715, 72.16687
481.9536, 71.03497
482.4357, 68.49750
482.9178, 63.79510
483.4000, 58.83075
483.8821, 54.02710
484.3642, 49.62775
484.8463, 46.08691
485.3284, 43.67102
485.8105, 41.90173
486.2927, 40.36005
486.7748, 38.89423
487.2569, 37.13416
487.7390, 34.88708
488.2211, 32.59021
488.7032, 30.65460
489.1854, 29.06512
489.6675, 27.96063
490.1496, 27.88226
490.6317, 27.88409
491.1138, 27.02911
491.5959, 25.53326
492.0781, 24.27014
492.5602, 23.65442
493.0423, 23.48370
493.5244, 23.48096
494.0065, 24.04742
494.4886, 24.18304
494.9708, 23.51489
495.4529, 22.64856
495.9350, 21.64978
496.4171, 20.78815
496.8992, 20.93695
497.3813, 23.00360
497.8635, 26.41290
498.3456, 27.53058
498.8277, 24.32269
499.3098, 21.76617
499.7919, 20.76587
500.2740, 20.55511
500.7562, 20.61481
501.2383, 20.78137
501.7204, 20.89270
502.2025, 20.93280
502.6846, 20.86676
503.1667, 20.11694
503.6489, 18.40314
504.1310, 16.56409
504.6131, 15.08844
505.0952, 13.78528
505.5773, 12.30511
506.0594, 10.39795
506.5416, 8.751038
507.0237, 8.251770
507.5058, 8.530579
507.9879, 8.168640
508.4700, 6.676208
508.9521, 5.097778
509.4343, 4.774719
509.9164, 5.696838
510.3985, 5.628723
510.8806, 3.234619
511.3627, 0.9960940
511.8448, 0.7273560
512.3270, 1.671692
512.8091, 1.910278
513.2912, 0.6004030
513.7733, 1.374939
514.2554, 2.416321
514.7375, 2.208374
515.2197, 1.726563
515.7018, 0.3850710
516.1839, 0.6517940
516.6660, 0.3352660
517.1481, 0.7879640
517.6302, 1.271301
518.1124, 0.1557620
518.5945, 1.821533
519.0766, 2.744202
519.5587, 2.347778
520.0408, 1.710083
520.5229, 0.3979490
521.0051, 0.6016240
521.4872, 0.2640380
521.9693, 1.204834
522.4514, 2.299255
522.9335, 1.736328
523.4156, 0.3620610
523.8978, 0.2109380
524.3799, 7.2875999E-02
524.8620, 0.5653080
525.3441, 1.242188
525.8262, 1.735352
526.3083, 1.177307
526.7905, 0.8071900
527.2726, 2.432434
527.7547, 3.235352
528.2368, 3.361206
528.7189, 2.611450
529.2010, 1.150879
529.6832, 1.2268000E-02
530.1653, 7.4828997E-02
530.6474, 1.080444
531.1295, 1.258667
531.6116, 0.7954710
532.0938, 1.895081
532.5759, 0.9687500
533.0580, 0.5341800
533.5401, 1.362976
534.0222, 1.322632
534.5043, 0.9807740
534.9865, 0.9710690
535.4686, 1.203674
535.9507, 0.4427490
536.4328, 2.149841
536.9149, 4.160645
537.3970, 4.210876
537.8792, 3.529175
538.3613, 3.435913
538.8434, 4.242310
539.3255, 5.067871
539.8076, 5.204834
540.2897, 4.871521
540.7719, 4.649109
541.2540, 4.637451
541.7361, 4.550293
542.2182, 3.967285
542.7003, 3.153687
543.1824, 3.270813
543.6646, 5.329834
544.1467, 6.978455
544.6288, 7.105835
545.1109, 6.484314
545.5930, 6.056519
546.0751, 6.045837
546.5573, 6.262634
547.0394, 6.491516
547.5215, 6.718994
548.0036, 7.323303
548.4857, 8.517395
548.9678, 9.865234
549.4500, 11.77753
549.9321, 13.55481
550.4142, 14.26135
550.8963, 13.71686
551.3784, 12.90936
551.8605, 12.81836
552.3427, 13.42334
552.8248, 14.51410
553.3069, 16.32996
553.7890, 18.12775
554.2711, 19.54498
554.7532, 20.65253
555.2354, 21.44830
555.7175, 21.78064
556.1996, 22.21930
556.6817, 23.44269
557.1638, 24.96765
557.6459, 25.65265
558.1281, 25.27429
558.6102, 24.80261
559.0923, 24.96301
559.5744, 25.76947
560.0565, 27.40894
560.5386, 30.88123
561.0208, 33.80597
561.5029, 35.48535
561.9850, 36.41772
562.4671, 37.26691
562.9492, 38.13275
563.4313, 38.51392
563.9135, 37.73346
564.3956, 35.81940
564.8777, 34.54706
565.3598, 34.44293
565.8419, 34.15179
566.3240, 32.86719
566.8062, 31.40497
567.2883, 30.79071
567.7704, 31.26062
568.2525, 31.69922
568.7346, 31.08807
569.2167, 29.77405
569.6989, 28.78149
570.1810, 28.24329
570.6631, 27.70844
571.1452, 26.61505
571.6273, 25.29962
572.1094, 25.31659
572.5916, 27.84717
573.0737, 29.71857
573.5558, 29.51129
574.0379, 28.60040
574.5200, 28.27844
575.0021, 28.70367
575.4843, 29.70868
575.9664, 31.33850
576.4485, 33.37402
576.9306, 34.53961
577.4127, 34.02460
577.8948, 33.89575
578.3770, 34.64935
578.8591, 35.61029
579.3412, 36.52600
579.8233, 37.30017
580.3054, 37.71716
580.7875, 37.39185
581.2697, 36.68817
581.7518, 36.70026
582.2339, 37.59393
582.7161, 38.13928
583.1982, 37.85797
583.6803, 36.94482
584.1624, 35.67670
584.6445, 33.97180
585.1266, 32.01575
585.6088, 29.68420
586.0909, 27.41016
586.5730, 25.73071
587.0551, 24.55310
587.5372, 23.30267
588.0193, 21.63434
588.5015, 19.61096
588.9836, 17.51447
589.4657, 15.21716
589.9478, 13.38562
590.4299, 11.90045
590.9120, 10.88330
591.3942, 10.72876
591.8763, 11.10529
592.3584, 11.20343
592.8405, 10.51672
593.3226, 9.686401
593.8047, 9.967285
594.2869, 11.30658
594.7690, 12.04193
595.2511, 11.60840
595.7332, 10.98352
596.2153, 11.26550
596.6974, 12.10278
597.1796, 12.25055
597.6617, 10.42798
598.1438, 9.048340
598.6259, 9.858643
599.1080, 11.87537
599.5901, 13.34930
600.0723, 13.86243
600.5544, 14.22186
601.0365, 15.30444
601.5186, 17.13715
602.0007, 18.83734
602.4828, 20.98187
602.9650, 22.26740
603.4471, 21.51385
603.9292, 20.37720
604.4113, 20.42566
604.8934, 21.96143
605.3755, 24.35840
605.8577, 27.24054
606.3398, 30.55402
606.8219, 34.20868
607.3040, 38.28296
607.7861, 42.19055
608.2682, 45.44189
608.7504, 48.55243
609.2325, 52.40131
609.7146, 57.04108
610.1967, 61.98755
610.6788, 67.66193
611.1609, 73.19855
611.6431, 77.27728
612.1252, 80.43103
612.6073, 84.58508
613.0894, 90.77423
613.5715, 98.26086
614.0536, 105.6434
614.5358, 112.6344
615.0179, 120.2454
615.5000, 128.7729
615.9821, 137.7560
616.4642, 147.4134
616.9464, 157.3314
617.4285, 166.9536
617.9106, 176.2421
618.3927, 184.6608
618.8748, 191.5848
619.3569, 197.1012
619.8391, 202.0792
620.3212, 206.9559
620.8033, 209.9081
621.2854, 209.6516
621.7675, 206.1647
622.2496, 200.2980
622.7318, 190.7934
623.2139, 180.6247
623.6960, 171.0281
624.1781, 161.0089
624.6602, 149.0560
625.1423, 135.3809
625.6245, 121.8428
626.1066, 109.7980
626.5887, 99.04199
627.0708, 88.62500
627.5529, 78.26074
628.0350, 69.18066
628.5172, 62.16998
628.9993, 56.14026
629.4814, 50.33282
629.9635, 44.71100
630.4456, 39.86243
630.9277, 36.09332
631.4099, 33.17041
631.8920, 31.27209
632.3741, 30.06421
632.8562, 28.19550
633.3383, 25.19153
633.8204, 21.80005
634.3026, 18.71002
634.7847, 15.76324
635.2668, 14.45514
635.7489, 16.72180
636.2310, 18.06793
636.7131, 16.08118
637.1953, 13.03656
637.6774, 11.76044
638.1595, 12.75378
638.6416, 14.27148
639.1237, 14.66589
639.6058, 14.14880
640.0880, 13.71112
640.5701, 13.23492
641.0522, 13.38373
641.5343, 15.15002
642.0164, 17.09528
642.4985, 17.00427
642.9807, 14.69159
643.4628, 13.20160
643.9449, 13.75385
644.4270, 15.14594
644.9091, 16.66541
645.3912, 18.19812
645.8734, 19.59100
646.3555, 20.77740
646.8376, 21.90399
647.3197, 23.11230
647.8018, 24.30176
648.2839, 26.17065
648.7661, 29.32306
649.2482, 32.43573
649.7303, 35.04071
650.2124, 37.41217
650.6945, 39.81226
651.1766, 42.28625
651.6588, 45.10046
652.1409, 48.64508
652.6230, 52.59290
653.1051, 56.17102
653.5872, 59.34857
654.0693, 62.94629
654.5515, 67.63397
655.0336, 72.58740
655.5157, 76.17914
655.9978, 78.32709
656.4799, 79.03876
656.9620, 78.16589
657.4442, 75.99182
657.9263, 72.52533
658.4084, 67.90375
658.8905, 61.84729
659.3726, 54.33569
659.8547, 46.86218
660.3369, 41.68268
660.8190, 38.66809
661.3011, 34.92975
661.7832, 30.01666
662.2653, 25.17389
662.7474, 20.65839
663.2296, 16.86761
663.7117, 14.69891
664.1938, 14.72797
664.6759, 14.45825
665.1580, 12.90533
665.6401, 10.87848
666.1223, 9.013855
666.6044, 7.350342
667.0865, 5.755188
667.5686, 4.146057
668.0507, 2.710571
668.5328, 1.943420
669.0150, 2.173950
669.4971, 1.590454
669.9792, 0.9083250
670.4613, 2.841064
670.9434, 2.810364
671.4255, 1.710449
671.9077, 0.8046880
672.3898, 0.3093870
672.8719, 0.2374880
673.3540, 0.9407350
673.8361, 1.928101
674.3182, 2.426270
674.8004, 2.414490
675.2825, 2.304260
675.7646, 2.331970
676.2467, 2.391296
676.7288, 2.259277
677.2109, 2.004761
677.6931, 1.383667
678.1752, 6.9885001E-02
678.6573, 1.232117
679.1394, 2.636353
679.6215, 3.690063
680.1036, 3.470886
680.5858, 1.587952
681.0679, 0.4526980
681.5500, 1.015320
682.0321, 0.6101680
682.5142, 0.8507080
682.9963, 1.912903
683.4785, 2.577881
683.9606, 2.056763
684.4427, 0.8472900
684.9248, 9.0026997E-02
685.4069, 0.1018070
685.8890, 8.5449003E-02
686.3712, 0.7088620
686.8533, 1.124878
687.3354, 4.8950002E-02
687.8175, 1.904358
688.2996, 2.603638
688.7817, 1.477966
689.2639, 6.6040002E-02
689.7460, 0.6149290
690.2281, 2.712769
690.7102, 3.132385
691.1923, 1.230286
691.6744, 8.1848003E-02
692.1566, 1.583130
692.6387, 4.523682
693.1208, 6.615417
693.6029, 7.861755
694.0850, 8.464600
694.5671, 6.988953
695.0493, 6.265015
695.5314, 9.157593
696.0135, 13.94427
696.4956, 17.04034
696.9777, 17.18817
697.4598, 16.28754
697.9420, 16.77985
698.4241, 18.59454
698.9062, 20.07202
699.3883, 21.43848
699.8704, 21.79962
700.3525, 20.29150
700.8347, 17.87622
701.3168, 15.74927
701.7989, 13.92334
702.2810, 12.55035
702.7631, 12.18427
703.2452, 11.83014
703.7274, 10.58307
704.2095, 8.858643
704.6916, 7.524109
705.1737, 6.859619
705.6558, 6.537476
706.1379, 6.229492
706.6201, 5.927368
707.1022, 5.456787
707.5843, 4.598206
708.0664, 4.078430
708.5485, 4.395081
709.0306, 4.955200
709.5128, 5.264343
709.9949, 5.312439
710.4770, 5.213806
710.9591, 5.133789
711.4412, 4.798828
711.9233, 3.668457
712.4055, 2.234131
712.8876, 1.596985
713.3697, 1.965698
713.8518, 2.406677
714.3339, 1.975464
714.8160, 0.8277590
715.2982, 0.1094970
715.7803, 1.7333999E-02
716.2624, 0.1077880
716.7445, 0.8955080
717.2266, 1.312439
717.7087, 0.1643680
718.1909, 2.079773
718.6730, 3.422852
719.1551, 2.525696
719.6372, 1.508911
720.1193, 2.039246
720.6014, 3.327454
721.0836, 4.023010
721.5657, 3.931519
722.0478, 3.612488
722.5299, 3.439575
723.0120, 3.465698
723.4941, 4.001587
723.9763, 5.459900
724.4584, 6.274048
724.9405, 5.834900
725.4226, 5.203491
725.9047, 4.945496
726.3868, 4.920837
726.8690, 4.784912
727.3511, 4.381897
727.8332, 4.010559
728.3153, 4.287842
728.7974, 4.572876
729.2795, 3.291687
729.7617, 0.8171390
730.2438, 0.2577510
730.7259, 1.579346
731.2080, 4.670776
731.6901, 5.565674
732.1722, 3.531494
732.6544, 2.602722
733.1365, 3.764648
733.6186, 4.672852
734.1007, 3.977722
734.5828, 2.707703
735.0649, 2.186829
735.5471, 2.661438
736.0292, 3.311890
736.5113, 3.455078
736.9934, 3.693665
737.4755, 5.152771
737.9576, 7.225952
738.4398, 7.946838
738.9219, 6.608032
739.4040, 4.740784
739.8861, 4.273193
740.3682, 5.139160
740.8503, 6.048401
741.3325, 7.338440
741.8146, 8.073059
742.2967, 6.037048
742.7788, 4.873230
743.2609, 8.805176
743.7430, 17.11853
744.2252, 23.41144
744.7073, 24.93793
745.1894, 24.92096
745.6715, 24.60742
746.1536, 24.25446
746.6357, 24.41046
747.1179, 25.06805
747.6000, 25.57434
748.0821, 25.31726
748.5642, 24.68634
749.0463, 25.50494
749.5284, 28.78186
750.0106, 28.64392
750.4927, 21.64966
750.9748, 14.73560
751.4569, 12.95227
751.9390, 14.62701
752.4211, 16.43250
752.9033, 18.11346
753.3854, 19.66412
753.8675, 20.93268
754.3496, 22.17474
754.8317, 23.84137
755.3138, 25.68353
755.7960, 26.77747
756.2781, 26.69897
756.7602, 26.60150
757.2423, 28.36615
757.7244, 31.91650
758.2065, 35.18610
758.6887, 38.24945
759.1708, 40.55444
759.6529, 41.28058
760.1350, 41.60699
760.6171, 43.16583
761.0992, 45.91235
761.5814, 49.82867
762.0635, 56.97650
762.5456, 62.97247
763.0277, 64.63531
763.5098, 64.59583
763.9919, 66.18085
764.4741, 69.97083
764.9562, 74.60760
765.4383, 79.01245
765.9204, 83.54828
766.4025, 89.07440
766.8846, 95.54596
767.3668, 102.2202
767.8489, 108.9746
768.3310, 115.7543
768.8131, 122.3849
769.2952, 128.9850
769.7773, 136.3130
770.2595, 145.1331
770.7416, 153.5684
771.2237, 160.6839
771.7058, 168.1263
772.1879, 177.6496
772.6700, 188.1166
773.1522, 197.3160
773.6343, 204.3444
774.1164, 209.9516
774.5985, 215.2360
775.0806, 219.4683
775.5627, 221.1687
776.0449, 220.2007
776.5270, 216.4359
777.0091, 209.5962
777.4912, 201.0066
777.9733, 192.7346
778.4554, 184.8964
778.9376, 175.9194
779.4197, 165.3924
779.9019, 154.1954
780.3840, 141.4779
780.8661, 128.8943
781.3482, 118.0459
781.8303, 108.8237
782.3124, 100.0539
782.7946, 91.07666
783.2767, 82.49298
783.7588, 74.54608
784.2409, 67.39557
784.7230, 61.51483
785.2051, 56.86761
785.6873, 52.65906
786.1694, 48.33350
786.6515, 44.20129
787.1336, 41.28265
787.6157, 39.97449
788.0978, 37.75525
788.5800, 34.09784
789.0621, 30.18811
789.5442, 26.07336
790.0263, 22.37097
790.5084, 20.17017
790.9905, 19.83124
791.4727, 19.48462
791.9548, 18.50702
792.4369, 17.55865
792.9190, 17.08826
793.4011, 16.90875
793.8832, 16.77795
794.3654, 16.58087
794.8475, 16.13745
795.3296, 15.10638
795.8117, 13.81543
796.2938, 13.32605
796.7759, 13.56262
797.2581, 13.78607
797.7402, 13.90735
798.2223, 14.06348
798.7044, 14.54010
799.1865, 15.25079
799.6686, 15.38049
800.1508, 13.89026
800.6329, 13.32587
801.1150, 15.04285
801.5971, 16.45929
802.0792, 15.62164
802.5613, 13.57190
803.0435, 12.35986
803.5256, 12.66205
804.0077, 13.25159
804.4898, 13.07764
804.9719, 12.68933
805.4540, 13.16248
805.9362, 14.26263
806.4183, 14.89142
806.9004, 14.66193
807.3825, 13.91589
807.8646, 12.93292
808.3467, 11.76550
808.8289, 11.38824
809.3110, 12.19092
809.7931, 12.74725
810.2752, 12.65106
810.7573, 12.40521
811.2394, 11.98462
811.7216, 11.59583
812.2037, 12.16168
812.6858, 14.79816
813.1679, 16.75696
813.6500, 16.92773
814.1321, 16.19263
814.6143, 14.96100
815.0964, 13.52612
815.5785, 12.31738
816.0606, 11.52502
816.5427, 10.90393
817.0248, 10.18854
817.5070, 9.442993
817.9891, 8.745361
818.4712, 8.069702
818.9533, 7.685730
819.4354, 7.632080
819.9175, 8.252197
820.3997, 10.41077
820.8818, 14.05542
821.3639, 14.80713
821.8460, 9.856689
822.3281, 6.005432
822.8102, 3.993347
823.2924, 3.279541
823.7745, 4.559937
824.2566, 6.750549
824.7387, 7.062622
825.2208, 4.012451
825.7029, 1.302856
826.1851, 1.758240
826.6672, 3.377014
827.1493, 3.924011
827.6314, 3.489075
828.1135, 3.013184
828.5956, 2.856140
829.0778, 2.590698
829.5599, 1.500122
830.0420, 0.1799930
830.5241, 0.7446290
831.0062, 3.0640000E-02
831.4883, 0.8292850
831.9705, 1.626892
832.4526, 2.252380
832.9347, 2.571350
833.4168, 2.614563
833.8989, 2.690369
834.3810, 2.729309
834.8632, 2.892456
835.3453, 3.349121
835.8274, 3.781677
836.3095, 3.922852
836.7916, 3.911804
837.2737, 4.147400
837.7559, 4.778870
838.2380, 5.048584
838.7201, 3.783569
839.2022, 2.244446
839.6843, 2.457336
840.1664, 3.917542
840.6486, 4.927612
841.1307, 4.959412
841.6128, 4.283936
842.0949, 3.045837
842.5770, 1.454895
843.0591, 0.5219120
843.5413, 0.3358760
844.0234, 0.3541260
844.5055, 0.5469360
844.9876, 0.8244630
845.4697, 1.153015
845.9518, 1.515869
846.4340, 1.870605
846.9161, 2.242004
847.3982, 2.546814
847.8803, 3.070007
848.3624, 3.212402
848.8445, 2.148376
849.3267, 0.7926030
849.8088, 0.5893550
850.2909, 1.648499
850.7730, 2.485107
851.2551, 2.108765
851.7372, 1.051880
852.2194, 0.5280760
852.7015, 2.202637
853.1836, 2.886810
853.6657, 2.424561
854.1478, 1.109650
854.6299, 1.036469
855.1121, 3.110565
855.5942, 2.648773
856.0763, 0.8461000
856.5584, 2.601624
857.0405, 1.895325
857.5226, 0.9592290
858.0048, 0.6333010
858.4869, 0.6863400
858.9690, 0.9009400
859.4511, 1.307709
859.9332, 1.368042
860.4153, 0.7395940
860.8975, 0.1813960
861.3796, 0.1636050
861.8617, 9.2437997E-02
862.3438, 0.8731080
862.8259, 2.360870
863.3080, 3.107697
863.7902, 2.473450
864.2723, 1.500549
864.7544, 0.7250060
865.2365, 0.3450010
865.7186, 1.156830
866.2007, 2.721039
866.6829, 3.195984
867.1650, 1.918823
867.6471, 9.9030003E-02
868.1292, 0.9429320
868.6113, 1.234650
869.0934, 0.8070070
869.5756, 0.4509580
870.0577, 1.660095
870.5398, 2.731110
871.0219, 3.484680
871.5040, 3.815948
871.9861, 3.709869
872.4683, 3.064606
872.9504, 1.265503
873.4325, 8.7127998E-02
873.9146, 1.1047000E-02
874.3967, 1.2299000E-02
874.8788, 0.3300170
875.3610, 0.7383120
875.8431, 0.7707520
876.3252, 0.3875120
876.8073, 3.1615999E-02
877.2894, 0.5092770
877.7715, 0.7464600
878.2537, 0.1594540
878.7358, 0.6437070
879.2179, 0.7030330
879.7000, 1.1900000E-03
880.1821, 0.9870000
880.6642, 2.021790
881.1464, 2.786560
881.6285, 2.517090
882.1106, 1.475647
882.5927, 1.310028
883.0748, 2.121887
883.5569, 2.636597
884.0391, 2.343597
884.5212, 1.701324
885.0033, 1.180237
885.4854, 0.7933960
885.9675, 0.7274170
886.4496, 1.123505
886.9318, 1.572113
887.4139, 2.410553
887.8960, 2.865051
888.3781, 1.964325
888.8602, 0.5692140
889.3423, 0.2921750
889.8245, 1.488007
890.3066, 2.983124
890.7887, 5.289001
891.2708, 6.913666
891.7529, 6.141846
892.2350, 4.599670
892.7172, 4.748108
893.1993, 6.667511
893.6814, 8.274811
894.1635, 8.131531
894.6456, 7.493286
895.1277, 7.964050
895.6099, 9.056519
896.0920, 9.638031
896.5741, 9.656982
897.0562, 9.704315
897.5383, 10.07214
898.0204, 10.42233
898.5026, 10.18307
898.9847, 9.415680
899.4668, 9.032593
899.9489, 9.063934
900.4310, 9.278656
900.9131, 9.663513
901.3953, 10.14502
901.8774, 10.72400
902.3595, 11.34494
902.8416, 11.73840
903.3237, 12.03622
903.8058, 11.88461
904.2880, 10.91055
904.7701, 9.933838
905.2522, 9.204987
905.7343, 8.738800
906.2164, 8.531403
906.6985, 8.578400
907.1807, 8.897797
907.6628, 9.384857
908.1449, 10.29218
908.6270, 12.57776
909.1091, 14.77197
909.5912, 14.78812
910.0734, 13.09540
910.5555, 11.79346
911.0376, 11.90808
911.5197, 12.44635
912.0018, 12.20706
912.4839, 12.71967
912.9661, 13.10266
913.4482, 13.13345
913.9303, 13.60834
914.4124, 13.22543
914.8945, 13.06284
915.3766, 14.01901
915.8588, 15.64862
916.3409, 16.62332
916.8230, 16.86554
917.3051, 17.12631
917.7872, 17.57520
918.2693, 17.80060
918.7515, 17.44357
919.2336, 16.86707
919.7157, 16.64584
920.1978, 16.80182
920.6799, 17.34073
921.1620, 19.30563
921.6442, 20.17236
922.1263, 18.31003
922.6084, 16.45200
923.0905, 16.60059
923.5726, 18.15741
924.0547, 19.64136
924.5369, 20.92099
925.0190, 21.50165
925.5011, 20.76389
925.9832, 19.66290
926.4653, 18.49438
926.9474, 17.68881
927.4296, 18.05185
927.9117, 19.37534
928.3938, 20.40958
928.8759, 20.31473
929.3580, 20.99234
929.8401, 20.24872
930.3223, 20.85281
930.8044, 20.62958
931.2865, 19.71451
931.7686, 19.17786
932.2507, 19.44440
932.7328, 19.98404
933.2150, 20.28070
933.6971, 20.34891
934.1792, 20.21725
934.6613, 19.88583
935.1434, 19.12231
935.6255, 17.82352
936.1077, 16.31094
936.5898, 14.63766
937.0719, 13.15302
937.5540, 12.64001
938.0361, 13.31912
938.5182, 13.65234
939.0004, 13.61917
939.4825, 13.25723
939.9646, 12.29678
940.4467, 11.28149
940.9288, 10.64746
941.4109, 10.37146
941.8931, 10.45737
942.3752, 11.80927
942.8573, 11.85025
943.3394, 8.828369
943.8215, 6.032104
944.3036, 5.458588
944.7858, 5.937958
945.2679, 5.791931
945.7500, 4.874512
946.2321, 4.328003
946.7142, 5.305969
947.1964, 5.920807
947.6785, 4.548126
948.1606, 2.589813
948.6427, 1.242523
949.1248, 0.7649230
949.6069, 1.735565
950.0891, 4.269897
950.5712, 6.172943
951.0533, 4.692200
951.5354, 1.768768
952.0175, 0.3680110
952.4996, 0.2333070
952.9818, 0.9888610
953.4639, 2.360901
953.9460, 3.076050
954.4281, 2.287628
954.9102, 0.8329470
955.3923, 3.6926001E-02
955.8745, 0.1236570
956.3566, 0.3632510
956.8387, 1.538727
957.3208, 2.441772
957.8029, 2.798187
958.2850, 2.701904
958.7672, 2.146057
959.2493, 1.294983
959.7314, 0.8579710
960.2135, 1.020172
960.6956, 0.8068240
961.1777, 0.4010930
961.6599, 0.7412410
962.1420, 1.054657
962.6241, 3.610504
963.1062, 5.442444
963.5883, 6.542847
964.0704, 6.668427
964.5526, 5.022705
965.0347, 3.621857
965.5168, 2.505554
965.9989, 1.812531
966.4810, 1.691895
966.9631, 2.011261
967.4453, 2.880005
967.9274, 4.357208
968.4095, 4.703522
968.8916, 2.377655
969.3737, 0.1467900
969.8558, 1.153931
970.3380, 1.493866
970.8201, 0.1781920
971.3022, 1.986359
971.7843, 3.075928
972.2664, 2.402893
972.7485, 1.586273
973.2307, 1.722351
973.7128, 2.218018
974.1949, 2.544006
974.6770, 2.787964
975.1591, 3.208771
975.6412, 3.760803
976.1234, 4.023499
976.6055, 3.719666
977.0876, 3.393097
977.5698, 3.590729
978.0519, 4.285553
978.5340, 5.819275
979.0161, 7.842804
979.4982, 8.710266
979.9803, 8.104095
980.4625, 7.732758
980.9446, 9.042114
981.4267, 11.18317
981.9088, 12.35220
982.3909, 12.62241
982.8730, 12.52560
983.3552, 12.08197
983.8373, 11.85944
984.3194, 12.09430
984.8015, 12.42337
985.2836, 12.34775
985.7657, 12.13687
986.2479, 13.43619
986.7300, 16.84048
987.2121, 18.41132
987.6942, 17.14322
988.1763, 16.07639
988.6584, 16.48746
989.1406, 18.05811
989.6227, 20.62985
990.1048, 24.15668
990.5869, 26.76974
991.0690, 28.19620
991.5511, 29.42981
992.0333, 30.22879
992.5154, 31.40662
992.9975, 33.38992
993.4796, 35.87598
993.9617, 38.45801
994.4438, 41.13248
994.9260, 44.01855
995.4081, 46.99719
995.8902, 50.49875
996.3723, 54.85648
996.8544, 59.49448
997.3365, 63.59845
997.8187, 67.86359
998.3008, 73.68500
998.7829, 81.35168
999.2650, 89.81921
999.7471, 98.45856
1000.229, 108.2913
1000.711, 119.5589
1001.193, 132.2932
1001.676, 146.1277
1002.158, 161.7593
1002.640, 180.3601
1003.122, 202.1793
1003.604, 227.7954
1004.086, 256.9958
1004.568, 291.0069
1005.050, 329.8839
1005.533, 374.8014
1006.015, 427.3927
1006.497, 487.4813
1006.979, 554.4725
1007.461, 628.3845
1007.943, 706.1796
1008.425, 792.3083
1008.907, 874.9932
1009.389, 946.1465
1009.872, 998.4158
1010.354, 1017.287
1010.836, 1001.247
1011.318, 954.7397
1011.800, 878.7495
1012.282, 787.8117
1012.764, 692.9409
1013.246, 598.8115
1013.729, 514.2426
1014.211, 439.4831
1014.693, 375.8203
1015.175, 323.1760
1015.657, 279.1764
1016.139, 242.4089
1016.621, 211.9128
1017.103, 186.9732
1017.585, 166.9116
1018.068, 148.7159
1018.550, 132.4321
1019.032, 118.7678
1019.514, 108.0277
1019.996, 99.25732
1020.478, 91.84933
1020.960, 85.43250
1021.442, 79.30060
1021.924, 73.45987
1022.407, 67.41632
1022.889, 61.13702
1023.371, 55.11624
1023.853, 49.44293
1024.335, 44.29025
1024.817, 39.74792
1025.299, 35.93298
1025.781, 33.47760
1026.264, 32.64474
1026.746, 30.70407
1027.228, 27.23792
1027.710, 24.25385
1028.192, 22.46960
1028.674, 21.44559
1029.156, 20.85605
1029.638, 20.48868
1030.120, 19.39618
1030.603, 17.27356
1031.085, 15.62091
1031.567, 14.66010
1032.049, 13.69275
1032.531, 12.38773
1033.013, 11.13821
1033.495, 10.42667
1033.977, 10.10172
1034.459, 9.347961
1034.942, 7.589172
1035.424, 6.826935
1035.906, 7.924561
1036.388, 8.538422
1036.870, 7.378479
1037.352, 5.927612
1037.834, 5.912384
1038.316, 5.008972
1038.799, 4.137970
1039.281, 4.367950
1039.763, 2.880585
1040.245, 2.806946
1040.727, 3.087463
1041.209, 3.823181
1041.691, 4.414612
1042.173, 4.131653
1042.656, 3.159241
1043.138, 2.494812
1043.620, 2.452484
1044.102, 2.158112
1044.584, 1.122742
1045.066, 0.3677370
1045.548, 0.6273190
1046.030, 1.060303
1046.512, 0.5851140
1046.995, 0.5019840
1047.477, 0.6668400
1047.959, 1.015900
1048.441, 1.875671
1048.923, 1.051819
1049.405, 8.7523997E-02
1049.887, 1.541168
1050.369, 2.611572
1050.851, 2.428528
1051.334, 1.234009
1051.816, 2.0781999E-02
1052.298, 1.415161
1052.780, 1.841949
1053.262, 0.2297060
1053.744, 1.914642
1054.226, 1.677307
1054.708, 0.5739140
1055.191, 0.6550290
1055.673, 1.736755
1056.155, 2.142914
1056.637, 1.629059
1057.119, 0.8808290
1057.601, 0.5249630
1058.083, 1.370178
1058.565, 0.4070740
1059.047, 0.9122620
1059.530, 0.9134220
1060.012, 3.3020001E-02
1060.494, 0.3184200
1060.976, 0.6502690
1061.458, 1.294678
1061.940, 0.7467350
1062.422, 0.1105040
1062.904, 0.3638920
1063.386, 0.3778380
1063.869, 1.006561
1064.351, 2.990631
1064.833, 3.233368
1065.315, 0.8712160
1065.797, 1.019440
1066.279, 1.094757
1066.761, 0.4889530
1067.243, 0.8173220
1067.726, 2.017212
1068.208, 2.303101
1068.690, 1.854614
1069.172, 1.035889
1069.654, 0.1215520
1070.136, 0.4495540
1070.618, 1.318817
1071.100, 3.101715
1071.583, 3.428528
1072.065, 3.571808
1072.547, 5.006073
1073.029, 7.151459
1073.511, 8.569702
1073.993, 8.933624
1074.475, 9.244446
1074.957, 9.848267
1075.439, 10.61462
1075.922, 11.32867
1076.404, 12.31018
1076.886, 14.49908
1077.368, 16.91031
1077.850, 17.32846
1078.332, 15.55429
1078.814, 14.64050
1079.296, 17.03256
1079.779, 18.99100
1080.261, 18.25693
1080.743, 16.82489
1081.225, 16.03992
1081.707, 15.83209
1082.189, 16.09818
1082.671, 16.68344
1083.153, 16.75739
1083.635, 15.37616
1084.118, 14.60950
1084.600, 16.61746
1085.082, 18.31094
1085.564, 16.70865
1086.046, 13.81342
1086.528, 12.72476
1087.010, 13.38568
1087.492, 13.24185
1087.974, 11.13269
1088.457, 9.044800
1088.939, 7.241028
1089.421, 6.302216
1089.903, 7.560608
1090.385, 9.231445
1090.867, 8.882507
1091.349, 6.882813
1091.831, 5.725281
1092.314, 6.370850
1092.796, 6.686707
1093.278, 5.543396
1093.760, 4.298645
1094.242, 3.294281
1094.724, 2.790466
1095.206, 3.229584
1095.688, 4.350220
1096.171, 5.613373
1096.653, 7.001251
1097.135, 7.747070
1097.617, 7.029633
1098.099, 6.398529
1098.581, 6.747070
1099.063, 7.153870
1099.545, 6.828674
1100.027, 6.030487
1100.510, 5.242798
1100.992, 4.530792
1101.474, 4.175873
1101.956, 4.539825
1102.438, 4.845367
1102.920, 4.629364
1103.402, 4.587463
1103.884, 5.217377
1104.366, 6.226135
1104.849, 7.465759
1105.331, 8.853271
1105.813, 9.170471
1106.295, 6.591919
1106.777, 5.323273
1107.259, 7.403412
1107.741, 9.006775
1108.223, 7.834808
1108.706, 5.901886
1109.188, 5.431702
1109.670, 6.201111
1110.152, 6.675873
1110.634, 6.815613
1111.116, 6.374908
1111.598, 4.645508
1112.080, 3.260590
1112.563, 2.844177
1113.045, 2.871887
1113.527, 2.963257
1114.009, 3.107819
1114.491, 3.315125
1114.973, 3.648010
1115.455, 3.720062
1115.937, 3.594025
1116.419, 3.230499
1116.901, 2.181702
1117.384, 1.425232
1117.866, 1.650726
1118.348, 2.430511
1118.830, 3.042389
1119.312, 3.421173
1119.794, 4.407928
1120.276, 6.545746
1120.758, 7.728027
1121.241, 7.476746
1121.723, 6.961548
1122.205, 6.461578
1122.687, 6.172241
1123.169, 6.387695
1123.651, 6.347107
1124.133, 6.538025
1124.615, 7.134430
1125.098, 7.560791
1125.580, 8.534546
1126.062, 9.674622
1126.544, 11.00339
1127.026, 11.97372
1127.508, 12.10065
1127.990, 11.52005
1128.472, 10.34567
1128.954, 8.472595
1129.437, 7.959473
1129.919, 8.884888
1130.401, 9.923340
1130.883, 10.80417
1131.365, 11.71808
1131.847, 12.82159
1132.329, 13.70612
1132.811, 13.66898
1133.293, 12.91562
1133.776, 12.47870
1134.258, 12.29532
1134.740, 11.74887
1135.222, 10.80450
1135.704, 9.994476
1136.186, 9.539948
1136.668, 9.435486
1137.150, 9.815094
1137.633, 10.20215
1138.115, 9.432190
1138.597, 8.932587
1139.079, 6.994629
1139.561, 6.540131
1140.043, 5.437317
1140.525, 3.557251
1141.007, 2.103363
1141.490, 1.890350
1141.972, 2.087128
1142.454, 1.674072
1142.936, 1.032349
1143.418, 0.8120420
1143.900, 0.8381960
1144.382, 0.8228760
1144.864, 0.6540530
1145.346, 6.6467002E-02
1145.828, 1.020569
1146.311, 1.895630
1146.793, 1.839294
1147.275, 1.521667
1147.757, 1.824127
1148.239, 2.001434
1148.721, 0.7231750
1149.203, 1.210541
1149.685, 2.135132
1150.168, 1.781586
1150.650, 1.036682
1151.132, 0.2039490
1151.614, 0.6179810
1152.096, 1.518555
1152.578, 3.544434
1153.060, 2.985321
1153.542, 1.775818
1154.025, 2.428619
1154.507, 4.563538
1154.989, 6.197906
1155.471, 6.924835
1155.953, 7.195496
1156.435, 6.463135
1156.917, 6.199554
1157.399, 7.003326
1157.881, 8.304474
1158.364, 10.29776
1158.846, 12.24643
1159.328, 12.76211
1159.810, 11.76581
1160.292, 11.24075
1160.774, 10.99991
1161.256, 11.63522
1161.738, 13.75644
1162.220, 15.82889
1162.703, 17.43085
1163.185, 18.56995
1163.667, 19.15506
1164.149, 19.34195
1164.631, 19.61133
1165.113, 19.91412
1165.595, 20.69556
1166.077, 22.15909
1166.560, 23.23434
1167.042, 23.70837
1167.524, 23.61981
1168.006, 22.84247
1168.488, 22.09412
1168.970, 22.49991
1169.452, 23.84439
1169.934, 25.19894
1170.417, 26.52271
1170.899, 27.26697
1171.381, 27.37222
1171.863, 26.66055
1172.345, 25.11246
1172.827, 23.75870
1173.309, 23.50665
1173.791, 23.61987
1174.273, 22.83789
1174.755, 21.50037
1175.238, 20.23654
1175.720, 19.15314
1176.202, 18.70447
1176.684, 18.71201
1177.166, 18.10547
1177.648, 16.42606
1178.130, 14.60709
1178.612, 13.42157
1179.095, 12.48242
1179.577, 11.22998
1180.059, 10.12390
1180.541, 9.804718
1181.023, 10.04663
1181.505, 10.28064
1181.987, 10.46155
1182.469, 11.17535
1182.952, 13.20712
1183.434, 14.19724
1183.916, 11.78787
1184.398, 9.622498
1184.880, 10.23358
1185.362, 11.59985
1185.844, 11.45218
1186.326, 10.49054
1186.808, 10.99927
1187.291, 13.51306
1187.773, 14.65405
1188.255, 12.60721
1188.737, 11.52292
1189.219, 12.59695
1189.701, 13.64594
1190.183, 13.67300
1190.665, 13.34119
1191.147, 13.55698
1191.630, 14.18793
1192.112, 14.31683
1192.594, 13.76285
1193.076, 12.95874
1193.558, 11.77374
1194.040, 11.40909
1194.522, 12.24902
1195.004, 13.54706
1195.487, 14.84225
1195.969, 15.83694
1196.451, 16.04544
1196.933, 17.23422
1197.415, 16.81458
1197.897, 18.62073
1198.379, 19.47696
1198.861, 19.40759
1199.344, 19.48376
1199.826, 20.04675
1200.308, 21.06537
1200.790, 22.60928
1201.272, 23.91937
1201.754, 23.53311
1202.236, 22.81012
1202.718, 24.16272
1203.200, 26.30289
1203.682, 26.82837
1204.165, 25.98328
1204.647, 25.23035
1205.129, 25.03271
1205.611, 25.44101
1206.093, 27.19409
1206.575, 28.48962
1207.057, 27.62161
1207.539, 26.68106
1208.022, 27.35742
1208.504, 28.59924
1208.986, 29.19971
1209.468, 29.14868
1209.950, 28.83755
1210.432, 28.25589
1210.914, 27.56607
1211.396, 26.95950
1211.879, 25.91431
1212.361, 23.99582
1212.843, 22.16925
1213.325, 20.76636
1213.807, 19.95944
1214.289, 20.11221
1214.771, 20.93942
1215.253, 20.99002
1215.735, 20.18945
1216.218, 19.03409
1216.700, 17.41486
1217.182, 17.39313
1217.664, 19.52872
1218.146, 21.20670
1218.628, 20.87842
1219.110, 19.43945
1219.592, 17.77994
1220.074, 16.20947
1220.557, 15.54205
1221.039, 15.54938
1221.521, 15.73685
1222.003, 16.00055
1222.485, 16.31900
1222.967, 16.61276
1223.449, 16.48712
1223.931, 15.65408
1224.414, 14.72629
1224.896, 13.86716
1225.378, 13.50571
1225.860, 14.58310
1226.342, 15.71442
1226.824, 15.18027
1227.306, 13.66803
1227.788, 12.64414
1228.271, 12.32196
1228.753, 12.32126
1229.235, 12.60193
1229.717, 13.14362
1230.199, 14.98584
1230.681, 15.63516
1231.163, 13.23608
1231.645, 10.77029
1232.127, 10.43884
1232.609, 11.49411
1233.092, 12.67325
1233.574, 13.94864
1234.056, 14.04172
1234.538, 12.77512
1235.020, 11.68048
1235.502, 10.88300
1235.984, 10.48151
1236.466, 10.52017
1236.949, 10.81113
1237.431, 11.32413
1237.913, 11.26440
1238.395, 8.388184
1238.877, 4.466187
1239.359, 4.254333
1239.841, 6.250214
1240.323, 6.946228
1240.806, 6.253113
1241.288, 5.484528
1241.770, 5.029022
1242.252, 4.445313
1242.734, 3.304138
1243.216, 2.467499
1243.698, 2.806152
1244.180, 3.285736
1244.662, 3.114868
1245.145, 2.780273
1245.627, 3.089447
1246.109, 3.567047
1246.591, 2.844177
1247.073, 0.6900940
1247.555, 0.4986570
1248.037, 0.2299190
1248.519, 0.3212590
1249.001, 0.9062810
1249.484, 1.545532
1249.966, 0.7451170
1250.448, 0.2943420
1250.930, 0.7026060
1251.412, 0.5605470
1251.894, 0.1513060
1252.376, 1.254547
1252.858, 1.379852
1253.341, 0.5834350
1253.823, 0.9255370
1254.305, 2.937653
1254.787, 4.321960
1255.269, 4.736755
1255.751, 4.518860
1256.233, 3.842987
1256.715, 2.973785
1257.198, 1.824036
1257.680, 1.004913
1258.162, 1.511200
1258.644, 2.530518
1259.126, 3.203613
1259.608, 3.457214
1260.090, 3.244873
1260.572, 2.656525
1261.054, 2.389801
1261.536, 2.699768
1262.019, 3.173065
1262.501, 4.077271
1262.983, 4.623077
1263.465, 4.140839
1263.947, 3.764343
1264.429, 4.222198
1264.911, 5.150818
1265.393, 6.010040
1265.876, 6.757294
1266.358, 6.190369
1266.840, 5.242676
1267.322, 3.750244
1267.804, 1.151978
1268.286, 0.5523380
1268.768, 2.065063
1269.250, 3.392456
1269.733, 3.441681
1270.215, 2.697540
1270.697, 1.387238
1271.179, 0.5077820
1271.661, 2.170776
1272.143, 4.451111
1272.625, 4.347839
1273.107, 2.952759
1273.589, 2.653320
1274.072, 3.450867
1274.554, 3.734558
1275.036, 2.965546
1275.518, 2.143524
1276.000, 1.821136
1276.482, 1.524017
1276.964, 0.7862850
1277.446, 0.5646360
1277.929, 1.196594
1278.411, 2.007538
1278.893, 2.482117
1279.375, 2.556122
1279.857, 1.776642
1280.339, 0.1406250
1280.821, 3.9184999E-02
1281.303, 1.258148
1281.786, 0.9705510
1282.268, 0.0000000E+00
##END=



