##NAMES=Takedaite
##RRUFFID=R140795
##IDEAL CHEMISTRY=Ca_3_B_2_O_6_
##LOCALITY=Fuka mine, Bitchu-cho-fuka, Takahashi City, Okayama Prefecture, Chugoku Region, Honshu Island, Japan
##OWNER=RRUFF
##SOURCE=Rock Currier
##DESCRIPTION=Gray-white granular associated with nifontovite
##STATUS=The identification of this mineral has been confirmed by single-crystal X-ray diffraction.
##URL=rruff.info/R140795
108.7952, 0.0000000E+00
109.2773, 4.1320998E-02
109.7594, 0.3210910
110.2415, 0.9516910
110.7236, 1.599472
111.2058, 1.126053
111.6879, 0.3036500
112.1700, 8.2199000E-02
112.6521, 0.5601810
113.1342, 1.927536
113.6163, 2.946930
114.0985, 3.093643
114.5806, 2.951004
115.0627, 3.284592
115.5448, 3.899338
116.0269, 4.185898
116.5090, 3.493652
116.9912, 1.861160
117.4733, 0.7847600
117.9554, 0.2869260
118.4375, 3.6651999E-02
118.9196, 2.4261000E-02
119.4017, 0.3273620
119.8839, 0.9647220
120.3660, 1.937729
120.8481, 3.200256
121.3302, 3.996582
121.8123, 4.414688
122.2944, 4.568130
122.7766, 4.401474
123.2587, 3.905350
123.7408, 3.193588
124.2229, 2.533478
124.7050, 1.815109
125.1871, 1.230453
125.6693, 0.6374050
126.1514, 0.2336880
126.6335, 0.3945160
127.1156, 1.373199
127.5977, 2.830292
128.0798, 3.627487
128.5620, 3.656342
129.0441, 3.424377
129.5262, 3.065933
130.0083, 2.585587
130.4904, 2.004700
130.9725, 1.214439
131.4547, 0.4081650
131.9368, 4.6349000E-02
132.4189, 2.2179000E-02
132.9010, 0.2300570
133.3831, 0.5165560
133.8652, 0.8575210
134.3474, 1.131012
134.8295, 1.189217
135.3116, 1.171753
135.7937, 1.222771
136.2758, 1.396904
136.7579, 1.674698
137.2401, 2.038872
137.7222, 2.669563
138.2043, 3.124649
138.6864, 3.136154
139.1685, 2.912788
139.6507, 2.820816
140.1328, 3.164978
140.6149, 3.922264
141.0970, 4.448189
141.5791, 4.392479
142.0612, 4.624901
142.5434, 5.317215
143.0255, 6.284142
143.5076, 7.428375
143.9897, 8.761818
144.4718, 10.38542
144.9539, 11.78565
145.4361, 12.93895
145.9182, 13.74949
146.4003, 14.11565
146.8824, 14.12588
147.3645, 14.16893
147.8466, 14.68055
148.3288, 15.79637
148.8109, 16.97024
149.2930, 18.14660
149.7751, 19.31711
150.2572, 20.56924
150.7393, 21.92270
151.2215, 23.29204
151.7036, 24.52123
152.1857, 25.61454
152.6678, 26.78261
153.1499, 28.15963
153.6320, 29.67097
154.1142, 31.10769
154.5963, 32.43093
155.0784, 33.66161
155.5605, 34.83746
156.0426, 35.95635
156.5247, 37.02748
157.0069, 38.06422
157.4890, 39.06615
157.9711, 39.99083
158.4532, 40.89093
158.9353, 41.64829
159.4174, 42.27879
159.8996, 42.77014
160.3817, 42.89915
160.8638, 42.40398
161.3459, 41.24309
161.8280, 39.54924
162.3102, 37.03923
162.7923, 34.25301
163.2744, 31.52047
163.7565, 28.92945
164.2386, 26.42567
164.7207, 23.83704
165.2029, 21.01456
165.6850, 18.40549
166.1671, 16.02299
166.6492, 14.10619
167.1313, 12.36858
167.6134, 10.81568
168.0956, 9.462952
168.5777, 8.362465
169.0598, 7.925362
169.5419, 7.275421
170.0240, 6.167793
170.5061, 4.851791
170.9883, 3.619484
171.4704, 2.597565
171.9525, 1.795555
172.4346, 1.304016
172.9167, 1.404221
173.3988, 1.422615
173.8810, 1.109467
174.3631, 0.5534060
174.8452, 4.2534001E-02
175.3273, 0.6005400
175.8094, 1.075287
176.2915, 1.341019
176.7737, 1.300598
177.2558, 1.170799
177.7379, 1.059792
178.2200, 0.9688950
178.7021, 0.9006200
179.1842, 0.8666990
179.6664, 0.8577120
180.1485, 0.8616330
180.6306, 0.9256590
181.1127, 0.9537660
181.5948, 0.8099440
182.0769, 0.4653240
182.5591, 0.1135480
183.0412, 0.1611180
183.5233, 0.3780440
184.0054, 0.5526280
184.4875, 0.7068250
184.9696, 0.8254850
185.4518, 0.8462070
185.9339, 0.7018970
186.4160, 0.5903090
186.8981, 0.6392590
187.3802, 0.7391590
187.8623, 0.7433170
188.3445, 0.5479660
188.8266, 0.2428130
189.3087, 0.1423260
189.7908, 0.3292390
190.2729, 0.6391140
190.7550, 0.9627690
191.2372, 1.385834
191.7193, 2.056480
192.2014, 3.085815
192.6835, 4.407204
193.1656, 5.576263
193.6477, 6.571594
194.1299, 7.408089
194.6120, 8.032417
195.0941, 8.504036
195.5762, 8.918907
196.0583, 9.344719
196.5404, 9.768112
197.0226, 9.999214
197.5047, 9.631767
197.9868, 9.509293
198.4689, 9.990349
198.9510, 10.91627
199.4331, 11.87459
199.9153, 12.55273
200.3974, 12.97078
200.8795, 13.83179
201.3616, 15.47349
201.8437, 17.12892
202.3258, 18.40965
202.8080, 19.39208
203.2901, 20.42380
203.7722, 21.75589
204.2543, 23.38634
204.7364, 25.07259
205.2185, 26.50964
205.7007, 28.24183
206.1828, 30.61100
206.6649, 33.60395
207.1470, 36.96982
207.6291, 40.49255
208.1112, 44.29626
208.5934, 48.70387
209.0755, 54.02983
209.5576, 59.76848
210.0397, 65.70244
210.5218, 71.86645
211.0039, 77.59726
211.4861, 83.01318
211.9682, 87.53728
212.4503, 90.03104
212.9324, 90.22778
213.4145, 88.31123
213.8967, 84.06428
214.3788, 77.11491
214.8609, 69.53155
215.3430, 61.92102
215.8251, 54.48961
216.3072, 47.51784
216.7894, 40.85671
217.2715, 34.82327
217.7536, 30.04423
218.2357, 26.84019
218.7178, 24.05186
219.1999, 21.09667
219.6821, 18.24105
220.1642, 15.82999
220.6463, 14.01883
221.1284, 12.70588
221.6105, 11.68336
222.0926, 11.06802
222.5748, 10.53153
223.0569, 9.957500
223.5390, 9.400223
224.0211, 8.920605
224.5032, 8.550613
224.9853, 8.260620
225.4675, 7.932354
225.9496, 7.371185
226.4317, 7.128864
226.9138, 7.396198
227.3959, 7.965782
227.8780, 8.618034
228.3602, 9.247681
228.8423, 9.889435
229.3244, 10.68489
229.8065, 11.80761
230.2886, 12.84880
230.7707, 13.68616
231.2529, 14.45964
231.7350, 15.39590
232.2171, 16.60506
232.6992, 17.88660
233.1813, 18.62344
233.6634, 18.17638
234.1456, 17.93731
234.6277, 18.11343
235.1098, 18.55568
235.5919, 19.05099
236.0740, 19.49480
236.5561, 19.96671
237.0383, 20.72219
237.5204, 22.19744
238.0025, 23.43468
238.4846, 24.16597
238.9667, 24.71571
239.4488, 25.41965
239.9310, 26.42274
240.4131, 27.74258
240.8952, 29.44057
241.3773, 31.46923
241.8594, 33.94673
242.3415, 36.79935
242.8237, 40.12740
243.3058, 43.97012
243.7879, 48.34117
244.2700, 53.38186
244.7521, 59.59938
245.2342, 67.51521
245.7164, 75.45233
246.1985, 83.37875
246.6806, 91.13406
247.1627, 99.00000
247.6448, 107.3411
248.1269, 114.6072
248.6091, 118.1331
249.0912, 118.3934
249.5733, 114.6427
250.0554, 104.6576
250.5375, 91.08081
251.0196, 77.33637
251.5018, 64.11313
251.9839, 51.95712
252.4660, 41.92613
252.9481, 33.82950
253.4302, 27.12690
253.9123, 21.91739
254.3945, 17.96376
254.8766, 15.01267
255.3587, 13.10760
255.8408, 11.83461
256.3229, 10.85667
256.8051, 10.13367
257.2872, 9.580086
257.7693, 9.103600
258.2514, 8.795040
258.7335, 8.847191
259.2156, 9.338692
259.6978, 9.993351
260.1799, 10.61143
260.6620, 11.19490
261.1441, 11.70974
261.6262, 12.18052
262.1083, 12.56605
262.5905, 12.78019
263.0726, 12.78713
263.5547, 12.72990
264.0368, 12.67312
264.5189, 12.63211
265.0010, 12.65234
265.4832, 12.71063
265.9653, 12.85296
266.4474, 13.16645
266.9295, 13.67332
267.4116, 14.27175
267.8937, 14.84525
268.3759, 15.48005
268.8580, 16.32545
269.3401, 17.41540
269.8222, 18.74545
270.3043, 20.35041
270.7864, 22.27344
271.2686, 24.28160
271.7507, 25.97901
272.2328, 27.81782
272.7149, 30.34010
273.1970, 33.76321
273.6791, 37.78534
274.1613, 42.09765
274.6434, 46.81023
275.1255, 51.41918
275.6076, 56.04463
276.0897, 60.33694
276.5718, 64.24237
277.0540, 67.87578
277.5361, 70.32771
278.0182, 70.49615
278.5003, 68.24969
278.9824, 64.59102
279.4645, 58.74018
279.9467, 52.12833
280.4288, 45.41465
280.9109, 38.72575
281.3930, 32.49012
281.8751, 27.11877
282.3572, 22.63369
282.8394, 18.84079
283.3215, 16.08943
283.8036, 13.80735
284.2857, 11.74003
284.7678, 9.868637
285.2499, 8.184666
285.7321, 6.671673
286.2142, 5.333065
286.6963, 4.270725
287.1784, 3.667603
287.6605, 3.192707
288.1426, 2.723934
288.6248, 2.249886
289.1069, 1.773712
289.5890, 1.268669
290.0711, 0.7436710
290.5532, 0.3573910
291.0353, 0.2391430
291.5175, 0.1027870
291.9996, 0.2163390
292.4817, 0.6311420
292.9638, 0.9752850
293.4459, 1.152664
293.9280, 1.179317
294.4102, 1.101498
294.8923, 0.8011130
295.3744, 0.5835040
295.8565, 0.5929110
296.3386, 0.7103840
296.8207, 0.7844350
297.3029, 0.7397990
297.7850, 0.6166110
298.2671, 0.5332980
298.7492, 0.5861510
299.2313, 0.4713020
299.7134, 4.4403002E-02
300.1956, 0.5156140
300.6777, 1.053169
301.1598, 1.516674
301.6419, 1.942589
302.1240, 2.383209
302.6061, 2.830490
303.0883, 3.315880
303.5704, 3.910614
304.0525, 4.499554
304.5346, 4.978951
305.0167, 5.338680
305.4988, 5.681862
305.9810, 6.146553
306.4631, 6.765781
306.9452, 7.348385
307.4273, 7.793644
307.9094, 8.269642
308.3915, 8.785206
308.8737, 9.383854
309.3558, 10.19087
309.8379, 11.38155
310.3200, 12.98435
310.8021, 14.46281
311.2842, 15.55949
311.7664, 16.79879
312.2485, 18.41211
312.7306, 20.30822
313.2127, 22.30776
313.6948, 24.33212
314.1769, 26.34146
314.6591, 28.10011
315.1412, 29.46181
315.6233, 30.75801
316.1054, 32.09210
316.5875, 33.42428
317.0696, 34.75257
317.5518, 36.11386
318.0339, 37.35265
318.5160, 38.03028
318.9981, 37.95211
319.4802, 37.67797
319.9623, 37.31557
320.4445, 36.88001
320.9266, 36.29059
321.4087, 35.50229
321.8908, 34.73464
322.3729, 34.38749
322.8550, 34.51817
323.3372, 34.97754
323.8193, 35.88997
324.3014, 37.01286
324.7835, 38.23751
325.2656, 39.54271
325.7477, 40.96297
326.2299, 42.43270
326.7120, 43.90279
327.1941, 45.94691
327.6762, 48.98165
328.1583, 52.26069
328.6404, 55.34251
329.1226, 58.38236
329.6047, 61.86420
330.0868, 66.19660
330.5689, 71.26840
331.0510, 76.41051
331.5331, 81.60281
332.0153, 86.92301
332.4974, 92.70615
332.9795, 98.53567
333.4616, 103.9072
333.9437, 108.6966
334.4258, 112.7090
334.9080, 115.4917
335.3901, 117.0430
335.8722, 117.3076
336.3543, 116.4159
336.8365, 114.2718
337.3186, 110.4907
337.8007, 104.9270
338.2828, 98.39839
338.7649, 91.76096
339.2470, 85.03941
339.7292, 78.23513
340.2113, 70.89079
340.6934, 63.85729
341.1755, 57.69006
341.6576, 52.41095
342.1397, 47.64668
342.6219, 43.13952
343.1040, 38.90796
343.5861, 35.10801
344.0682, 31.83976
344.5503, 28.93684
345.0324, 26.22595
345.5146, 23.73675
345.9967, 21.55855
346.4788, 19.80589
346.9609, 18.38556
347.4430, 17.10154
347.9251, 15.97226
348.4073, 14.93110
348.8894, 13.88456
349.3715, 12.92265
349.8536, 12.20806
350.3357, 11.89956
350.8178, 11.64339
351.3000, 10.89774
351.7821, 9.617184
352.2642, 8.533638
352.7463, 7.945801
353.2284, 7.664295
353.7105, 7.538395
354.1927, 7.580891
354.6748, 7.520821
355.1569, 7.104202
355.6390, 6.412922
356.1211, 5.787258
356.6032, 5.269836
357.0854, 4.859776
357.5675, 4.583611
358.0496, 4.407448
358.5317, 4.230015
359.0138, 3.934582
359.4959, 3.639366
359.9781, 3.602894
360.4602, 3.890911
360.9423, 4.089981
361.4244, 3.823853
361.9065, 3.255157
362.3886, 2.789455
362.8708, 2.476730
363.3529, 2.287823
363.8350, 2.264462
364.3171, 2.379257
364.7992, 2.445694
365.2813, 2.383965
365.7635, 2.220955
366.2456, 2.012241
366.7277, 1.749981
367.2098, 1.478775
367.6919, 1.168697
368.1740, 0.8731770
368.6562, 0.6928330
369.1383, 0.6598320
369.6204, 0.7169080
370.1025, 0.8287200
370.5846, 1.004597
371.0667, 1.103889
371.5489, 1.090416
372.0310, 1.003708
372.5131, 0.8321610
372.9952, 0.5926550
373.4773, 0.4235950
373.9594, 0.4536400
374.4416, 0.6552350
374.9237, 0.7216070
375.4058, 0.5797460
375.8879, 0.3998340
376.3700, 0.2636570
376.8521, 0.1367840
377.3343, 0.1003110
377.8164, 0.5261000
378.2985, 0.9764980
378.7806, 1.048141
379.2627, 0.4074860
379.7448, 5.1631998E-02
380.2270, 0.1379780
380.7091, 9.0190999E-02
381.1912, 0.1546630
381.6733, 0.3684540
382.1554, 0.5712620
382.6375, 0.5735700
383.1197, 0.3214260
383.6018, 0.1339230
384.0839, 2.9381000E-02
384.5660, 4.1164000E-02
385.0481, 8.2638003E-02
385.5302, 0.1077880
386.0124, 0.1445160
386.4945, 0.2157590
386.9766, 0.3049010
387.4587, 0.3231160
387.9408, 0.1800730
388.4229, 7.1400002E-02
388.9051, 5.7799999E-02
389.3872, 6.8020001E-02
389.8693, 7.4459999E-03
390.3514, 0.1489680
390.8335, 0.3174060
391.3156, 0.3463590
391.7978, 0.1494750
392.2799, 5.0078999E-02
392.7620, 0.1517640
393.2441, 0.2582630
393.7262, 0.2476540
394.2083, 0.1419260
394.6905, 5.7879999E-02
395.1726, 0.1091230
395.6547, 0.2738720
396.1368, 0.3167340
396.6189, 0.1376150
397.1010, 2.2880999E-02
397.5832, 0.1012040
398.0653, 0.1164630
398.5474, 0.1017650
399.0295, 7.6210000E-02
399.5116, 1.5069999E-03
399.9937, 0.2724800
400.4759, 0.8221400
400.9580, 1.116848
401.4401, 0.7711030
401.9222, 0.3053860
402.4043, 5.8800001E-02
402.8864, 5.4295000E-02
403.3686, 0.1473770
403.8507, 0.2730030
404.3328, 0.4175490
404.8149, 0.5265390
405.2970, 0.6063160
405.7791, 0.6263010
406.2613, 0.5651820
406.7434, 0.4323690
407.2255, 0.2231410
407.7076, 0.1730000
408.1897, 0.5431880
408.6718, 0.6245630
409.1540, 0.4255620
409.6361, 0.1405940
410.1182, 0.2158090
410.6003, 0.5534170
411.0824, 0.7127800
411.5645, 0.6538540
412.0467, 0.5889910
412.5288, 0.6395190
413.0109, 0.7380370
413.4930, 0.7464730
413.9751, 0.6290700
414.4572, 0.5016960
414.9394, 0.4862770
415.4215, 0.5897390
415.9036, 0.6897870
416.3857, 0.8087100
416.8678, 0.8999330
417.3499, 0.8913570
417.8321, 0.8193150
418.3142, 0.8220370
418.7963, 0.9928320
419.2784, 1.263842
419.7605, 1.398775
420.2426, 1.330969
420.7248, 1.226746
421.2069, 1.020874
421.6890, 0.8297520
422.1711, 0.7959940
422.6532, 0.9423500
423.1353, 1.162884
423.6175, 1.351999
424.0996, 1.543201
424.5817, 1.519644
425.0638, 0.9294950
425.5459, 0.5053370
426.0280, 0.6895850
426.5102, 1.251829
426.9923, 1.693995
427.4744, 1.715025
427.9565, 1.455194
428.4386, 1.395119
428.9207, 1.708069
429.4029, 1.905638
429.8850, 1.825432
430.3671, 1.686260
430.8492, 1.693214
431.3313, 1.865650
431.8134, 2.026560
432.2956, 1.940432
432.7777, 1.596746
433.2598, 1.413462
433.7419, 1.477900
434.2241, 1.609901
434.7062, 1.774479
435.1883, 1.923515
435.6704, 1.954788
436.1525, 1.776134
436.6346, 1.551197
437.1168, 1.558529
437.5989, 1.800171
438.0810, 2.079571
438.5631, 2.405893
439.0452, 2.678455
439.5273, 2.772043
440.0095, 2.670490
440.4916, 2.543228
440.9737, 2.420856
441.4558, 2.345394
441.9379, 2.437860
442.4200, 2.738445
442.9022, 3.056911
443.3843, 3.266771
443.8664, 3.359135
444.3485, 3.341293
444.8306, 3.119581
445.3127, 2.882759
445.7949, 2.726364
446.2770, 2.642185
446.7591, 2.630756
447.2412, 2.707533
447.7233, 2.796970
448.2054, 2.724316
448.6876, 2.280478
449.1697, 2.147724
449.6518, 2.668024
450.1339, 3.275496
450.6160, 3.546211
451.0981, 3.470430
451.5803, 3.272896
452.0624, 3.129635
452.5445, 3.045561
453.0266, 2.939287
453.5087, 2.655485
453.9908, 2.492050
454.4730, 2.556152
454.9551, 2.724144
455.4372, 2.881685
455.9193, 2.990801
456.4014, 3.060156
456.8835, 3.103531
457.3657, 3.089239
457.8478, 3.106415
458.3299, 2.972948
458.8120, 2.822830
459.2941, 2.668903
459.7762, 2.525471
460.2584, 2.420029
460.7405, 2.394541
461.2226, 2.410963
461.7047, 2.364912
462.1868, 2.232533
462.6689, 2.150528
463.1511, 2.184059
463.6332, 2.267956
464.1153, 2.341003
464.5974, 2.401630
465.0795, 2.465565
465.5616, 2.559362
466.0438, 2.642357
466.5259, 2.648396
467.0080, 2.583149
467.4901, 2.476021
467.9722, 2.295115
468.4543, 2.071032
468.9365, 1.989435
469.4186, 2.149357
469.9007, 2.328367
470.3828, 2.421412
470.8649, 2.450699
471.3470, 2.416647
471.8292, 2.316641
472.3113, 2.243454
472.7934, 2.363081
473.2755, 2.817286
473.7576, 3.041756
474.2397, 2.813433
474.7219, 2.558254
475.2040, 2.561386
475.6861, 2.763647
476.1682, 2.940681
476.6503, 2.951237
477.1324, 2.852098
477.6146, 2.786362
478.0967, 2.781946
478.5788, 2.739594
479.0609, 2.640745
479.5430, 2.525364
480.0251, 2.391689
480.5073, 2.242531
480.9894, 2.101349
481.4715, 1.978762
481.9536, 1.876755
482.4357, 1.825483
482.9178, 1.858696
483.4000, 1.877251
483.8821, 1.785940
484.3642, 1.683420
484.8463, 1.732790
485.3284, 2.022955
485.8105, 2.280758
486.2927, 2.174620
486.7748, 1.773127
487.2569, 1.499254
487.7390, 1.475292
488.2211, 1.526955
488.7032, 1.430168
489.1854, 1.229792
489.6675, 1.184191
490.1496, 1.508522
490.6317, 1.844120
491.1138, 1.859083
491.5959, 1.631193
492.0781, 1.483114
492.5602, 1.590801
493.0423, 1.802042
493.5244, 1.772659
494.0065, 1.323547
494.4886, 0.9718550
494.9708, 0.7336290
495.4529, 0.6007440
495.9350, 0.6028750
496.4171, 0.7122990
496.8992, 0.8456420
497.3813, 0.9457800
497.8635, 1.009443
498.3456, 1.020573
498.8277, 0.9783190
499.3098, 0.8763830
499.7919, 0.6042440
500.2740, 0.3461060
500.7562, 0.3044590
501.2383, 0.4947930
501.7204, 0.7072140
502.2025, 0.6884190
502.6846, 0.4692650
503.1667, 0.4398670
503.6489, 0.7387830
504.1310, 0.9651510
504.6131, 0.8103620
505.0952, 0.4864330
505.5773, 0.3096750
506.0594, 0.3976360
506.5416, 0.5304600
507.0237, 0.5148530
507.5058, 0.3949850
507.9879, 0.3407360
508.4700, 0.4141010
508.9521, 0.4689200
509.4343, 0.2730730
509.9164, 0.1672130
510.3985, 0.2989810
510.8806, 0.2050510
511.3627, 0.7389090
511.8448, 0.9906520
512.3270, 1.006800
512.8091, 0.9046670
513.2912, 0.7299060
513.7733, 0.5256120
514.2554, 0.3640900
514.7375, 0.2230700
515.2197, 0.1877120
515.7018, 0.3420070
516.1839, 0.5077550
516.6660, 0.6148950
517.1481, 0.6562290
517.6302, 0.6378670
518.1124, 0.5598700
518.5945, 0.4345970
519.0766, 0.2794880
519.5587, 6.3588999E-02
520.0408, 8.4014997E-02
520.5229, 0.1068760
521.0051, 7.0251003E-02
521.4872, 5.5889999E-03
521.9693, 0.1107650
522.4514, 0.2089000
522.9335, 0.2552720
523.4156, 0.2883510
523.8978, 0.4322280
524.3799, 0.7018170
524.8620, 0.8064520
525.3441, 0.5133800
525.8262, 3.5231002E-02
526.3083, 0.1652200
526.7905, 4.7050002E-03
527.2726, 0.1295190
527.7547, 3.8538001E-02
528.2368, 8.4591001E-02
528.7189, 4.1278999E-02
529.2010, 0.4007150
529.6832, 0.6729720
530.1653, 0.5986210
530.6474, 0.2394030
531.1295, 1.5411000E-02
531.6116, 1.4250000E-03
532.0938, 3.7811000E-02
532.5759, 0.2297650
533.0580, 0.3922040
533.5401, 0.2856600
534.0222, 7.5466000E-02
534.5043, 0.3935810
534.9865, 0.3379590
535.4686, 4.4132002E-02
535.9507, 0.1812820
536.4328, 8.6056001E-02
536.9149, 0.2980690
537.3970, 0.2332320
537.8792, 5.7234000E-02
538.3613, 6.2369999E-02
538.8434, 9.0443000E-02
539.3255, 9.9514000E-02
539.8076, 0.1704830
540.2897, 0.2630860
540.7719, 0.2445010
541.2540, 8.1225999E-02
541.7361, 7.2154999E-02
542.2182, 0.1174300
542.7003, 5.5201001E-02
543.1824, 7.5567000E-02
543.6646, 0.3788170
544.1467, 0.6132030
544.6288, 0.7119240
545.1109, 0.6882040
545.5930, 0.5021420
546.0751, 0.1671980
546.5573, 0.1485040
547.0394, 0.2749600
547.5215, 0.2084160
548.0036, 8.7073997E-02
548.4857, 0.2558270
548.9678, 0.4601780
549.4500, 0.3141370
549.9321, 6.9481000E-02
550.4142, 1.5291000E-02
550.8963, 0.2210290
551.3784, 0.5105710
551.8605, 0.7159730
552.3427, 0.8385680
552.8248, 0.8920520
553.3069, 0.8542310
553.7890, 0.7934700
554.2711, 0.7456050
554.7532, 0.7004510
555.2354, 0.6302680
555.7175, 0.5005260
556.1996, 0.4274180
556.6817, 0.5702780
557.1638, 0.8051780
557.6459, 0.8592910
558.1281, 0.6802670
558.6102, 0.4390070
559.0923, 0.2752130
559.5744, 0.1858020
560.0565, 0.1019000
560.5386, 6.6311002E-02
561.0208, 0.1212560
561.5029, 0.1297210
561.9850, 0.4440460
562.4671, 0.4951270
562.9492, 0.2442970
563.4313, 2.7632000E-02
563.9135, 1.7038001E-02
564.3956, 0.2706780
564.8777, 0.5491920
565.3598, 0.9363370
565.8419, 1.114605
566.3240, 0.7947850
566.8062, 0.3449860
567.2883, 0.1823880
567.7704, 0.3878270
568.2525, 0.6462520
568.7346, 0.7372800
569.2167, 0.6991210
569.6989, 0.6757030
570.1810, 0.6771340
570.6631, 0.7106700
571.1452, 0.7815440
571.6273, 0.8894410
572.1094, 1.033016
572.5916, 1.276255
573.0737, 1.439117
573.5558, 1.449947
574.0379, 1.371365
574.5200, 1.215296
575.0021, 1.015930
575.4843, 0.8897230
575.9664, 0.9265690
576.4485, 1.118782
576.9306, 1.445713
577.4127, 2.107719
577.8948, 2.568449
578.3770, 2.744007
578.8591, 2.735373
579.3412, 2.495983
579.8233, 2.096399
580.3054, 1.849100
580.7875, 2.069395
581.2697, 2.570765
581.7518, 2.889534
582.2339, 3.013355
582.7161, 3.065769
583.1982, 3.073177
583.6803, 3.050465
584.1624, 2.979555
584.6445, 2.856077
585.1266, 2.885855
585.6088, 3.252045
586.0909, 3.690346
586.5730, 3.983570
587.0551, 4.147474
587.5372, 4.307077
588.0193, 4.527121
588.5015, 4.772257
588.9836, 4.948792
589.4657, 4.926693
589.9478, 5.130939
590.4299, 5.743549
590.9120, 6.381649
591.3942, 6.766678
591.8763, 7.037647
592.3584, 7.519066
592.8405, 8.427629
593.3226, 9.528841
593.8047, 10.41865
594.2869, 11.09908
594.7690, 11.80323
595.2511, 12.56025
595.7332, 13.43184
596.2153, 14.53457
596.6974, 15.79671
597.1796, 16.97891
597.6617, 17.85809
598.1438, 18.85905
598.6259, 20.35536
599.1080, 22.08947
599.5901, 23.52189
600.0723, 24.54450
600.5544, 25.63770
601.0365, 27.30510
601.5186, 29.55902
602.0007, 32.00271
602.4828, 34.89255
602.9650, 37.67505
603.4471, 39.99799
603.9292, 42.32006
604.4113, 45.14210
604.8934, 48.52351
605.3755, 52.13487
605.8577, 55.83524
606.3398, 59.52978
606.8219, 62.95332
607.3040, 66.14036
607.7861, 68.86104
608.2682, 71.09109
608.7504, 72.71988
609.2325, 73.66494
609.7146, 73.95042
610.1967, 73.51778
610.6788, 72.28400
611.1609, 70.37994
611.6431, 67.80540
612.1252, 64.65653
612.6073, 61.13987
613.0894, 57.34629
613.5715, 53.39767
614.0536, 49.56227
614.5358, 45.96054
615.0179, 42.22022
615.5000, 37.76160
615.9821, 33.74329
616.4642, 30.82233
616.9464, 28.65737
617.4285, 26.56165
617.9106, 24.25117
618.3927, 21.95303
618.8748, 19.89329
619.3569, 18.06579
619.8391, 16.35605
620.3212, 14.72062
620.8033, 13.32385
621.2854, 12.39783
621.7675, 11.85850
622.2496, 11.15787
622.7318, 10.08544
623.2139, 9.130426
623.6960, 8.494785
624.1781, 8.007895
624.6602, 7.494598
625.1423, 6.939587
625.6245, 6.427114
626.1066, 6.018511
626.5887, 5.713043
627.0708, 5.531322
627.5529, 5.601435
628.0350, 5.481188
628.5172, 4.833517
628.9993, 4.156200
629.4814, 3.795469
629.9635, 3.710825
630.4456, 3.621555
630.9277, 3.353779
631.4099, 3.067797
631.8920, 2.999008
632.3741, 3.077913
632.8562, 3.034725
633.3383, 2.776182
633.8204, 2.464775
634.3026, 2.301739
634.7847, 2.316980
635.2668, 2.225851
635.7489, 1.849110
636.2310, 1.574558
636.7131, 1.623444
637.1953, 1.797113
637.6774, 1.872066
638.1595, 1.804157
638.6416, 1.669954
639.1237, 1.481752
639.6058, 1.256973
640.0880, 1.220535
640.5701, 1.453476
641.0522, 1.550991
641.5343, 1.221506
642.0164, 0.7818700
642.4985, 0.7066270
642.9807, 1.019197
643.4628, 1.210848
643.9449, 1.077223
644.4270, 0.8243410
644.9091, 0.5342730
645.3912, 0.2677360
645.8734, 0.1689010
646.3555, 0.2966380
646.8376, 0.5377690
647.3197, 0.7403490
647.8018, 0.9300670
648.2839, 0.9305040
648.7661, 0.4937130
649.2482, 0.1707860
649.7303, 0.2150340
650.2124, 0.4213310
650.6945, 0.5408690
651.1766, 0.5169120
651.6588, 0.4386500
652.1409, 0.2732220
652.6230, 0.1303250
653.1051, 0.3358990
653.5872, 0.8922060
654.0693, 1.276731
654.5515, 1.177700
655.0336, 0.8093190
655.5157, 0.6271110
655.9978, 0.7807900
656.4799, 0.7663270
656.9620, 0.3295080
657.4442, 2.5691999E-02
657.9263, 3.5332002E-02
658.4084, 0.3560140
658.8905, 0.6488130
659.3726, 0.7961810
659.8547, 0.8468670
660.3369, 0.8435120
660.8190, 0.7899910
661.3011, 0.7431390
661.7832, 0.7072030
662.2653, 0.6736090
662.7474, 0.6323470
663.2296, 0.5929780
663.7117, 0.5855920
664.1938, 0.6396960
664.6759, 0.6279950
665.1580, 0.4582730
665.6401, 0.2454800
666.1223, 5.3973999E-02
666.6044, 8.7131999E-02
667.0865, 0.1199990
667.5686, 1.3582000E-02
668.0507, 0.1967910
668.5328, 0.5002560
669.0150, 0.9938640
669.4971, 1.144665
669.9792, 0.6423800
670.4613, 0.1768740
670.9434, 6.9995999E-02
671.4255, 0.1763800
671.9077, 0.2948420
672.3898, 0.3967420
672.8719, 0.4403250
673.3540, 0.3565730
673.8361, 0.2177330
674.3182, 0.1317500
674.8004, 0.1049980
675.2825, 0.1048130
675.7646, 0.1151140
676.2467, 0.1335980
676.7288, 0.1534980
677.2109, 0.1587070
677.6931, 0.2054000
678.1752, 0.3768390
678.6573, 0.4982530
679.1394, 0.4793550
679.6215, 0.3686050
680.1036, 0.2090990
680.5858, 1.8454000E-02
681.0679, 0.1279390
681.5500, 0.1353450
682.0321, 4.3028001E-02
682.5142, 5.1688999E-02
682.9963, 0.1421740
683.4785, 0.1904850
683.9606, 0.1616610
684.4427, 0.1068970
684.9248, 0.1017840
685.4069, 0.2004590
685.8890, 0.2406500
686.3712, 0.1309340
686.8533, 4.9734000E-02
687.3354, 0.1754530
687.8175, 0.3913940
688.2996, 0.4085160
688.7817, 0.1259710
689.2639, 0.2048240
689.7460, 0.2816810
690.2281, 0.1384070
690.7102, 2.3134001E-02
691.1923, 0.2245980
691.6744, 0.3251590
692.1566, 0.1938760
692.6387, 3.5813998E-02
693.1208, 9.3321003E-02
693.6029, 6.9909997E-02
694.0850, 0.1643160
694.5671, 0.1044180
695.0493, 3.5480000E-03
695.5314, 0.1910950
696.0135, 0.3476180
696.4956, 0.2326740
696.9777, 0.2224850
697.4598, 0.7523270
697.9420, 1.052656
698.4241, 1.127180
698.9062, 0.9798850
699.3883, 0.4749770
699.8704, 0.1393510
700.3525, 0.3269620
700.8347, 0.7291320
701.3168, 0.9131150
701.7989, 0.8751640
702.2810, 0.8406140
702.7631, 0.8704990
703.2452, 0.9339660
703.7274, 0.9597910
704.2095, 0.9994640
704.6916, 1.189695
705.1737, 1.561531
705.6558, 1.952341
706.1379, 2.158108
706.6201, 2.199028
707.1022, 2.427334
707.5843, 2.934277
708.0664, 3.415136
708.5485, 3.762547
709.0306, 4.049988
709.5128, 4.352575
709.9949, 4.675074
710.4770, 4.927349
710.9591, 5.146812
711.4412, 5.232573
711.9233, 5.062153
712.4055, 4.715796
712.8876, 4.343685
713.3697, 3.993572
713.8518, 3.590227
714.3339, 3.037327
714.8160, 2.387873
715.2982, 2.057442
715.7803, 2.231169
716.2624, 2.294775
716.7445, 1.921230
717.2266, 1.573925
717.7087, 1.616541
718.1909, 1.975605
718.6730, 2.316393
719.1551, 2.569452
719.6372, 2.728821
720.1193, 2.761551
720.6014, 2.708162
721.0836, 2.660376
721.5657, 2.619719
722.0478, 2.456303
722.5299, 2.046169
723.0120, 1.497047
723.4941, 1.221239
723.9763, 1.320795
724.4584, 1.400734
724.9405, 1.381275
725.4226, 1.393482
725.9047, 1.546892
726.3868, 1.766502
726.8690, 1.889030
727.3511, 1.846300
727.8332, 1.789227
728.3153, 1.859922
728.7974, 1.939724
729.2795, 1.818996
729.7617, 1.528236
730.2438, 1.317856
730.7259, 1.331553
731.2080, 1.444166
731.6901, 1.392979
732.1722, 1.129826
732.6544, 0.9041100
733.1365, 0.7196670
733.6186, 0.5682070
734.1007, 0.4135550
734.5828, 0.3028320
735.0649, 0.3356910
735.5471, 0.5419830
736.0292, 0.6699790
736.5113, 0.4272960
736.9934, 0.1884780
737.4755, 0.4702640
737.9576, 1.071461
738.4398, 1.346712
738.9219, 1.069885
739.4040, 0.6447140
739.8861, 0.5968360
740.3682, 0.9138530
740.8503, 0.9165550
741.3325, 0.3639620
741.8146, 1.0700000E-03
742.2967, 0.1977690
742.7788, 0.5500030
743.2609, 0.7859310
743.7430, 0.8870680
744.2252, 0.8238470
744.7073, 0.3580400
745.1894, 2.8580001E-02
745.6715, 7.0313998E-02
746.1536, 0.4101560
746.6357, 0.6309050
747.1179, 0.6479210
747.6000, 0.5308610
748.0821, 0.3108080
748.5642, 6.7413002E-02
749.0463, 9.6184000E-02
749.5284, 0.4937060
750.0106, 0.6980610
750.4927, 0.5284630
750.9748, 0.2902160
751.4569, 0.2028960
751.9390, 0.2023260
752.4211, 0.1634520
752.9033, 5.5229001E-02
753.3854, 6.7892000E-02
753.8675, 0.2401240
754.3496, 0.3543260
754.8317, 0.2777520
755.3138, 7.2315000E-02
755.7960, 0.1517810
756.2781, 0.3453040
756.7602, 0.4495510
757.2423, 0.2982220
757.7244, 9.8430999E-02
758.2065, 0.1690430
758.6887, 0.2149470
759.1708, 0.4973890
759.6529, 0.3978730
760.1350, 0.1101590
760.6171, 0.1055110
761.0992, 0.2541960
761.5814, 0.3143220
762.0635, 0.2478500
762.5456, 0.1319500
763.0277, 6.4459004E-02
763.5098, 0.2560770
763.9919, 0.3014830
764.4741, 0.2045860
764.9562, 0.1455960
765.4383, 0.3056410
765.9204, 0.1796050
766.4025, 0.4859290
766.8846, 0.1453930
767.3668, 4.6147998E-02
767.8489, 2.5450001E-02
768.3310, 0.1824610
768.8131, 0.3146950
769.2952, 0.4076310
769.7773, 0.3784330
770.2595, 5.9252001E-02
770.7416, 0.1316530
771.2237, 0.1022700
771.7058, 1.1060000E-03
772.1879, 7.9323001E-02
772.6700, 0.1580010
773.1522, 0.3262580
773.6343, 0.6304440
774.1164, 0.8614460
774.5985, 0.7311860
775.0806, 0.4063550
775.5627, 0.2650450
776.0449, 0.3185960
776.5270, 0.4375780
777.0091, 0.5768260
777.4912, 0.6997780
777.9733, 0.7241840
778.4554, 0.6097370
778.9376, 0.7468590
779.4197, 1.513460
779.9019, 2.012680
780.3840, 1.926069
780.8661, 1.605360
781.3482, 1.307549
781.8303, 1.064003
782.3124, 0.8685170
782.7946, 0.7297780
783.2767, 0.6221200
783.7588, 0.5433310
784.2409, 0.4739340
784.7230, 0.3383580
785.2051, 0.1511800
785.6873, 8.8927999E-02
786.1694, 0.2949410
786.6515, 0.6280750
787.1336, 0.6734160
787.6157, 0.3302060
788.0978, 0.2877850
788.5800, 0.8121010
789.0621, 1.262300
789.5442, 1.184616
790.0263, 0.8629650
790.5084, 0.7508930
790.9905, 0.9018900
791.4727, 1.080252
791.9548, 1.302053
792.4369, 1.456305
792.9190, 1.420380
793.4011, 1.294331
793.8832, 1.229742
794.3654, 1.267199
794.8475, 1.365891
795.3296, 1.548103
795.8117, 1.738400
796.2938, 1.700003
796.7759, 1.438398
797.2581, 1.292027
797.7402, 1.370440
798.2223, 1.456694
798.7044, 1.345161
799.1865, 1.079065
799.6686, 0.9094980
800.1508, 0.9975800
800.6329, 0.9971750
801.1150, 0.7647190
801.5971, 0.5716290
802.0792, 0.5494210
802.5613, 0.6837710
803.0435, 0.9743880
803.5256, 1.464729
804.0077, 1.843855
804.4898, 1.693150
804.9719, 1.388535
805.4540, 1.554344
805.9362, 2.085773
806.4183, 2.427471
806.9004, 2.393774
807.3825, 2.297375
807.8646, 2.501482
808.3467, 2.977827
808.8289, 3.371937
809.3110, 3.692005
809.7931, 3.901201
810.2752, 3.928547
810.7573, 3.909700
811.2394, 3.903595
811.7216, 3.930227
812.2037, 4.069262
812.6858, 4.316385
813.1679, 4.745529
813.6500, 5.483673
814.1321, 6.312756
814.6143, 7.089666
815.0964, 7.791243
815.5785, 8.363979
816.0606, 8.802872
816.5427, 9.317528
817.0248, 10.12869
817.5070, 11.18192
817.9891, 12.30035
818.4712, 13.47066
818.9533, 14.69934
819.4354, 16.07045
819.9175, 17.20745
820.3997, 17.62058
820.8818, 17.32157
821.3639, 17.07083
821.8460, 17.16439
822.3281, 16.84787
822.8102, 15.83578
823.2924, 14.59774
823.7745, 13.33484
824.2566, 12.10504
824.7387, 11.04149
825.2208, 10.24210
825.7029, 9.373833
826.1851, 8.038774
826.6672, 6.649996
827.1493, 5.705238
827.6314, 5.145611
828.1135, 4.697681
828.5956, 4.240425
829.0778, 3.809992
829.5599, 3.446617
830.0420, 3.139561
830.5241, 2.790953
831.0062, 2.363297
831.4883, 2.164507
831.9705, 2.391890
832.4526, 2.641756
832.9347, 2.463762
833.4168, 1.926603
833.8989, 1.699165
834.3810, 2.180544
834.8632, 2.361195
835.3453, 1.886614
835.8274, 1.341873
836.3095, 1.033295
836.7916, 0.9430890
837.2737, 1.017117
837.7559, 1.249687
838.2380, 1.447685
838.7201, 1.459908
839.2022, 1.362486
839.6843, 1.225544
840.1664, 1.070599
840.6486, 0.9659730
841.1307, 0.9271790
841.6128, 0.8398530
842.0949, 0.5589980
842.5770, 0.1667770
843.0591, 6.9003999E-02
843.5413, 0.3227060
844.0234, 0.5890640
844.5055, 0.8461720
844.9876, 1.053635
845.4697, 1.221701
845.9518, 1.310043
846.4340, 1.180592
846.9161, 0.6913780
847.3982, 0.3747290
847.8803, 0.3312280
848.3624, 0.4236950
848.8445, 0.7226980
849.3267, 1.044312
849.8088, 1.133318
850.2909, 0.9616970
850.7730, 0.7350940
851.2551, 0.4999520
851.7372, 0.3662830
852.2194, 0.5694350
852.7015, 0.9599760
853.1836, 1.149738
853.6657, 1.086823
854.1478, 0.9907400
854.6299, 1.011580
855.1121, 1.082577
855.5942, 1.028292
856.0763, 0.8189540
856.5584, 0.7591020
857.0405, 0.9460850
857.5226, 1.043873
858.0048, 0.8398720
858.4869, 0.5289540
858.9690, 0.3820970
859.4511, 0.4037760
859.9332, 0.4892770
860.4153, 0.7648350
860.8975, 0.9352260
861.3796, 0.8686310
861.8617, 0.7050650
862.3438, 0.4776480
862.8259, 0.2661970
863.3080, 0.2781810
863.7902, 0.6594030
864.2723, 1.033493
864.7544, 1.081385
865.2365, 0.9262980
865.7186, 0.7253360
866.2007, 0.4987530
866.6829, 0.2389740
867.1650, 5.2242000E-02
867.6471, 0.2874110
868.1292, 0.3505120
868.6113, 0.2666300
869.0934, 0.1757930
869.5756, 7.4646004E-02
870.0577, 5.6550000E-03
870.5398, 4.8234999E-02
871.0219, 9.6198998E-02
871.5040, 0.2143420
871.9861, 0.3573340
872.4683, 0.3501830
872.9504, 4.5240000E-02
873.4325, 0.1332660
873.9146, 7.3328003E-02
874.3967, 1.0241000E-02
874.8788, 9.9082999E-02
875.3610, 0.2119540
875.8431, 0.1318510
876.3252, 0.1489960
876.8073, 0.3248620
877.2894, 9.4503000E-02
877.7715, 0.1317790
878.2537, 5.3268000E-02
878.7358, 0.4026320
879.2179, 0.5475790
879.7000, 0.4618610
880.1821, 0.2765880
880.6642, 5.1872000E-02
881.1464, 9.1518000E-02
881.6285, 0.1369150
882.1106, 0.6363470
882.5927, 0.7869050
883.0748, 0.5510960
883.5569, 0.3535580
884.0391, 0.3630700
884.5212, 0.4336830
885.0033, 0.3819660
885.4854, 0.2193980
885.9675, 0.1804030
886.4496, 0.3955550
886.9318, 0.4727900
887.4139, 0.1440470
887.8960, 0.1016710
888.3781, 9.7418003E-02
888.8602, 0.5462970
889.3423, 0.8533590
889.8245, 0.9479310
890.3066, 1.039968
890.7887, 1.123905
891.2708, 1.290051
891.7529, 1.758720
892.2350, 2.253096
892.7172, 2.310987
893.1993, 1.950861
893.6814, 1.677269
894.1635, 1.798401
894.6456, 1.907167
895.1277, 2.445271
895.6099, 2.810562
896.0920, 3.520241
896.5741, 4.516140
897.0562, 5.254622
897.5383, 5.472599
898.0204, 5.439259
898.5026, 5.518902
898.9847, 5.705465
899.4668, 5.895399
899.9489, 6.054049
900.4310, 6.439787
900.9131, 7.185438
901.3953, 8.017536
901.8774, 8.664783
902.3595, 9.211977
902.8416, 10.02352
903.3237, 11.17616
903.8058, 12.46432
904.2880, 14.15024
904.7701, 15.66486
905.2522, 16.70187
905.7343, 17.49022
906.2164, 18.32855
906.6985, 19.23962
907.1807, 19.99475
907.6628, 20.04165
908.1449, 20.46881
908.6270, 22.25864
909.1091, 24.47953
909.5912, 25.80641
910.0734, 26.56663
910.5555, 28.12119
911.0376, 31.07244
911.5197, 34.80567
912.0018, 38.71224
912.4839, 42.90015
912.9661, 47.65386
913.4482, 52.92007
913.9303, 58.47325
914.4124, 64.27055
914.8945, 69.91898
915.3766, 75.04267
915.8588, 79.85600
916.3409, 84.85567
916.8230, 89.88017
917.3051, 96.51472
917.7872, 104.8900
918.2693, 114.7224
918.7515, 125.3856
919.2336, 137.9790
919.7157, 153.8710
920.1978, 173.0253
920.6799, 196.2400
921.1620, 222.3103
921.6442, 254.2952
922.1263, 292.8975
922.6084, 337.1216
923.0905, 389.7370
923.5726, 446.7455
924.0547, 501.8895
924.5369, 557.0129
925.0190, 596.1020
925.5011, 616.6274
925.9832, 615.9305
926.4653, 586.5483
926.9474, 537.8828
927.4296, 478.3014
927.9117, 412.5621
928.3938, 349.1568
928.8759, 291.9966
929.3580, 241.7590
929.8401, 199.9277
930.3223, 165.5012
930.8044, 137.3652
931.2865, 114.9152
931.7686, 96.70879
932.2507, 82.18840
932.7328, 70.49226
933.2150, 60.87485
933.6971, 53.15420
934.1792, 46.57742
934.6613, 41.14251
935.1434, 36.74450
935.6255, 33.48241
936.1077, 30.61678
936.5898, 27.63874
937.0719, 24.73828
937.5540, 22.31459
938.0361, 20.44583
938.5182, 18.68134
939.0004, 16.96240
939.4825, 15.44761
939.9646, 14.22066
940.4467, 13.16328
940.9288, 12.13822
941.4109, 11.18458
941.8931, 10.50773
942.3752, 10.40376
942.8573, 10.01151
943.3394, 8.899677
943.8215, 7.849270
944.3036, 7.374767
944.7858, 7.134758
945.2679, 6.591183
945.7500, 5.725956
946.2321, 5.099619
946.7142, 5.067371
947.1964, 5.156513
947.6785, 5.241692
948.1606, 5.174837
948.6427, 4.630550
949.1248, 3.808729
949.6069, 3.256514
950.0891, 3.167938
950.5712, 3.179001
951.0533, 2.946510
951.5354, 2.608625
952.0175, 2.361542
952.4996, 2.203665
952.9818, 2.188959
953.4639, 2.304226
953.9460, 2.283319
954.4281, 1.925468
954.9102, 1.472685
955.3923, 1.330046
955.8745, 1.461500
956.3566, 1.515987
956.8387, 1.480333
957.3208, 1.495895
957.8029, 1.631025
958.2850, 1.682457
958.7672, 1.428688
959.2493, 0.9716340
959.7314, 0.7385810
960.2135, 0.8137360
960.6956, 0.7973500
961.1777, 0.6204510
961.6599, 0.4620590
962.1420, 0.4011690
962.6241, 0.3908520
963.1062, 0.3748590
963.5883, 0.3535140
964.0704, 0.3545490
964.5526, 0.3694210
965.0347, 0.4180980
965.5168, 0.5477350
965.9989, 0.6634310
966.4810, 0.7140030
966.9631, 0.7181820
967.4453, 0.7192080
967.9274, 0.7246460
968.4095, 0.6547790
968.8916, 0.4020310
969.3737, 0.1740530
969.8558, 4.6526000E-02
970.3380, 1.0700000E-03
970.8201, 5.0244998E-02
971.3022, 0.1560940
971.7843, 0.2272930
972.2664, 0.2359450
972.7485, 0.1859050
973.2307, 1.0500000E-04
973.7128, 0.1693920
974.1949, 0.1292380
974.6770, 1.4154000E-02
975.1591, 9.1370001E-02
975.6412, 7.2475001E-02
976.1234, 3.4719002E-02
976.6055, 0.2452750
977.0876, 0.3894670
977.5698, 0.1934700
978.0519, 0.1908700
978.5340, 0.4422530
979.0161, 0.5715220
979.4982, 0.7262690
979.9803, 0.9295100
980.4625, 0.9478890
980.9446, 0.5569440
981.4267, 5.6170002E-03
981.9088, 0.2116720
982.3909, 9.3171999E-02
982.8730, 8.7618001E-02
983.3552, 0.3197560
983.8373, 0.3518010
984.3194, 5.6101002E-02
984.8015, 0.2232060
985.2836, 8.6448997E-02
985.7657, 0.3469680
986.2479, 0.4509320
986.7300, 0.1485040
987.2121, 7.6468997E-02
987.6942, 0.1889020
988.1763, 0.2122150
988.6584, 0.1313460
989.1406, 2.5370000E-03
989.6227, 0.1160910
990.1048, 0.2241540
990.5869, 0.2099420
991.0690, 4.7024000E-02
991.5511, 0.1893350
992.0333, 0.1102580
992.5154, 2.4800000E-04
992.9975, 2.6819000E-02
993.4796, 2.9230000E-02
993.9617, 0.1229780
994.4438, 0.3269820
994.9260, 0.4167650
995.4081, 0.2387560
995.8902, 0.1394040
996.3723, 0.2927250
996.8544, 0.4479680
997.3365, 0.4224000
997.8187, 0.2782730
998.3008, 0.1263450
998.7829, 2.7039001E-02
999.2650, 6.9351003E-02
999.7471, 0.1463570
1000.229, 0.3410890
1000.711, 0.3488620
1001.193, 0.3053190
1001.676, 0.3788780
1002.158, 0.5118120
1002.640, 0.4844930
1003.122, 0.2053790
1003.604, 5.3635001E-02
1004.086, 0.4126050
1004.568, 0.8078250
1005.050, 0.8548720
1005.533, 0.7004200
1006.015, 0.5082890
1006.497, 0.3318120
1006.979, 0.2139630
1007.461, 0.1735060
1007.943, 0.1981010
1008.425, 0.3568440
1008.907, 0.5126840
1009.389, 0.4774910
1009.872, 0.3013520
1010.354, 3.7040000E-03
1010.836, 0.3516750
1011.318, 0.3672900
1011.800, 0.2075250
1012.282, 0.8481240
1012.764, 0.8138480
1013.246, 0.4061160
1013.729, 0.2643990
1014.211, 0.3536240
1014.693, 0.4874550
1015.175, 0.6100900
1015.657, 0.6846310
1016.139, 0.6833480
1016.621, 0.6324730
1017.103, 0.5538160
1017.585, 0.4639450
1018.068, 0.4422610
1018.550, 0.4868550
1019.032, 0.5446240
1019.514, 0.6006030
1019.996, 0.7195850
1020.478, 0.9748080
1020.960, 1.252171
1021.442, 1.244287
1021.924, 0.9654920
1022.407, 0.7842790
1022.889, 0.7137470
1023.371, 0.7577210
1023.853, 0.9424710
1024.335, 1.072582
1024.817, 0.9584900
1025.299, 0.6839160
1025.781, 0.4865550
1026.264, 0.3552000
1026.746, 0.4380660
1027.228, 0.8213350
1027.710, 1.014624
1028.192, 0.7848740
1028.674, 0.5090470
1029.156, 0.5670760
1029.638, 0.8546940
1030.120, 0.9287720
1030.603, 0.6836510
1031.085, 0.6264130
1031.567, 0.8317680
1032.049, 1.059193
1032.531, 1.273659
1033.013, 1.402002
1033.495, 1.334297
1033.977, 1.118572
1034.459, 1.020535
1034.942, 1.143908
1035.424, 1.163845
1035.906, 0.9604550
1036.388, 0.8542390
1036.870, 1.040802
1037.352, 1.288319
1037.834, 1.378620
1038.316, 1.331049
1038.799, 1.244053
1039.281, 0.9806080
1039.763, 0.9093110
1040.245, 1.307261
1040.727, 1.594124
1041.209, 1.501810
1041.691, 1.261572
1042.173, 1.037521
1042.656, 0.8307000
1043.138, 0.7455430
1043.620, 0.8259580
1044.102, 0.9443800
1044.584, 1.179264
1045.066, 1.335642
1045.548, 1.329035
1046.030, 1.247692
1046.512, 1.118807
1046.995, 0.9758490
1047.477, 0.9381330
1047.959, 1.067535
1048.441, 1.179464
1048.923, 1.246359
1049.405, 1.270365
1049.887, 1.280281
1050.369, 1.252169
1050.851, 1.070562
1051.334, 0.8146100
1051.816, 0.8226620
1052.298, 1.301939
1052.780, 1.616461
1053.262, 1.477322
1053.744, 1.316713
1054.226, 1.402092
1054.708, 1.520451
1055.191, 1.388422
1055.673, 1.085657
1056.155, 0.9615330
1056.637, 1.178061
1057.119, 1.332123
1057.601, 1.190271
1058.083, 1.083187
1058.565, 1.284298
1059.047, 1.512815
1059.530, 1.363176
1060.012, 0.9708080
1060.494, 0.8111610
1060.976, 1.059504
1061.458, 1.232618
1061.940, 1.070974
1062.422, 0.9199160
1062.904, 0.9817100
1063.386, 1.129948
1063.869, 1.275911
1064.351, 1.383444
1064.833, 1.358160
1065.315, 1.135845
1065.797, 1.110641
1066.279, 1.641289
1066.761, 2.170811
1067.243, 2.396898
1067.726, 2.480040
1068.208, 2.547159
1068.690, 2.599047
1069.172, 2.651428
1069.654, 2.736702
1070.136, 2.768873
1070.618, 2.588270
1071.100, 2.507751
1071.583, 2.879396
1072.065, 3.271955
1072.547, 3.159658
1073.029, 2.774061
1073.511, 2.665850
1073.993, 2.959116
1074.475, 3.330273
1074.957, 3.699310
1075.439, 4.007977
1075.922, 4.217140
1076.404, 4.387472
1076.886, 4.536501
1077.368, 4.701935
1077.850, 4.936033
1078.332, 5.248844
1078.814, 5.620562
1079.296, 6.005205
1079.779, 6.500355
1080.261, 7.207951
1080.743, 7.988018
1081.225, 8.412746
1081.707, 8.980986
1082.189, 10.36718
1082.671, 12.70711
1083.153, 16.04406
1083.635, 20.93059
1084.118, 25.79577
1084.600, 31.20001
1085.082, 35.01478
1085.564, 35.45702
1086.046, 33.43885
1086.528, 29.67807
1087.010, 24.71871
1087.492, 20.06848
1087.974, 16.08365
1088.457, 12.74081
1088.939, 10.11421
1089.421, 8.007750
1089.903, 6.499636
1090.385, 5.270710
1090.867, 3.880480
1091.349, 2.447041
1091.831, 1.523872
1092.314, 1.355108
1092.796, 1.313196
1093.278, 1.225920
1093.760, 1.141245
1094.242, 1.169928
1094.724, 1.141636
1095.206, 0.7647190
1095.688, 0.2150550
1096.171, 4.7840001E-03
1096.653, 0.2551650
1097.135, 0.4303930
1097.617, 0.2386400
1098.099, 8.4425002E-02
1098.581, 0.1539380
1099.063, 0.2926060
1099.545, 0.4019550
1100.027, 0.4817370
1100.510, 0.5652810
1100.992, 0.6578600
1101.474, 0.6368370
1101.956, 0.3858260
1102.438, 0.1485980
1102.920, 9.1425002E-02
1103.402, 0.2117370
1103.884, 0.1042460
1104.366, 0.1476960
1104.849, 0.4963460
1105.331, 0.9134160
1105.813, 1.136774
1106.295, 0.9667420
1106.777, 0.8528920
1107.259, 0.9737340
1107.741, 1.022989
1108.223, 0.7356970
1108.706, 0.4004970
1109.188, 0.3536890
1109.670, 0.5494650
1110.152, 0.7032450
1110.634, 0.8520890
1111.116, 0.8356250
1111.598, 0.4215200
1112.080, 0.1366350
1112.563, 0.3290650
1113.045, 0.5268520
1113.527, 0.2094290
1114.009, 0.3569280
1114.491, 0.3992400
1114.973, 0.2967830
1115.455, 0.5777050
1115.937, 4.4132002E-02
1116.419, 0.1943090
1116.901, 0.2819880
1117.384, 0.7767260
1117.866, 0.8797740
1118.348, 0.7394160
1118.830, 0.5626340
1119.312, 0.3381060
1119.794, 0.3718660
1120.276, 0.8342630
1120.758, 1.108639
1121.241, 1.096880
1121.723, 0.9554140
1122.205, 0.6653000
1122.687, 0.4507450
1123.169, 0.6432420
1123.651, 1.130812
1124.133, 1.244394
1124.615, 0.8952620
1125.098, 0.6248630
1125.580, 0.4691410
1126.062, 0.3097080
1126.544, 7.6425999E-02
1127.026, 8.6099999E-03
1127.508, 0.2851220
1127.990, 0.7513770
1128.472, 0.8137820
1128.954, 0.4574780
1129.437, 0.3637500
1129.919, 0.5566830
1130.401, 0.5923730
1130.883, 0.3678420
1131.365, 0.1039790
1131.847, 8.3076000E-02
1132.329, 0.1202010
1132.811, 0.1673150
1133.293, 0.6635860
1133.776, 0.7893030
1134.258, 0.5843730
1134.740, 0.3751220
1135.222, 0.2123130
1135.704, 0.2044850
1136.186, 0.4013730
1136.668, 0.5941510
1137.150, 0.5548460
1137.633, 0.4356440
1138.115, 0.5791360
1138.597, 0.4135280
1139.079, 0.7262290
1139.561, 0.2803630
1140.043, 6.1708000E-02
1140.525, 0.1817090
1141.007, 0.3736760
1141.490, 0.4750940
1141.972, 0.5160060
1142.454, 0.4887640
1142.936, 0.4673080
1143.418, 0.5939960
1143.900, 0.7707610
1144.382, 0.8060110
1144.864, 0.6864410
1145.346, 0.5262890
1145.828, 0.3471890
1146.311, 0.2010270
1146.793, 4.9988002E-02
1147.275, 2.6503000E-02
1147.757, 0.3693350
1148.239, 0.8163510
1148.721, 1.123537
1149.203, 1.258883
1149.685, 1.170759
1150.168, 0.8907220
1150.650, 0.6671870
1151.132, 0.6203500
1151.614, 0.6221580
1152.096, 0.5927260
1152.578, 0.6034320
1153.060, 0.7458460
1153.542, 0.9229720
1154.025, 1.087282
1154.507, 1.185358
1154.989, 1.032833
1155.471, 0.5051730
1155.953, 0.1703380
1156.435, 0.3021370
1156.917, 0.4547080
1157.399, 0.4191990
1157.881, 0.4247060
1158.364, 0.7066570
1158.846, 1.100088
1159.328, 1.365269
1159.810, 1.492016
1160.292, 1.377106
1160.774, 0.7484090
1161.256, 0.3658080
1161.738, 0.4144760
1162.220, 0.4963470
1162.703, 0.4377020
1163.185, 0.3888760
1163.667, 0.5177460
1164.149, 0.7534330
1164.631, 0.8482800
1165.113, 0.7668590
1165.595, 0.7824860
1166.077, 0.9445060
1166.560, 0.9654770
1167.042, 0.7569220
1167.524, 0.5305310
1168.006, 0.3952200
1168.488, 0.3751410
1168.970, 0.5303150
1169.452, 0.8158990
1169.934, 1.034019
1170.417, 1.183187
1170.899, 1.146740
1171.381, 0.9292770
1171.863, 0.8084110
1172.345, 0.8999900
1172.827, 0.9923170
1173.309, 0.8485070
1173.791, 0.6424850
1174.273, 0.7431830
1174.755, 0.9878330
1175.238, 0.8036370
1175.720, 0.9536080
1176.202, 0.4244880
1176.684, 0.8938520
1177.166, 1.151482
1177.648, 0.9231950
1178.130, 0.5536460
1178.612, 0.2561470
1179.095, 4.2612001E-02
1179.577, 5.4884002E-02
1180.059, 8.0165997E-02
1180.541, 8.0948003E-02
1181.023, 5.1842000E-02
1181.505, 5.9985999E-02
1181.987, 0.2333560
1182.469, 0.3157010
1182.952, 0.2159900
1183.434, 9.9336997E-02
1183.916, 6.1283000E-02
1184.398, 9.9302001E-02
1184.880, 0.2575510
1185.362, 0.6319900
1185.844, 0.6050640
1186.326, 0.3099060
1186.808, 0.1204640
1187.291, 8.7077998E-02
1187.773, 5.1647000E-02
1188.255, 4.5320000E-03
1188.737, 6.1634000E-02
1189.219, 0.1647780
1189.701, 0.2059080
1190.183, 9.0189002E-02
1190.665, 7.6603003E-02
1191.147, 0.1729790
1191.630, 0.2000980
1192.112, 0.1642000
1192.594, 5.8022998E-02
1193.076, 0.1089520
1193.558, 0.3938350
1194.040, 0.3802620
1194.522, 9.6602999E-02
1195.004, 0.4170610
1195.487, 0.1729550
1195.969, 0.2155440
1196.451, 0.1277960
1196.933, 0.2750640
1197.415, 0.3324220
1197.897, 0.1182610
1198.379, 9.0342999E-02
1198.861, 0.2415900
1199.344, 0.2394700
1199.826, 6.5560001E-03
1200.308, 0.1963580
1200.790, 0.1848370
1201.272, 0.1153200
1201.754, 0.2237510
1202.236, 0.1266060
1202.718, 0.2444040
1203.200, 1.5230000E-02
1203.682, 0.1370240
1204.165, 0.2114810
1204.647, 0.3005080
1205.129, 0.4270630
1205.611, 0.5030350
1206.093, 0.4478420
1206.575, 0.3698200
1207.057, 0.2897110
1207.539, 0.2425820
1208.022, 0.2648240
1208.504, 0.3229030
1208.986, 0.3656640
1209.468, 0.4088190
1209.950, 0.5295520
1210.432, 0.7746930
1210.914, 0.9398290
1211.396, 0.9839610
1211.879, 0.9828620
1212.361, 0.8569280
1212.843, 0.8383500
1213.325, 1.149199
1213.807, 1.462563
1214.289, 1.327963
1214.771, 0.8841270
1215.253, 0.8443490
1215.735, 1.273615
1216.218, 1.507540
1216.700, 1.521303
1217.182, 1.473377
1217.664, 1.398893
1218.146, 1.337671
1218.628, 1.314831
1219.110, 1.275881
1219.592, 1.128695
1220.074, 0.9430370
1220.557, 0.9155080
1221.039, 0.9740240
1221.521, 0.8689160
1222.003, 0.6775230
1222.485, 0.7594390
1222.967, 1.124266
1223.449, 1.390186
1223.931, 1.336418
1224.414, 1.214716
1224.896, 1.269333
1225.378, 1.281696
1225.860, 0.9481350
1226.342, 0.5854470
1226.824, 0.5968020
1227.306, 0.8057750
1227.788, 0.7837910
1228.271, 0.4941960
1228.753, 0.3702350
1229.235, 0.6288950
1229.717, 0.8228450
1230.199, 0.8566840
1230.681, 0.8707200
1231.163, 0.9120430
1231.645, 0.9369340
1232.127, 0.9455740
1232.609, 0.9192310
1233.092, 0.7875710
1233.574, 0.7546810
1234.056, 0.7055450
1234.538, 0.6240060
1235.020, 0.6760160
1235.502, 0.6019990
1235.984, 0.6357980
1236.466, 0.8815730
1236.949, 1.107115
1237.431, 1.066793
1237.913, 1.247097
1238.395, 0.9967650
1238.877, 1.244778
1239.359, 1.249018
1239.841, 1.090151
1240.323, 0.8060190
1240.806, 0.4902820
1241.288, 0.4703310
1241.770, 0.7579360
1242.252, 0.9420300
1242.734, 0.6929490
1243.216, 0.5077320
1243.698, 0.6540720
1244.180, 0.9462170
1244.662, 1.400541
1245.145, 1.804016
1245.627, 1.912466
1246.109, 1.819857
1246.591, 1.748215
1247.073, 1.715500
1247.555, 1.737549
1248.037, 1.883003
1248.519, 1.943745
1249.001, 1.815380
1249.484, 1.807943
1249.966, 2.061983
1250.448, 2.375736
1250.930, 2.600565
1251.412, 2.760771
1251.894, 2.894224
1252.376, 3.007557
1252.858, 3.158909
1253.341, 3.338465
1253.823, 3.463745
1254.305, 3.529320
1254.787, 3.526007
1255.269, 3.471916
1255.751, 3.570156
1256.233, 3.990755
1256.715, 4.382212
1257.198, 4.300308
1257.680, 4.057178
1258.162, 3.917305
1258.644, 3.900146
1259.126, 4.103346
1259.608, 4.406626
1260.090, 4.557793
1260.572, 4.532450
1261.054, 4.531332
1261.536, 4.613295
1262.019, 4.708780
1262.501, 4.946428
1262.983, 4.996311
1263.465, 4.639803
1263.947, 4.211926
1264.429, 3.880941
1264.911, 3.643278
1265.393, 3.504864
1265.876, 3.451200
1266.358, 3.374157
1266.840, 3.269915
1267.322, 3.241652
1267.804, 3.292431
1268.286, 3.286036
1268.768, 3.187227
1269.250, 2.937014
1269.733, 2.499990
1270.215, 2.109903
1270.697, 2.044596
1271.179, 2.132544
1271.661, 2.132397
1272.143, 2.123114
1272.625, 2.338572
1273.107, 2.568645
1273.589, 2.296289
1274.072, 1.648582
1274.554, 1.366022
1275.036, 1.709732
1275.518, 1.943785
1276.000, 1.712881
1276.482, 1.527559
1276.964, 1.638996
1277.446, 1.687801
1277.929, 1.506874
1278.411, 1.167633
1278.893, 0.6536390
1279.375, 0.1058500
1279.857, 8.1669003E-02
1280.339, 9.8771997E-02
1280.821, 0.3794020
1281.303, 0.4246200
1281.786, 0.3166430
1282.268, 0.0000000E+00
##END=



