##NAMES=Tetrawickmanite
##RRUFFID=R170046
##IDEAL CHEMISTRY=Mn^2+^Sn^4+^(OH)_6_
##LOCALITY=Mina San Martin, Sombrerete, Zacatecas, Mexico
##OWNER=RRUFF
##SOURCE=Peter Megaw
##DESCRIPTION=Yellow cubic or pseudo-octahedral crystals on quartz, associated with colorless cubic fluorite
##STATUS=The identification of this mineral has been confirmed only by single crystal X-ray diffraction.
##URL=rruff.info/R170046
93.36743, 0.0000000E+00
93.84955, 0.3446350
94.33167, 1.838776
94.81378, 2.728149
95.29590, 2.852814
95.77802, 1.992950
96.26013, 1.042694
96.74225, 0.7100520
97.22437, 1.188110
97.70648, 1.981720
98.18860, 2.759277
98.67072, 3.361160
99.15283, 3.582809
99.63495, 3.364319
100.1171, 3.088150
100.5992, 2.848267
101.0813, 2.159119
101.5634, 3.036819
102.0455, 4.931717
102.5277, 7.404739
103.0098, 9.457062
103.4919, 9.892471
103.9740, 9.747787
104.4561, 10.11044
104.9382, 12.33948
105.4204, 13.41217
105.9025, 12.81400
106.3846, 11.03175
106.8667, 8.818771
107.3488, 6.626160
107.8309, 4.549423
108.3131, 2.811096
108.7952, 1.304825
109.2773, 0.1414180
109.7594, 0.3846130
110.2415, 0.2619170
110.7236, 5.9891000E-02
111.2058, 0.3611300
111.6879, 0.9432980
112.1700, 1.091904
112.6521, 0.3909910
113.1342, 0.7243960
113.6163, 1.590698
114.0985, 2.151855
114.5806, 2.537064
115.0627, 2.618774
115.5448, 2.496201
116.0269, 2.490753
116.5090, 2.982437
116.9912, 3.972183
117.4733, 4.540146
117.9554, 4.055786
118.4375, 3.644363
118.9196, 3.736252
119.4017, 4.334106
119.8839, 5.221924
120.3660, 6.187744
120.8481, 7.250549
121.3302, 8.413803
121.8123, 9.720123
122.2944, 11.07239
122.7766, 12.39989
123.2587, 13.67413
123.7408, 14.93542
124.2229, 16.22534
124.7050, 17.64545
125.1871, 18.93958
125.6693, 20.36299
126.1514, 21.58546
126.6335, 22.17320
127.1156, 21.92413
127.5977, 20.92947
128.0798, 19.38376
128.5620, 17.09366
129.0441, 14.73334
129.5262, 12.46706
130.0083, 10.29536
130.4904, 8.227570
130.9725, 6.150803
131.4547, 4.286667
131.9368, 2.982758
132.4189, 2.370789
132.9010, 2.191437
133.3831, 2.300720
133.8652, 2.766464
134.3474, 3.154739
134.8295, 3.061691
135.3116, 2.826660
135.7937, 2.800751
136.2758, 3.147430
136.7579, 3.794937
137.2401, 4.490829
137.7222, 5.207550
138.2043, 6.001648
138.6864, 6.987152
139.1685, 8.036102
139.6507, 8.951767
140.1328, 9.570709
140.6149, 9.914734
141.0970, 10.43108
141.5791, 11.41302
142.0612, 12.29810
142.5434, 12.90057
143.0255, 13.26730
143.5076, 13.55257
143.9897, 13.89008
144.4718, 14.28450
144.9539, 14.71889
145.4361, 15.33566
145.9182, 15.87390
146.4003, 16.21791
146.8824, 16.34457
147.3645, 16.25800
147.8466, 15.93159
148.3288, 15.25946
148.8109, 14.68654
149.2930, 14.37416
149.7751, 14.08984
150.2572, 13.54515
150.7393, 12.64708
151.2215, 12.51422
151.7036, 12.63989
152.1857, 13.02889
152.6678, 13.23661
153.1499, 13.02919
153.6320, 12.54138
154.1142, 12.10526
154.5963, 11.83715
155.0784, 11.62803
155.5605, 11.30331
156.0426, 10.87090
156.5247, 10.50658
157.0069, 10.42821
157.4890, 10.62746
157.9711, 10.63939
158.4532, 10.18349
158.9353, 9.628304
159.4174, 9.219131
159.8996, 8.998680
160.3817, 8.888237
160.8638, 8.812019
161.3459, 8.794067
161.8280, 8.717850
162.3102, 8.668007
162.7923, 8.512909
163.2744, 8.038261
163.7565, 7.198250
164.2386, 6.293518
164.7207, 5.914085
165.2029, 6.531921
165.6850, 6.933044
166.1671, 6.978409
166.6492, 6.833778
167.1313, 6.606331
167.6134, 6.343697
168.0956, 6.088516
168.5777, 5.859413
169.0598, 5.545975
169.5419, 5.305786
170.0240, 5.237457
170.5061, 5.329430
170.9883, 5.493355
171.4704, 5.649429
171.9525, 5.791039
172.4346, 5.973053
172.9167, 6.229866
173.3988, 6.543602
173.8810, 6.958122
174.3631, 7.428551
174.8452, 7.835930
175.3273, 8.102829
175.8094, 8.248032
176.2915, 8.354027
176.7737, 8.262825
177.2558, 8.318588
177.7379, 8.927376
178.2200, 10.02110
178.7021, 10.83692
179.1842, 10.77338
179.6664, 10.18813
180.1485, 9.795219
180.6306, 9.671631
181.1127, 9.756645
181.5948, 10.04173
182.0769, 10.55604
182.5591, 11.08415
183.0412, 11.48701
183.5233, 11.85339
184.0054, 12.28338
184.4875, 12.82458
184.9696, 13.41406
185.4518, 13.94548
185.9339, 14.41187
186.4160, 14.81887
186.8981, 15.19987
187.3802, 15.52496
187.8623, 15.71884
188.3445, 15.69402
188.8266, 15.57473
189.3087, 15.80112
189.7908, 16.68888
190.2729, 17.51765
190.7550, 18.17630
191.2372, 18.67029
191.7193, 18.97500
192.2014, 19.04488
192.6835, 18.93428
193.1656, 19.03752
193.6477, 19.62841
194.1299, 20.18307
194.6120, 20.59501
195.0941, 20.91643
195.5762, 21.26175
196.0583, 21.72110
196.5404, 22.27516
197.0226, 22.56378
197.5047, 22.31447
197.9868, 22.10252
198.4689, 22.08094
198.9510, 22.22266
199.4331, 22.45323
199.9153, 22.73529
200.3974, 23.06155
200.8795, 23.24538
201.3616, 23.20082
201.8437, 23.12984
202.3258, 23.12857
202.8080, 23.18102
203.2901, 23.22555
203.7722, 23.24705
204.2543, 23.21470
204.7364, 22.93764
205.2185, 22.23158
205.7007, 21.45491
206.1828, 20.75342
206.6649, 20.14971
207.1470, 19.77479
207.6291, 19.86990
208.1112, 20.28445
208.5934, 20.29598
209.0755, 19.55710
209.5576, 18.61365
210.0397, 17.94049
210.5218, 17.54818
211.0039, 17.21088
211.4861, 16.80975
211.9682, 16.35359
212.4503, 15.84882
212.9324, 15.25278
213.4145, 14.64124
213.8967, 14.14058
214.3788, 13.78623
214.8609, 13.37184
215.3430, 12.69888
215.8251, 11.90530
216.3072, 11.16349
216.7894, 10.57063
217.2715, 10.00614
217.7536, 9.223167
218.2357, 8.129204
218.7178, 7.076843
219.1999, 6.177193
219.6821, 5.405762
220.1642, 4.774406
220.6463, 4.325623
221.1284, 3.963402
221.6105, 3.458923
222.0926, 2.748886
222.5748, 2.023186
223.0569, 1.274857
223.5390, 0.5752180
224.0211, 1.6860000E-03
224.5032, 0.4205860
224.9853, 0.6978380
225.4675, 0.8760990
225.9496, 0.8817600
226.4317, 0.8959810
226.9138, 0.9035490
227.3959, 0.9566120
227.8780, 1.162292
228.3602, 1.590355
228.8423, 2.106422
229.3244, 2.248711
229.8065, 1.514580
230.2886, 1.097847
230.7707, 1.460587
231.2529, 2.090927
231.7350, 2.378868
232.2171, 2.027313
232.6992, 1.248238
233.1813, 0.7217180
233.6634, 0.6678540
234.1456, 0.6329040
234.6277, 0.6079330
235.1098, 0.5751950
235.5919, 0.5086900
236.0740, 0.3949430
236.5561, 0.2559360
237.0383, 0.1570890
237.5204, 0.1438520
238.0025, 0.1219410
238.4846, 0.1070480
238.9667, 7.0274003E-02
239.4488, 2.7611000E-02
239.9310, 0.2050700
240.4131, 0.4406810
240.8952, 0.6782150
241.3773, 0.8256610
241.8594, 1.105713
242.3415, 1.633850
242.8237, 2.277908
243.3058, 2.898933
243.7879, 3.453575
244.2700, 3.906471
244.7521, 4.164314
245.2342, 4.139214
245.7164, 4.103752
246.1985, 4.034737
246.6806, 3.995163
247.1627, 4.084808
247.6448, 4.343933
248.1269, 4.698776
248.6091, 5.029999
249.0912, 5.329666
249.5733, 5.638275
250.0554, 5.977013
250.5375, 6.328506
251.0196, 6.664276
251.5018, 6.975060
251.9839, 7.278069
252.4660, 7.581551
252.9481, 7.876869
253.4302, 8.245850
253.9123, 8.682510
254.3945, 9.212891
254.8766, 9.904175
255.3587, 10.79463
255.8408, 11.76183
256.3229, 12.63083
256.8051, 13.41801
257.2872, 14.32852
257.7693, 15.43653
258.2514, 16.70121
258.7335, 18.07310
259.2156, 19.54775
259.6978, 21.09575
260.1799, 22.73667
260.6620, 24.44645
261.1441, 26.10467
261.6262, 27.57770
262.1083, 29.00869
262.5905, 30.70582
263.0726, 32.76038
263.5547, 34.77850
264.0368, 36.32629
264.5189, 37.59790
265.0010, 38.94990
265.4832, 40.45020
265.9653, 42.11376
266.4474, 44.01632
266.9295, 46.21741
267.4116, 48.42488
267.8937, 50.27927
268.3759, 52.05725
268.8580, 54.18681
269.3401, 56.83322
269.8222, 59.85175
270.3043, 63.02127
270.7864, 66.31352
271.2686, 69.87365
271.7507, 73.85703
272.2328, 78.15289
272.7149, 82.69526
273.1970, 87.51296
273.6791, 92.51587
274.1613, 97.48781
274.6434, 102.4041
275.1255, 107.6199
275.6076, 113.4570
276.0897, 119.5993
276.5718, 125.9278
277.0540, 132.4551
277.5361, 138.9763
278.0182, 145.3249
278.5003, 151.4852
278.9824, 157.5007
279.4645, 163.8058
279.9467, 169.6600
280.4288, 174.5502
280.9109, 178.3961
281.3930, 181.3254
281.8751, 183.5363
282.3572, 185.0694
282.8394, 185.3987
283.3215, 184.1699
283.8036, 181.7966
284.2857, 178.3176
284.7678, 173.8316
285.2499, 168.6566
285.7321, 162.7922
286.2142, 156.2192
286.6963, 150.1108
287.1784, 144.9025
287.6605, 139.9640
288.1426, 134.8588
288.6248, 129.6398
289.1069, 124.6833
289.5890, 120.3611
290.0711, 116.6538
290.5532, 113.0504
291.0353, 109.4193
291.5175, 105.9920
291.9996, 102.8807
292.4817, 100.0174
292.9638, 97.30129
293.4459, 94.66643
293.9280, 92.12574
294.4102, 89.80981
294.8923, 87.76997
295.3744, 85.88419
295.8565, 84.15455
296.3386, 82.52090
296.8207, 80.90261
297.3029, 79.25593
297.7850, 77.65065
298.2671, 76.32991
298.7492, 75.62117
299.2313, 74.51866
299.7134, 72.60170
300.1956, 70.35513
300.6777, 68.27000
301.1598, 66.51038
301.6419, 64.78564
302.1240, 62.57758
302.6061, 59.70717
303.0883, 56.84293
303.5704, 54.03244
304.0525, 51.27390
304.5346, 48.56570
305.0167, 45.90997
305.4988, 43.33306
305.9810, 40.88081
306.4631, 38.57974
306.9452, 36.29429
307.4273, 33.96872
307.9094, 31.70368
308.3915, 29.51968
308.8737, 27.43267
309.3558, 25.44853
309.8379, 23.58649
310.3200, 21.83701
310.8021, 20.26059
311.2842, 19.05141
311.7664, 17.82182
312.2485, 16.36544
312.7306, 14.78395
313.2127, 13.29037
313.6948, 12.04444
314.1769, 11.01714
314.6591, 10.01263
315.1412, 9.003769
315.6233, 8.062309
316.1054, 7.201225
316.5875, 6.414146
317.0696, 5.709373
317.5518, 5.105255
318.0339, 4.544540
318.5160, 3.851036
318.9981, 2.835190
319.4802, 2.093643
319.9623, 1.840172
320.4445, 1.823158
320.9266, 1.904106
321.4087, 2.035065
321.8908, 2.080887
322.3729, 1.771065
322.8550, 0.9479520
323.3372, 0.3263930
323.8193, 3.6407001E-02
324.3014, 5.4733001E-02
324.7835, 4.9400002E-02
325.2656, 0.3175960
325.7477, 0.6211010
326.2299, 0.8438640
326.7120, 0.9830470
327.1941, 1.050949
327.6762, 0.8826830
328.1583, 0.8022080
328.6404, 0.9485550
329.1226, 1.298698
329.6047, 1.774292
330.0868, 2.392273
330.5689, 3.103027
331.0510, 3.540329
331.5331, 3.444542
332.0153, 3.461746
332.4974, 3.928673
332.9795, 4.619492
333.4616, 5.193291
333.9437, 5.462410
334.4258, 5.577972
334.9080, 5.871346
335.3901, 6.374763
335.8722, 6.985664
336.3543, 7.668724
336.8365, 8.444458
337.3186, 9.379379
337.8007, 10.49857
338.2828, 11.64295
338.7649, 12.55170
339.2470, 13.15928
339.7292, 14.00662
340.2113, 15.40443
340.6934, 16.92161
341.1755, 18.16117
341.6576, 19.15685
342.1397, 20.42745
342.6219, 22.61253
343.1040, 25.59613
343.5861, 28.11794
344.0682, 29.82285
344.5503, 31.41078
345.0324, 33.29465
345.5146, 35.39558
345.9967, 37.51030
346.4788, 39.45599
346.9609, 41.35857
347.4430, 43.53897
347.9251, 46.07183
348.4073, 48.67771
348.8894, 51.22905
349.3715, 53.77906
349.8536, 56.41588
350.3357, 59.17979
350.8178, 62.01283
351.3000, 64.90165
351.7821, 67.85719
352.2642, 70.69280
352.7463, 73.41762
353.2284, 75.93304
353.7105, 78.13805
354.1927, 80.01310
354.6748, 81.74318
355.1569, 83.53136
355.6390, 85.31044
356.1211, 86.71459
356.6032, 87.47448
357.0854, 88.18446
357.5675, 89.50053
358.0496, 91.32652
358.5317, 93.07122
359.0138, 94.54443
359.4959, 95.75811
359.9781, 96.74451
360.4602, 97.50296
360.9423, 98.07774
361.4244, 98.34281
361.9065, 98.44501
362.3886, 98.76701
362.8708, 99.60450
363.3529, 100.3920
363.8350, 100.6280
364.3171, 100.3725
364.7992, 100.0138
365.2813, 99.69517
365.7635, 99.40158
366.2456, 99.13292
366.7277, 98.98452
367.2098, 98.63014
367.6919, 97.72715
368.1740, 96.55988
368.6562, 95.72620
369.1383, 95.41908
369.6204, 95.20116
370.1025, 94.54505
370.5846, 93.45118
371.0667, 92.17535
371.5489, 90.52905
372.0310, 88.84119
372.5131, 87.52179
372.9952, 86.54475
373.4773, 85.44019
373.9594, 83.83942
374.4416, 81.77337
374.9237, 79.81728
375.4058, 78.09037
375.8879, 76.33900
376.3700, 74.55681
376.8521, 72.66691
377.3343, 70.48171
377.8164, 67.88564
378.2985, 65.08675
378.7806, 62.58698
379.2627, 60.78022
379.7448, 58.60044
380.2270, 55.60884
380.7091, 52.42726
381.1912, 49.60871
381.6733, 47.25913
382.1554, 45.19280
382.6375, 43.19152
383.1197, 41.27018
383.6018, 39.34861
384.0839, 37.45618
384.5660, 35.54058
385.0481, 33.44592
385.5302, 31.29976
386.0124, 29.43761
386.4945, 28.10305
386.9766, 27.18015
387.4587, 26.03077
387.9408, 24.40073
388.4229, 22.83330
388.9051, 21.25503
389.3872, 19.82821
389.8693, 18.77318
390.3514, 18.14722
390.8335, 17.70564
391.3156, 17.05101
391.7978, 16.05872
392.2799, 15.19108
392.7620, 14.62183
393.2441, 14.01969
393.7262, 13.14308
394.2083, 12.05101
394.6905, 11.00928
395.1726, 10.23719
395.6547, 9.708492
396.1368, 9.149429
396.6189, 8.526199
397.1010, 7.926678
397.5832, 7.342907
398.0653, 6.803791
398.5474, 6.350155
399.0295, 5.995834
399.5116, 5.727016
399.9937, 5.546535
400.4759, 5.481564
400.9580, 5.367764
401.4401, 5.189522
401.9222, 4.926788
402.4043, 4.528088
402.8864, 4.001606
403.3686, 3.473484
403.8507, 2.966347
404.3328, 2.518093
404.8149, 2.336651
405.2970, 2.551292
405.7791, 2.793133
406.2613, 2.786182
406.7434, 2.624302
407.2255, 2.491905
407.7076, 2.501431
408.1897, 2.510258
408.6718, 2.313850
409.1540, 1.921093
409.6361, 1.600975
410.1182, 1.504948
410.6003, 1.517941
411.0824, 1.437424
411.5645, 1.250042
412.0467, 1.027664
412.5288, 0.7553220
413.0109, 0.4791600
413.4930, 0.3170890
413.9751, 0.3073350
414.4572, 0.2705570
414.9394, 2.2549000E-02
415.4215, 0.5847970
415.9036, 0.9535060
416.3857, 0.9416810
416.8678, 0.8754920
417.3499, 0.9681020
417.8321, 1.191326
418.3142, 1.431301
418.7963, 1.639507
419.2784, 1.790871
419.7605, 1.788242
420.2426, 1.526585
420.7248, 1.262321
421.2069, 0.9987220
421.6890, 0.7571030
422.1711, 0.5467410
422.6532, 0.3751530
423.1353, 0.2706680
423.6175, 0.2774620
424.0996, 0.4253770
424.5817, 0.5308570
425.0638, 0.7460560
425.5459, 0.7749750
426.0280, 0.3344000
426.5102, 0.3741340
426.9923, 0.9366990
427.4744, 1.097477
427.9565, 0.9848790
428.4386, 1.035141
428.9207, 1.333904
429.4029, 1.645309
429.8850, 1.912815
430.3671, 2.234524
430.8492, 2.693260
431.3313, 3.256386
431.8134, 3.795212
432.2956, 4.188534
432.7777, 4.450577
433.2598, 4.807152
433.7419, 5.272663
434.2241, 5.825665
434.7062, 6.506168
435.1883, 7.244205
435.6704, 7.900551
436.1525, 8.376537
436.6346, 8.795689
437.1168, 9.371956
437.5989, 10.12676
438.0810, 10.90976
438.5631, 11.70268
439.0452, 12.46217
439.5273, 13.13255
440.0095, 13.70167
440.4916, 14.26908
440.9737, 14.79738
441.4558, 15.35295
441.9379, 16.18071
442.4200, 17.37452
442.9022, 18.57465
443.3843, 19.43020
443.8664, 20.01320
444.3485, 20.82324
444.8306, 22.08034
445.3127, 23.38734
445.7949, 24.57124
446.2770, 25.63140
446.7591, 26.57662
447.2412, 27.41282
447.7233, 28.14508
448.2054, 28.77235
448.6876, 29.22839
449.1697, 29.73965
449.6518, 30.27478
450.1339, 30.89597
450.6160, 31.68676
451.0981, 32.62288
451.5803, 33.59122
452.0624, 34.48744
452.5445, 35.32330
453.0266, 36.23223
453.5087, 37.06397
453.9908, 38.15675
454.4730, 39.54493
454.9551, 41.22266
455.4372, 43.22971
455.9193, 45.55873
456.4014, 48.05388
456.8835, 50.43089
457.3657, 52.56154
457.8478, 55.11634
458.3299, 58.23771
458.8120, 61.70095
459.2941, 65.69620
459.7762, 69.96073
460.2584, 73.95663
460.7405, 77.40816
461.2226, 80.38237
461.7047, 83.21738
462.1868, 86.11881
462.6689, 87.94223
463.1511, 88.14217
463.6332, 87.08708
464.1153, 85.08939
464.5974, 82.14326
465.0795, 78.50096
465.5616, 74.10888
466.0438, 69.15469
466.5259, 63.88409
467.0080, 58.27553
467.4901, 52.78130
467.9722, 47.69214
468.4543, 43.04032
468.9365, 38.77870
469.4186, 34.91104
469.9007, 31.42276
470.3828, 28.33820
470.8649, 25.64989
471.3470, 23.39725
471.8292, 21.61546
472.3113, 20.14005
472.7934, 18.72303
473.2755, 17.41944
473.7576, 15.96920
474.2397, 14.10195
474.7219, 12.37765
475.2040, 11.20006
475.6861, 10.44719
476.1682, 9.729870
476.6503, 8.801224
477.1324, 7.738926
477.6146, 6.854076
478.0967, 6.232548
478.5788, 5.700684
479.0609, 5.297886
479.5430, 4.927517
480.0251, 4.506592
480.5073, 4.027756
480.9894, 3.542004
481.4715, 3.092098
481.9536, 2.667938
482.4357, 2.251892
482.9178, 1.835503
483.4000, 1.435410
483.8821, 1.060078
484.3642, 0.7515530
484.8463, 0.5379100
485.3284, 0.4243620
485.8105, 0.3371810
486.2927, 0.2769470
486.7748, 0.2241170
487.2569, 4.5970999E-02
487.7390, 0.7089350
488.2211, 1.345943
488.7032, 1.387085
489.1854, 0.9448700
489.6675, 0.6391790
490.1496, 0.6676180
490.6317, 0.8167690
491.1138, 0.9654620
491.5959, 1.096058
492.0781, 1.165298
492.5602, 1.146862
493.0423, 1.068989
493.5244, 0.9890630
494.0065, 0.8656850
494.4886, 0.8289910
494.9708, 0.9533420
495.4529, 1.113567
495.9350, 1.243359
496.4171, 1.324123
496.8992, 1.350315
497.3813, 1.323959
497.8635, 1.234386
498.3456, 0.9923630
498.8277, 0.3689380
499.3098, 6.0215000E-02
499.7919, 9.0424001E-02
500.2740, 1.4404000E-02
500.7562, 2.5345000E-02
501.2383, 9.8728001E-02
501.7204, 0.2526700
502.2025, 0.3308870
502.6846, 0.3404810
503.1667, 0.3675540
503.6489, 0.4300270
504.1310, 0.4787940
504.6131, 0.4838140
505.0952, 0.4611930
505.5773, 0.4255290
506.0594, 0.3662950
506.5416, 0.3302420
507.0237, 0.3931540
507.5058, 0.5159570
507.9879, 0.5513800
508.4700, 0.4515380
508.9521, 0.3072510
509.4343, 0.1883890
509.9164, 9.8095000E-02
510.3985, 0.1118850
510.8806, 0.3985980
511.3627, 0.6308630
511.8448, 0.5941350
512.3270, 0.3624990
512.8091, 9.5215000E-02
513.2912, 0.1430440
513.7733, 0.3282930
514.2554, 0.4109840
514.7375, 0.3379670
515.2197, 0.2815670
515.7018, 0.3035050
516.1839, 0.2825660
516.6660, 0.1062550
517.1481, 0.1653790
517.6302, 0.3674770
518.1124, 0.3853150
518.5945, 0.3209720
519.0766, 0.4594500
519.5587, 0.8775600
520.0408, 1.243839
520.5229, 1.538658
521.0051, 1.709946
521.4872, 1.638344
521.9693, 1.365047
522.4514, 1.152531
522.9335, 1.174175
523.4156, 1.350559
523.8978, 1.561295
524.3799, 1.810043
524.8620, 2.014103
525.3441, 2.106026
525.8262, 2.149269
526.3083, 2.289520
526.7905, 2.577805
527.2726, 2.793396
527.7547, 2.784576
528.2368, 2.722313
528.7189, 2.809151
529.2010, 3.051720
529.6832, 3.308495
530.1653, 3.470802
530.6474, 3.558144
531.1295, 3.715630
531.6116, 3.999718
532.0938, 4.284706
532.5759, 4.508331
533.0580, 4.760712
533.5401, 5.212898
534.0222, 5.831642
534.5043, 6.320305
534.9865, 6.289810
535.4686, 5.820351
535.9507, 5.894638
536.4328, 6.850342
536.9149, 7.719925
537.3970, 8.140350
537.8792, 8.308388
538.3613, 8.341431
538.8434, 8.241753
539.3255, 8.261917
539.8076, 8.705910
540.2897, 9.408127
540.7719, 9.898567
541.2540, 10.09197
541.7361, 10.27325
542.2182, 10.65084
542.7003, 11.18960
543.1824, 11.69135
543.6646, 12.11562
544.1467, 12.55687
544.6288, 13.03899
545.1109, 13.55019
545.5930, 14.05973
546.0751, 14.56874
546.5573, 15.13603
547.0394, 15.82587
547.5215, 16.62939
548.0036, 17.42046
548.4857, 18.13314
548.9678, 18.90863
549.4500, 19.75164
549.9321, 20.68378
550.4142, 21.78600
550.8963, 23.06532
551.3784, 24.33182
551.8605, 25.35867
552.3427, 26.15808
552.8248, 26.95998
553.3069, 27.71751
553.7890, 28.58421
554.2711, 29.68660
554.7532, 30.94026
555.2354, 32.22310
555.7175, 33.48708
556.1996, 34.87461
556.6817, 36.57549
557.1638, 38.44578
557.6459, 40.21131
558.1281, 41.81140
558.6102, 43.36926
559.0923, 44.96312
559.5744, 46.59856
560.0565, 48.40288
560.5386, 50.36207
561.0208, 52.46751
561.5029, 54.79102
561.9850, 57.24043
562.4671, 59.68753
562.9492, 62.12408
563.4313, 64.69704
563.9135, 67.58705
564.3956, 70.79769
564.8777, 73.90454
565.3598, 76.68964
565.8419, 79.73140
566.3240, 83.06452
566.8062, 86.79942
567.2883, 91.06847
567.7704, 95.88554
568.2525, 101.1218
568.7346, 106.7432
569.2167, 112.7095
569.6989, 118.8221
570.1810, 125.0679
570.6631, 131.6358
571.1452, 138.5569
571.6273, 145.9622
572.1094, 153.9884
572.5916, 162.5502
573.0737, 171.8247
573.5558, 182.0009
574.0379, 192.8453
574.5200, 203.8625
575.0021, 215.0909
575.4843, 227.1039
575.9664, 240.3227
576.4485, 254.6323
576.9306, 269.4026
577.4127, 284.4807
577.8948, 300.2756
578.3770, 316.7759
578.8591, 333.8430
579.3412, 351.1737
579.8233, 368.8345
580.3054, 387.8205
580.7875, 409.1966
581.2697, 432.2028
581.7518, 454.3817
582.2339, 475.5470
582.7161, 497.9709
583.1982, 522.3889
583.6803, 548.6243
584.1624, 576.4078
584.6445, 605.9818
585.1266, 636.2285
585.6088, 667.1190
586.0909, 698.4003
586.5730, 730.3962
587.0551, 762.6176
587.5372, 793.9660
588.0193, 823.6252
588.5015, 851.8751
588.9836, 879.5391
589.4657, 909.2041
589.9478, 932.3717
590.4299, 948.4635
590.9120, 959.4818
591.3942, 966.2973
591.8763, 968.7312
592.3584, 966.2015
592.8405, 958.4041
593.3226, 945.4979
593.8047, 927.6658
594.2869, 904.8328
594.7690, 877.0533
595.2511, 843.0764
595.7332, 806.0745
596.2153, 767.8436
596.6974, 728.6442
597.1796, 689.4570
597.6617, 649.2819
598.1438, 610.1433
598.6259, 573.0834
599.1080, 537.7878
599.5901, 503.5790
600.0723, 470.3271
600.5544, 438.6897
601.0365, 409.3907
601.5186, 382.4066
602.0007, 356.9851
602.4828, 333.0327
602.9650, 310.8331
603.4471, 290.5892
603.9292, 272.0616
604.4113, 255.0373
604.8934, 239.4753
605.3755, 224.9425
605.8577, 211.1198
606.3398, 198.0480
606.8219, 185.7537
607.3040, 174.2139
607.7861, 163.6043
608.2682, 154.0820
608.7504, 145.4655
609.2325, 137.3537
609.7146, 129.7593
610.1967, 122.5463
610.6788, 115.5938
611.1609, 109.0214
611.6431, 103.0577
612.1252, 97.59520
612.6073, 92.30219
613.0894, 87.00031
613.5715, 81.81505
614.0536, 76.98095
614.5358, 72.42473
615.0179, 68.47380
615.5000, 65.76610
615.9821, 63.01819
616.4642, 59.51268
616.9464, 55.59921
617.4285, 51.95825
617.9106, 48.83418
618.3927, 46.10796
618.8748, 43.66737
619.3569, 41.48942
619.8391, 39.47706
620.3212, 37.63776
620.8033, 35.87486
621.2854, 34.19217
621.7675, 32.53835
622.2496, 30.68047
622.7318, 28.34463
623.2139, 26.19795
623.6960, 24.46859
624.1781, 23.00660
624.6602, 21.71527
625.1423, 20.54695
625.6245, 19.43402
626.1066, 18.30830
626.5887, 17.19096
627.0708, 16.19383
627.5529, 15.35536
628.0350, 14.58418
628.5172, 13.92457
628.9993, 13.24471
629.4814, 12.42641
629.9635, 11.51865
630.4456, 10.70833
630.9277, 10.05794
631.4099, 9.520348
631.8920, 9.152603
632.3741, 8.902702
632.8562, 8.450592
633.3383, 7.650753
633.8204, 6.796116
634.3026, 6.265526
634.7847, 6.118874
635.2668, 5.971195
635.7489, 5.864529
636.2310, 5.604908
636.7131, 5.007080
637.1953, 4.348042
637.6774, 3.972668
638.1595, 3.926849
638.6416, 3.927692
639.1237, 3.689659
639.6058, 3.270180
640.0880, 2.946594
640.5701, 2.734295
641.0522, 2.541645
641.5343, 2.331623
642.0164, 2.125809
642.4985, 1.937195
642.9807, 1.758938
643.4628, 1.641228
643.9449, 1.665649
644.4270, 1.723442
644.9091, 1.704964
645.3912, 1.622257
645.8734, 1.573647
646.3555, 1.602726
646.8376, 1.599506
647.3197, 1.369362
647.8018, 0.8404310
648.2839, 0.4949680
648.7661, 0.4105950
649.2482, 0.4277690
649.7303, 0.6063350
650.2124, 0.8010980
650.6945, 0.7950520
651.1766, 0.5315820
651.6588, 0.2787630
652.1409, 0.2708970
652.6230, 0.4184650
653.1051, 0.5409510
653.5872, 0.6227190
654.0693, 0.6942630
654.5515, 0.7865680
655.0336, 0.8597110
655.5157, 0.8093720
655.9978, 0.5067980
656.4799, 0.3903730
656.9620, 0.5695720
657.4442, 0.8307380
657.9263, 1.105125
658.4084, 1.369389
658.8905, 1.616470
659.3726, 1.839558
659.8547, 1.994526
660.3369, 2.020561
660.8190, 1.923328
661.3011, 1.727993
661.7832, 1.374084
662.2653, 1.087914
662.7474, 1.026489
663.2296, 1.105045
663.7117, 1.158520
664.1938, 1.187534
664.6759, 1.179348
665.1580, 1.070156
665.6401, 0.9656640
666.1223, 1.005821
666.6044, 1.145245
667.0865, 1.208988
667.5686, 1.102821
668.0507, 0.9300960
668.5328, 0.9060630
669.0150, 1.090935
669.4971, 1.164528
669.9792, 1.096024
670.4613, 0.9408380
670.9434, 0.6747590
671.4255, 0.3640520
671.9077, 9.1430999E-02
672.3898, 0.1361810
672.8719, 0.2712360
673.3540, 0.1999400
673.8361, 5.5613998E-02
674.3182, 3.3179998E-02
674.8004, 0.1464730
675.2825, 0.3695340
675.7646, 0.7103540
676.2467, 1.081364
676.7288, 1.282600
677.2109, 1.258545
677.6931, 1.192932
678.1752, 1.074657
678.6573, 0.9309390
679.1394, 0.7017900
679.6215, 0.4770890
680.1036, 0.4122120
680.5858, 0.5653990
681.0679, 0.7915340
681.5500, 0.9759370
682.0321, 1.120022
682.5142, 1.243675
682.9963, 1.349880
683.4785, 1.369644
683.9606, 1.239826
684.4427, 1.029205
684.9248, 0.9036980
685.4069, 0.9311180
685.8890, 0.8806950
686.3712, 0.6203650
686.8533, 0.4064410
687.3354, 0.4498440
687.8175, 0.6193010
688.2996, 0.6435390
688.7817, 0.4227100
689.2639, 0.1744120
689.7460, 0.2046240
690.2281, 0.4612460
690.7102, 0.5515590
691.1923, 0.4090500
691.6744, 0.3470380
692.1566, 0.6371920
692.6387, 1.019836
693.1208, 0.9240380
693.6029, 0.2212600
694.0850, 0.3144110
694.5671, 0.4735450
695.0493, 0.5089950
695.5314, 0.5560380
696.0135, 0.6072240
696.4956, 0.6093710
696.9777, 0.5467260
697.4598, 0.4795270
697.9420, 0.4869310
698.4241, 0.5664790
698.9062, 0.6561580
699.3883, 0.7494090
699.8704, 0.8781850
700.3525, 1.161503
700.8347, 1.412094
701.3168, 1.325520
701.7989, 0.8635410
702.2810, 0.5430560
702.7631, 0.5716970
703.2452, 0.7256280
703.7274, 0.9005360
704.2095, 1.068699
704.6916, 1.196987
705.1737, 1.274250
705.6558, 1.305454
706.1379, 1.281780
706.6201, 1.209217
707.1022, 1.194519
707.5843, 1.214706
708.0664, 1.349728
708.5485, 1.792107
709.0306, 2.236092
709.5128, 2.344402
709.9949, 2.138340
710.4770, 2.013752
710.9591, 2.195274
711.4412, 2.406147
711.9233, 2.430618
712.4055, 2.342838
712.8876, 2.282570
713.3697, 2.287258
713.8518, 2.325035
714.3339, 2.370010
714.8160, 2.419529
715.2982, 2.441105
715.7803, 2.384312
716.2624, 2.420578
716.7445, 2.718376
717.2266, 3.004421
717.7087, 3.040150
718.1909, 2.887405
718.6730, 2.821472
719.1551, 2.974777
719.6372, 3.174187
720.1193, 3.331623
720.6014, 3.444977
721.0836, 3.484058
721.5657, 3.458569
722.0478, 3.471218
722.5299, 3.610916
723.0120, 3.822174
723.4941, 3.894409
723.9763, 3.767403
724.4584, 3.668556
724.9405, 3.620998
725.4226, 3.606071
725.9047, 3.598476
726.3868, 3.618019
726.8690, 3.715870
727.3511, 3.932159
727.8332, 4.146484
728.3153, 4.294819
728.7974, 4.394379
729.2795, 4.476391
729.7617, 4.536045
730.2438, 4.511810
730.7259, 4.361568
731.2080, 4.188862
731.6901, 4.210442
732.1722, 4.485512
732.6544, 4.679607
733.1365, 4.728714
733.6186, 4.762001
734.1007, 4.893139
734.5828, 5.015881
735.0649, 4.975792
735.5471, 4.741459
736.0292, 4.511223
736.5113, 4.365440
736.9934, 4.282753
737.4755, 4.248318
737.9576, 4.244305
738.4398, 4.264618
738.9219, 4.302799
739.4040, 4.269001
739.8861, 4.027531
740.3682, 3.584030
740.8503, 3.256077
741.3325, 3.067726
741.8146, 2.971699
742.2967, 3.059464
742.7788, 3.155663
743.2609, 3.053738
743.7430, 2.791145
744.2252, 2.673790
744.7073, 2.951969
745.1894, 3.208767
745.6715, 3.129822
746.1536, 2.880600
746.6357, 2.694038
747.1179, 2.623310
747.6000, 2.660324
748.0821, 2.823853
748.5642, 3.041267
749.0463, 3.025627
749.5284, 2.698563
750.0106, 2.453465
750.4927, 2.401337
750.9748, 2.379799
751.4569, 2.268051
751.9390, 2.120796
752.4211, 2.062870
752.9033, 2.135330
753.3854, 2.216869
753.8675, 2.296291
754.3496, 2.337238
754.8317, 2.279613
755.3138, 2.151821
755.7960, 2.037792
756.2781, 1.977451
756.7602, 1.948174
757.2423, 1.942818
757.7244, 1.958706
758.2065, 1.846973
758.6887, 1.545906
759.1708, 1.307262
759.6529, 1.235138
760.1350, 1.263214
760.6171, 1.343681
761.0992, 1.495289
761.5814, 1.537151
762.0635, 1.339607
762.5456, 1.146004
763.0277, 1.075516
763.5098, 1.067410
763.9919, 1.024715
764.4741, 0.9404410
764.9562, 0.9063340
765.4383, 1.020153
765.9204, 1.200478
766.4025, 1.239208
766.8846, 1.139996
767.3668, 1.102909
767.8489, 1.183971
768.3310, 1.267353
768.8131, 1.255245
769.2952, 1.167191
769.7773, 1.115040
770.2595, 1.106155
770.7416, 1.116627
771.2237, 1.149345
771.7058, 1.198910
772.1879, 1.298855
772.6700, 1.404728
773.1522, 1.426010
773.6343, 1.324497
774.1164, 1.180119
774.5985, 1.050903
775.0806, 0.9419480
775.5627, 0.8452420
776.0449, 0.7663650
776.5270, 0.8107640
777.0091, 1.051140
777.4912, 1.318218
777.9733, 1.337910
778.4554, 1.064274
778.9376, 0.9208600
779.4197, 0.9734610
779.9019, 1.070290
780.3840, 1.299515
780.8661, 1.471489
781.3482, 1.320023
781.8303, 0.9078180
782.3124, 0.6766890
782.7946, 0.9772260
783.2767, 1.319202
783.7588, 1.245750
784.2409, 0.9566380
784.7230, 0.7851260
785.2051, 0.7883220
785.6873, 0.9181630
786.1694, 1.160011
786.6515, 1.429543
787.1336, 1.479858
787.6157, 1.252171
788.0978, 1.141808
788.5800, 1.255070
789.0621, 1.350952
789.5442, 1.277966
790.0263, 1.116074
790.5084, 0.9731670
790.9905, 0.8401410
791.4727, 0.8021660
791.9548, 0.9591560
792.4369, 1.138912
792.9190, 1.235264
793.4011, 1.278778
793.8832, 1.337746
794.3654, 1.423870
794.8475, 1.481754
795.3296, 1.453007
795.8117, 1.366493
796.2938, 1.283875
796.7759, 1.205708
797.2581, 1.209976
797.7402, 1.349243
798.2223, 1.429329
798.7044, 1.230671
799.1865, 0.8275600
799.6686, 0.6658130
800.1508, 0.9991300
800.6329, 1.212261
801.1150, 1.217571
801.5971, 1.178551
802.0792, 1.123093
802.5613, 1.110157
803.0435, 1.255512
803.5256, 1.604729
804.0077, 1.953537
804.4898, 2.191334
804.9719, 2.313427
805.4540, 2.267136
805.9362, 2.091984
806.4183, 1.923500
806.9004, 1.810135
807.3825, 1.775711
807.8646, 1.882198
808.3467, 2.102356
808.8289, 2.047802
809.3110, 1.571106
809.7931, 1.223385
810.2752, 1.219532
810.7573, 1.273678
811.2394, 1.145840
811.7216, 0.8890880
812.2037, 0.6745680
812.6858, 0.4983370
813.1679, 0.4105640
813.6500, 0.5345950
814.1321, 0.6665420
814.6143, 0.6188470
815.0964, 0.4293630
815.5785, 0.1866300
816.0606, 7.0122004E-02
816.5427, 0.2289960
817.0248, 7.9781003E-02
817.5070, 0.2688750
817.9891, 0.4152790
818.4712, 0.3539120
818.9533, 0.2989040
819.4354, 0.3323140
819.9175, 0.3687060
820.3997, 0.2945860
820.8818, 0.1133770
821.3639, 3.2860000E-02
821.8460, 0.1395840
822.3281, 0.2201650
822.8102, 0.2720950
823.2924, 0.2745700
823.7745, 0.1344260
824.2566, 5.8139998E-02
824.7387, 6.5723002E-02
825.2208, 0.2306400
825.7029, 0.5474360
826.1851, 0.7632140
826.6672, 0.8719330
827.1493, 0.8262180
827.6314, 0.6668170
828.1135, 0.4971310
828.5956, 0.3597950
829.0778, 0.2733040
829.5599, 0.2692870
830.0420, 0.3369330
830.5241, 0.4014590
831.0062, 0.4581530
831.4883, 0.5361900
831.9705, 0.6303790
832.4526, 0.7793270
832.9347, 1.083321
833.4168, 1.502899
833.8989, 1.654316
834.3810, 1.258434
834.8632, 1.025772
835.3453, 1.147442
835.8274, 1.325531
836.3095, 1.401611
836.7916, 1.387100
837.2737, 1.299622
837.7559, 1.135414
838.2380, 1.066177
838.7201, 1.344864
839.2022, 1.707024
839.6843, 1.778210
840.1664, 1.614304
840.6486, 1.403622
841.1307, 1.210865
841.6128, 1.077202
842.0949, 1.033222
842.5770, 1.093395
843.0591, 1.380634
843.5413, 1.977711
844.0234, 2.362869
844.5055, 2.371506
844.9876, 2.313332
845.4697, 2.412743
845.9518, 2.600243
846.4340, 2.669731
846.9161, 2.572857
847.3982, 2.494076
847.8803, 2.397060
848.3624, 2.383366
848.8445, 2.543499
849.3267, 2.798340
849.8088, 3.100399
850.2909, 3.410496
850.7730, 3.554993
851.2551, 3.274990
851.7372, 2.921875
852.2194, 2.929138
852.7015, 3.194969
853.1836, 3.509476
853.6657, 3.820827
854.1478, 4.051723
854.6299, 4.137758
855.1121, 4.177681
855.5942, 4.467009
856.0763, 5.066517
856.5584, 5.306030
857.0405, 4.963629
857.5226, 4.802996
858.0048, 5.289303
858.4869, 6.011425
858.9690, 6.339203
859.4511, 6.241030
859.9332, 6.324825
860.4153, 6.864061
860.8975, 7.264685
861.3796, 7.246700
861.8617, 7.118362
862.3438, 7.107704
862.8259, 7.234186
863.3080, 7.463984
863.7902, 7.807478
864.2723, 8.160061
864.7544, 8.417517
865.2365, 8.636948
865.7186, 8.937569
866.2007, 9.287928
866.6829, 9.534578
867.1650, 9.628284
867.6471, 9.650768
868.1292, 9.655445
868.6113, 9.673880
869.0934, 9.859215
869.5756, 10.24538
870.0577, 10.61166
870.5398, 10.92522
871.0219, 11.14250
871.5040, 11.22276
871.9861, 11.18735
872.4683, 11.10248
872.9504, 10.90834
873.4325, 10.76830
873.9146, 10.75386
874.3967, 10.72108
874.8788, 10.60820
875.3610, 10.44658
875.8431, 10.26368
876.3252, 10.07028
876.8073, 9.918015
877.2894, 9.965290
877.7715, 9.909481
878.2537, 9.392025
878.7358, 8.680937
879.2179, 8.186169
879.7000, 7.932953
880.1821, 7.721319
880.6642, 7.429295
881.1464, 7.138775
881.6285, 7.050007
882.1106, 7.096668
882.5927, 6.839993
883.0748, 6.253075
883.5569, 5.760811
884.0391, 5.545294
884.5212, 5.409924
885.0033, 5.102564
885.4854, 4.628471
885.9675, 4.239834
886.4496, 3.998327
886.9318, 3.774548
887.4139, 3.477158
887.8960, 3.276632
888.3781, 3.352678
888.8602, 3.575836
889.3423, 3.696314
889.8245, 3.692543
890.3066, 3.590319
890.7887, 3.362709
891.2708, 3.064581
891.7529, 2.624361
892.2350, 2.181078
892.7172, 1.937590
893.1993, 1.910898
893.6814, 1.940765
894.1635, 1.944366
894.6456, 1.927193
895.1277, 1.869820
895.6099, 1.804743
896.0920, 1.857359
896.5741, 2.007862
897.0562, 2.014704
897.5383, 1.752089
898.0204, 1.414461
898.5026, 1.317369
898.9847, 1.443954
899.4668, 1.440531
899.9489, 1.279957
900.4310, 1.139942
900.9131, 1.060129
901.3953, 1.028515
901.8774, 1.044062
902.3595, 1.097544
902.8416, 1.149715
903.3237, 1.254976
903.8058, 1.260155
904.2880, 1.046881
904.7701, 0.8756580
905.2522, 0.9383750
905.7343, 1.055130
906.2164, 0.9674490
906.6985, 0.6616310
907.1807, 0.4139980
907.6628, 0.3253650
908.1449, 0.3188110
908.6270, 0.4483410
909.1091, 0.5737630
909.5912, 0.4985140
910.0734, 0.2688660
910.5555, 8.0251999E-02
911.0376, 2.0215999E-02
911.5197, 6.4869998E-03
912.0018, 7.9499997E-02
912.4839, 5.1650000E-03
912.9661, 8.8399999E-02
913.4482, 0.1426830
913.9303, 0.3496480
914.4124, 0.4848650
914.8945, 0.5161510
915.3766, 0.3869300
915.8588, 0.1561130
916.3409, 7.1020000E-02
916.8230, 0.1531850
917.3051, 0.2107220
917.7872, 0.2352280
918.2693, 0.2121390
918.7515, 0.1130710
919.2336, 2.1225000E-02
919.7157, 0.1140610
920.1978, 0.1595360
920.6799, 9.4795004E-02
921.1620, 0.1986600
921.6442, 0.3557660
922.1263, 0.2537310
922.6084, 0.1091190
923.0905, 7.7404000E-02
923.5726, 0.1098480
924.0547, 5.8998000E-02
924.5369, 0.1465780
925.0190, 0.2474000
925.5011, 6.6800001E-03
925.9832, 0.2162300
926.4653, 0.1153740
926.9474, 0.1183010
927.4296, 0.1882100
927.9117, 7.2466001E-02
928.3938, 3.5215002E-02
928.8759, 1.6987000E-02
929.3580, 3.9744999E-02
929.8401, 6.6744000E-02
930.3223, 5.8664002E-02
930.8044, 5.3839002E-02
931.2865, 0.2469200
931.7686, 0.4267120
932.2507, 0.5557580
932.7328, 0.5833300
933.2150, 0.3901060
933.6971, 5.8607001E-02
934.1792, 1.4738000E-02
934.6613, 0.1699920
935.1434, 0.2662200
935.6255, 0.2051930
936.1077, 7.5886004E-02
936.5898, 8.9523003E-02
937.0719, 0.2377110
937.5540, 0.2429080
938.0361, 7.2483003E-02
938.5182, 8.7553002E-02
939.0004, 0.2311740
939.4825, 0.3328840
939.9646, 0.3985480
940.4467, 0.4040950
940.9288, 0.2989600
941.4109, 0.1088620
941.8931, 5.7229999E-02
942.3752, 0.2732120
942.8573, 0.3213830
943.3394, 2.5436001E-02
943.8215, 0.3251900
944.3036, 0.2468190
944.7858, 4.5012999E-02
945.2679, 0.1271480
945.7500, 0.5050300
946.2321, 0.7175540
946.7142, 0.4444390
947.1964, 0.1152740
947.6785, 3.3261999E-02
948.1606, 8.5188001E-02
948.6427, 0.1416050
949.1248, 0.1845930
949.6069, 0.1154440
950.0891, 9.6341997E-02
950.5712, 0.2981740
951.0533, 0.3276710
951.5354, 0.2724110
952.0175, 0.2899570
952.4996, 0.3427280
952.9818, 0.3069920
953.4639, 0.1714760
953.9460, 2.5131000E-02
954.4281, 8.2162999E-02
954.9102, 0.1213130
955.3923, 9.8460000E-03
955.8745, 0.2805080
956.3566, 0.3626940
956.8387, 0.2421610
957.3208, 0.1641790
957.8029, 0.2071270
958.2850, 0.2872940
958.7672, 0.3295860
959.2493, 0.3442760
959.7314, 0.3775460
960.2135, 0.4457230
960.6956, 0.4723420
961.1777, 0.4483620
961.6599, 0.3935850
962.1420, 0.3023360
962.6241, 0.1974720
963.1062, 9.4306998E-02
963.5883, 6.7730001E-03
964.0704, 4.5952000E-02
964.5526, 9.7470004E-03
965.0347, 7.5410999E-02
965.5168, 0.1618310
965.9989, 0.2374710
966.4810, 0.2780700
966.9631, 0.3003650
967.4453, 0.3507650
967.9274, 0.4379790
968.4095, 0.4354000
968.8916, 0.1898780
969.3737, 9.6340002E-03
969.8558, 2.6340000E-03
970.3380, 8.8290997E-02
970.8201, 0.1272280
971.3022, 0.1184180
971.7843, 6.6390999E-02
972.2664, 3.4107000E-02
972.7485, 5.1231001E-02
973.2307, 0.1985150
973.7128, 0.4863830
974.1949, 0.6197150
974.6770, 0.6158030
975.1591, 0.4444810
975.6412, 0.1633740
976.1234, 1.4612000E-02
976.6055, 0.1493170
977.0876, 0.3097840
977.5698, 7.5994000E-02
978.0519, 0.3173030
978.5340, 0.2940240
979.0161, 6.2130000E-02
979.4982, 0.3077140
979.9803, 0.3315200
980.4625, 0.3120840
980.9446, 0.3957610
981.4267, 0.3599970
981.9088, 0.4976620
982.3909, 0.3573700
982.8730, 0.3055110
983.3552, 0.3742620
983.8373, 0.4283920
984.3194, 0.4154800
984.8015, 0.4124150
985.2836, 0.5363460
985.7657, 0.7364430
986.2479, 0.6623550
986.7300, 0.2180770
987.2121, 3.7960000E-03
987.6942, 0.1516930
988.1763, 0.2835450
988.6584, 0.2186180
989.1406, 6.0777999E-02
989.6227, 7.7721000E-02
990.1048, 0.1960370
990.5869, 9.9854998E-02
991.0690, 0.4322030
991.5511, 0.7413480
992.0333, 0.6167340
992.5154, 0.4429700
992.9975, 0.4107320
993.4796, 0.4497490
993.9617, 0.4652480
994.4438, 0.4517970
994.9260, 0.3640520
995.4081, 1.0260000E-02
995.8902, 0.1226670
996.3723, 0.2843280
996.8544, 0.7181360
997.3365, 0.7938440
997.8187, 0.6589070
998.3008, 0.6625610
998.7829, 0.8840580
999.2650, 0.9359420
999.7471, 0.5185950
1000.229, 0.1101550
1000.711, 5.7348002E-02
1001.193, 7.5689003E-02
1001.676, 8.4546998E-02
1002.158, 6.8948999E-02
1002.640, 9.3396999E-02
1003.122, 0.4724330
1003.604, 0.7537400
1004.086, 0.6560000
1004.568, 0.4935420
1005.050, 0.5354120
1005.533, 0.6526760
1006.015, 0.6656480
1006.497, 0.5755840
1006.979, 0.4931320
1007.461, 0.4752560
1007.943, 0.4754830
1008.425, 0.4265880
1008.907, 0.3653910
1009.389, 0.3497810
1009.872, 0.3630310
1010.354, 0.3744160
1010.836, 0.3729990
1011.318, 0.3241750
1011.800, 0.1918770
1012.282, 0.1127190
1012.764, 0.3726600
1013.246, 0.7767870
1013.729, 0.8313880
1014.211, 0.6091500
1014.693, 0.4728580
1015.175, 0.4974920
1015.657, 0.5188050
1016.139, 0.4167590
1016.621, 0.2671870
1017.103, 0.1880820
1017.585, 0.1764220
1018.068, 0.2360000
1018.550, 0.3584000
1019.032, 0.4910340
1019.514, 0.6178460
1019.996, 0.6371120
1020.478, 0.4447420
1020.960, 0.1573730
1021.442, 6.4539000E-02
1021.924, 0.1608810
1022.407, 0.2160800
1022.889, 0.2181590
1023.371, 0.2820360
1023.853, 0.4630070
1024.335, 0.5656570
1024.817, 0.3901690
1025.299, 5.0338998E-02
1025.781, 9.9581003E-02
1026.264, 4.3875001E-02
1026.746, 7.0620999E-02
1027.228, 0.2480740
1027.710, 0.4377900
1028.192, 0.6544190
1028.674, 0.7801650
1029.156, 0.6653000
1029.638, 0.3908880
1030.120, 0.3012600
1030.603, 0.4670010
1031.085, 0.5861240
1031.567, 0.6083220
1032.049, 0.6707460
1032.531, 0.8737790
1033.013, 1.044983
1033.495, 0.9740920
1033.977, 0.7214890
1034.459, 0.6234000
1034.942, 0.7513830
1035.424, 0.8481030
1035.906, 0.9220240
1036.388, 0.9253650
1036.870, 0.7965300
1037.352, 0.6510750
1037.834, 0.6145900
1038.316, 0.6697960
1038.799, 0.7136270
1039.281, 0.7240370
1039.763, 0.7654170
1040.245, 0.8371160
1040.727, 0.9391990
1041.209, 1.166729
1041.691, 1.351543
1042.173, 1.271688
1042.656, 0.9923340
1043.138, 0.8609140
1043.620, 0.9977630
1044.102, 1.064512
1044.584, 0.9194850
1045.066, 0.8440460
1045.548, 1.077633
1046.030, 1.341486
1046.512, 1.329576
1046.995, 1.095846
1047.477, 0.9355280
1047.959, 0.9067940
1048.441, 0.9085770
1048.923, 0.9879970
1049.405, 1.019894
1049.887, 0.8920310
1050.369, 0.7444800
1050.851, 0.7255590
1051.334, 0.8166900
1051.816, 0.9157790
1052.298, 1.040337
1052.780, 1.076090
1053.262, 0.8968110
1053.744, 0.7333850
1054.226, 0.7809260
1054.708, 0.8528250
1055.191, 0.7357860
1055.673, 0.4775960
1056.155, 0.2878680
1056.637, 0.2109070
1057.119, 0.2035960
1057.601, 0.3449540
1058.083, 0.4419500
1058.565, 0.2996750
1059.047, 0.1423090
1059.530, 0.2510640
1060.012, 0.5454180
1060.494, 0.7154660
1060.976, 0.6592710
1061.458, 0.5931870
1061.940, 0.6061780
1062.422, 0.6136170
1062.904, 0.5374570
1063.386, 0.4608190
1063.869, 0.5006580
1064.351, 0.6083200
1064.833, 0.6356050
1065.315, 0.5404280
1065.797, 0.4056590
1066.279, 0.1899030
1066.761, 3.5385001E-02
1067.243, 5.5654999E-02
1067.726, 0.1442300
1068.208, 0.2340760
1068.690, 0.2937510
1069.172, 0.2611960
1069.654, 0.1135430
1070.136, 1.8734001E-02
1070.618, 0.1074370
1071.100, 0.1955090
1071.583, 0.1211530
1072.065, 5.6147002E-02
1072.547, 0.2164380
1073.029, 0.5000340
1073.511, 0.6480670
1073.993, 0.6039310
1074.475, 0.6284710
1074.957, 0.8887020
1075.439, 1.177452
1075.922, 1.519756
1076.404, 1.728199
1076.886, 1.519382
1077.368, 1.099798
1077.850, 0.8560850
1078.332, 0.8548550
1078.814, 0.9019410
1079.296, 0.9140380
1079.779, 0.9561900
1080.261, 1.030130
1080.743, 1.174900
1081.225, 1.537186
1081.707, 1.934071
1082.189, 2.031288
1082.671, 1.824545
1083.153, 1.707699
1083.635, 1.892883
1084.118, 2.076719
1084.600, 2.184086
1085.082, 2.173828
1085.564, 1.885860
1086.046, 1.539225
1086.528, 1.443993
1087.010, 1.597961
1087.492, 1.776697
1087.974, 1.951593
1088.457, 2.028412
1088.939, 1.869162
1089.421, 1.711744
1089.903, 1.675867
1090.385, 1.745033
1090.867, 1.967625
1091.349, 2.268759
1091.831, 2.406137
1092.314, 2.277096
1092.796, 2.138863
1093.278, 2.067057
1093.760, 2.031370
1094.242, 2.004822
1094.724, 2.015877
1095.206, 2.121267
1095.688, 2.282211
1096.171, 2.402458
1096.653, 2.461603
1097.135, 2.489401
1097.617, 2.470074
1098.099, 2.453461
1098.581, 2.452652
1099.063, 2.468361
1099.545, 2.524437
1100.027, 2.588360
1100.510, 2.617012
1100.992, 2.605585
1101.474, 2.490864
1101.956, 2.090336
1102.438, 1.826742
1102.920, 1.943913
1103.402, 2.088747
1103.884, 1.968975
1104.366, 1.783049
1104.849, 1.873550
1105.331, 2.234426
1105.813, 2.438322
1106.295, 2.280708
1106.777, 2.186220
1107.259, 2.231266
1107.741, 2.326832
1108.223, 2.603592
1108.706, 2.783915
1109.188, 2.420807
1109.670, 1.658369
1110.152, 1.302980
1110.634, 1.613043
1111.116, 1.849329
1111.598, 2.005316
1112.080, 2.045080
1112.563, 1.847483
1113.045, 1.630045
1113.527, 1.584673
1114.009, 1.646276
1114.491, 1.641109
1114.973, 1.552816
1115.455, 1.467140
1115.937, 1.348873
1116.419, 1.295799
1116.901, 1.341688
1117.384, 1.436319
1117.866, 1.581375
1118.348, 1.731443
1118.830, 1.816374
1119.312, 1.836147
1119.794, 1.770308
1120.276, 1.575615
1120.758, 1.391760
1121.241, 1.155752
1121.723, 1.119875
1122.205, 1.492403
1122.687, 1.951918
1123.169, 2.119301
1123.651, 2.034573
1124.133, 1.917589
1124.615, 1.774746
1125.098, 1.614447
1125.580, 1.383087
1126.062, 1.296089
1126.544, 1.465551
1127.026, 1.630730
1127.508, 1.557280
1127.990, 1.328394
1128.472, 1.121080
1128.954, 0.9328440
1129.437, 0.8765050
1129.919, 0.9599570
1130.401, 1.058193
1130.883, 1.169851
1131.365, 1.243467
1131.847, 1.224592
1132.329, 1.171286
1132.811, 1.185408
1133.293, 1.252634
1133.776, 1.275560
1134.258, 1.263586
1134.740, 1.326368
1135.222, 1.472370
1135.704, 1.510056
1136.186, 1.382027
1136.668, 1.297470
1137.150, 1.421190
1137.633, 1.662834
1138.115, 1.946157
1138.597, 2.208052
1139.079, 2.121765
1139.561, 1.768421
1140.043, 1.590586
1140.525, 1.678034
1141.007, 1.822777
1141.490, 1.902227
1141.972, 1.907675
1142.454, 1.771372
1142.936, 1.594765
1143.418, 1.535471
1143.900, 1.570364
1144.382, 1.687540
1144.864, 1.839663
1145.346, 1.894289
1145.828, 1.802200
1146.311, 1.678711
1146.793, 1.562162
1147.275, 1.497023
1147.757, 1.581457
1148.239, 1.704887
1148.721, 1.691408
1149.203, 1.624130
1149.685, 1.683336
1150.168, 1.893097
1150.650, 2.034229
1151.132, 1.952578
1151.614, 1.919889
1152.096, 2.168449
1152.578, 2.412476
1153.060, 2.405750
1153.542, 2.324530
1154.025, 2.347027
1154.507, 2.491358
1154.989, 2.787197
1155.471, 3.327585
1155.953, 3.572578
1156.435, 3.185310
1156.917, 2.776804
1157.399, 2.502180
1157.881, 2.312366
1158.364, 2.182322
1158.846, 2.105059
1159.328, 2.090023
1159.810, 2.136087
1160.292, 2.136900
1160.774, 2.088106
1161.256, 2.007311
1161.738, 1.910168
1162.220, 1.744005
1162.703, 1.361643
1163.185, 1.097723
1163.667, 1.388704
1164.149, 1.994423
1164.631, 2.081369
1165.113, 1.550974
1165.595, 1.053280
1166.077, 0.5513920
1166.560, 0.2608930
1167.042, 0.2517760
1167.524, 0.3430390
1168.006, 0.4373190
1168.488, 0.5403920
1168.970, 0.6758860
1169.452, 0.8168750
1169.934, 0.7971250
1170.417, 0.6307350
1170.899, 0.5404260
1171.381, 0.5391880
1171.863, 0.4628180
1172.345, 0.2606580
1172.827, 0.1037220
1173.309, 0.1414150
1173.791, 0.2571910
1174.273, 0.2474230
1174.755, 0.2879870
1175.238, 0.3036920
1175.720, 0.2749600
1176.202, 0.2591300
1176.684, 0.1535570
1177.166, 6.8173997E-02
1177.648, 5.0136998E-02
1178.130, 6.6060998E-02
1178.612, 0.1083510
1179.095, 0.1462190
1179.577, 0.1373120
1180.059, 0.1149790
1180.541, 0.1520580
1181.023, 0.1943970
1181.505, 7.4028000E-02
1181.987, 0.1834720
1182.469, 0.2518460
1182.952, 0.1032010
1183.434, 0.3636440
1183.916, 0.1638220
1184.398, 3.0027000E-02
1184.880, 7.7179000E-02
1185.362, 0.2807940
1185.844, 0.4262540
1186.326, 0.4879650
1186.808, 0.4393060
1187.291, 0.2683940
1187.773, 6.9126002E-02
1188.255, 0.2928010
1188.737, 0.4560220
1189.219, 0.2407250
1189.701, 2.4557000E-02
1190.183, 3.4290001E-02
1190.665, 1.5413000E-02
1191.147, 2.9715000E-02
1191.630, 6.8990998E-02
1192.112, 8.2817003E-02
1192.594, 0.5491620
1193.076, 0.5031030
1193.558, 0.2207180
1194.040, 0.5678710
1194.522, 0.2363820
1195.004, 9.0212002E-02
1195.487, 1.4671000E-02
1195.969, 0.2412130
1196.451, 0.1511270
1196.933, 0.1779400
1197.415, 0.5069890
1197.897, 0.8090930
1198.379, 0.8966730
1198.861, 0.7830810
1199.344, 0.6334320
1199.826, 0.5033860
1200.308, 0.3805580
1200.790, 0.2405660
1201.272, 0.1194440
1201.754, 7.5902998E-02
1202.236, 6.9683000E-02
1202.718, 5.9149001E-02
1203.200, 3.5122000E-02
1203.682, 6.1317001E-02
1204.165, 0.1755160
1204.647, 0.1138100
1205.129, 0.1582110
1205.611, 0.3252620
1206.093, 9.3128003E-02
1206.575, 7.1148001E-02
1207.057, 0.1847950
1207.539, 0.4659790
1208.022, 0.5113090
1208.504, 0.4221880
1208.986, 0.2605900
1209.468, 9.2289001E-02
1209.950, 0.1194610
1210.432, 0.4367540
1210.914, 0.6449320
1211.396, 0.6955490
1211.879, 0.6601750
1212.361, 0.4656750
1212.843, 0.3181500
1213.325, 0.3523750
1213.807, 0.4417820
1214.289, 0.4313450
1214.771, 0.3451160
1215.253, 0.2918430
1215.735, 0.2784600
1216.218, 0.2355770
1216.700, 0.1520200
1217.182, 0.2069800
1217.664, 0.4508670
1218.146, 0.6016460
1218.628, 0.4851930
1219.110, 0.2970660
1219.592, 0.3107870
1220.074, 0.2068370
1220.557, 0.3347090
1221.039, 0.1455330
1221.521, 5.0363999E-02
1222.003, 6.5952003E-02
1222.485, 0.2152420
1222.967, 0.4699480
1223.449, 0.6781410
1223.931, 0.7609580
1224.414, 0.7580910
1224.896, 0.6164740
1225.378, 0.5036070
1225.860, 0.5797420
1226.342, 0.7113020
1226.824, 0.7744640
1227.306, 0.7718750
1227.788, 0.6891750
1228.271, 0.5444150
1228.753, 0.5695000
1229.235, 0.9698370
1229.717, 1.258278
1230.199, 1.381882
1230.681, 1.365126
1231.163, 1.168226
1231.645, 0.8885990
1232.127, 0.4999200
1232.609, 0.1361680
1233.092, 0.2279660
1233.574, 0.7259960
1234.056, 1.045391
1234.538, 1.173370
1235.020, 1.171291
1235.502, 1.004772
1235.984, 0.8712540
1236.466, 0.9315550
1236.949, 1.041674
1237.431, 1.142841
1237.913, 1.217234
1238.395, 1.120003
1238.877, 0.9979840
1239.359, 0.8112160
1239.841, 0.6168820
1240.323, 0.5006600
1240.806, 0.4391370
1241.288, 0.3826960
1241.770, 0.3215480
1242.252, 0.3064290
1242.734, 0.3960400
1243.216, 0.4671880
1243.698, 0.4154910
1244.180, 0.4024930
1244.662, 0.4578150
1245.145, 0.5261650
1245.627, 0.4285850
1246.109, 0.2459070
1246.591, 0.2300220
1247.073, 0.4203090
1247.555, 0.5007060
1248.037, 0.3482990
1248.519, 0.2911660
1249.001, 0.4182820
1249.484, 0.4621890
1249.966, 0.2719150
1250.448, 0.1369970
1250.930, 0.2863160
1251.412, 0.5658870
1251.894, 0.6938720
1252.376, 0.6632330
1252.858, 0.5566480
1253.341, 0.3740460
1253.823, 0.2782380
1254.305, 0.2809220
1254.787, 0.3649310
1255.269, 0.5061470
1255.751, 0.5493090
1256.233, 0.3802830
1256.715, 0.1568680
1257.198, 3.9100001E-04
1257.680, 8.7931000E-02
1258.162, 1.5729999E-02
1258.644, 0.1204360
1259.126, 0.2094080
1259.608, 0.2463070
1260.090, 0.2145400
1260.572, 0.1325380
1261.054, 0.1560730
1261.536, 0.3998050
1262.019, 0.5823690
1262.501, 0.6314330
1262.983, 0.6382370
1263.465, 0.6410310
1263.947, 0.5846020
1264.429, 0.3766900
1264.911, 0.1557370
1265.393, 0.1443180
1265.876, 0.3051950
1266.358, 0.3914260
1266.840, 0.3939900
1267.322, 0.4393330
1267.804, 0.5286560
1268.286, 0.5364000
1268.768, 0.4375080
1269.250, 0.3299660
1269.733, 0.2664680
1270.215, 0.1664240
1270.697, 9.3356997E-02
1271.179, 4.2513002E-02
1271.661, 9.9510001E-03
1272.143, 4.0144000E-02
1272.625, 1.0740000E-03
1273.107, 7.9848997E-02
1273.589, 0.1305770
1274.072, 0.1541580
1274.554, 0.2010000
1275.036, 0.2902970
1275.518, 0.3570380
1276.000, 0.3733790
1276.482, 0.3759500
1276.964, 0.3637700
1277.446, 0.3363320
1277.929, 0.3341370
1278.411, 0.3495500
1278.893, 0.4137250
1279.375, 0.4889970
1279.857, 0.4643840
1280.339, 0.3428960
1280.821, 0.2254330
1281.303, 0.1170600
1281.786, 3.3884000E-02
1282.268, 0.0000000E+00
##END=



