##NAMES=Thometzekite
##RRUFFID=R130618
##IDEAL CHEMISTRY=Pb^2+^Cu^2+^_2_(As^5+^O_4_)_2_&#183;2H_2_O
##LOCALITY=Tsumeb mine, Tsumeb, Otjikoto Region, Namibia
##OWNER=RRUFF
##SOURCE=Mark N. Feinglos
##DESCRIPTION=Light blue-green with unidentified deeper green material.
##STATUS=The identification of this mineral has been confirmed only by single crystal X-ray diffraction.
##URL=rruff.info/R130618
166.7218, 0.0000000E+00
167.2039, 2.806152
167.6860, 0.4746090
168.1681, 0.7534180
168.6502, 0.2426760
169.1323, 1.757324
169.6145, 3.991211
170.0966, 7.234375
170.5787, 13.60352
171.0608, 19.82471
171.5429, 22.51416
172.0250, 21.51074
172.5072, 19.97852
172.9893, 17.22852
173.4714, 15.87500
173.9535, 20.60938
174.4356, 40.21436
174.9177, 64.04883
175.3999, 79.44531
175.8820, 85.53076
176.3641, 87.62012
176.8462, 89.22559
177.3283, 90.58154
177.8104, 92.36719
178.2926, 93.84863
178.7747, 96.01416
179.2568, 101.8457
179.7389, 112.2109
180.2210, 122.0137
180.7031, 125.3779
181.1853, 123.8325
181.6674, 120.8555
182.1495, 117.4741
182.6316, 113.2866
183.1137, 108.2373
183.5958, 102.0732
184.0780, 95.46924
184.5601, 89.95947
185.0422, 86.02930
185.5243, 82.41064
186.0064, 78.70215
186.4885, 74.67969
186.9707, 68.29932
187.4528, 58.46045
187.9349, 48.20361
188.4170, 42.87109
188.8991, 41.49951
189.3812, 41.32471
189.8634, 42.42188
190.3455, 43.97900
190.8276, 41.49463
191.3097, 33.51758
191.7918, 23.70312
192.2739, 18.14502
192.7561, 16.83105
193.2382, 17.90137
193.7203, 22.22119
194.2024, 29.12109
194.6845, 31.34473
195.1666, 27.41797
195.6488, 20.52783
196.1309, 16.28418
196.6130, 14.75684
197.0951, 14.74609
197.5772, 16.39941
198.0593, 19.81152
198.5415, 21.59521
199.0236, 20.43262
199.5057, 17.66699
199.9878, 17.33789
200.4699, 19.76611
200.9520, 23.28223
201.4342, 28.14844
201.9163, 34.88281
202.3984, 36.47168
202.8805, 31.08105
203.3626, 21.81250
203.8447, 16.39258
204.3269, 15.77100
204.8090, 16.61670
205.2911, 16.71582
205.7732, 16.19434
206.2553, 17.02539
206.7374, 19.20459
207.2196, 21.67578
207.7017, 24.50146
208.1838, 28.12988
208.6659, 30.91797
209.1480, 31.24512
209.6301, 30.25342
210.1123, 32.95654
210.5944, 42.73438
211.0765, 58.55957
211.5586, 70.96533
212.0407, 75.96533
212.5228, 79.59961
213.0050, 85.45996
213.4871, 91.78174
213.9692, 96.54004
214.4513, 98.86670
214.9334, 99.86670
215.4155, 105.2734
215.8977, 118.5708
216.3798, 127.8301
216.8619, 126.1274
217.3440, 110.6333
217.8261, 100.8384
218.3082, 98.21826
218.7904, 100.5645
219.2725, 100.8667
219.7546, 97.82764
220.2367, 94.94043
220.7188, 94.25000
221.2009, 97.68213
221.6831, 98.71045
222.1652, 97.73877
222.6473, 94.83301
223.1294, 89.41943
223.6115, 80.12500
224.0936, 70.94434
224.5758, 65.44434
225.0579, 62.66943
225.5400, 60.51172
226.0221, 59.22217
226.5042, 58.64453
226.9863, 58.02441
227.4685, 57.45020
227.9506, 56.74805
228.4327, 55.82617
228.9148, 54.70459
229.3969, 52.87451
229.8790, 48.18555
230.3612, 43.30615
230.8433, 45.86182
231.3254, 61.12012
231.8075, 75.77002
232.2896, 83.77246
232.7717, 81.96094
233.2539, 80.91797
233.7360, 80.57764
234.2181, 80.85156
234.7002, 81.65088
235.1823, 82.79883
235.6644, 84.52979
236.1466, 87.41064
236.6287, 93.13135
237.1108, 95.15039
237.5929, 92.59180
238.0750, 86.59766
238.5571, 79.14209
239.0393, 68.86426
239.5214, 59.38721
240.0035, 52.41650
240.4856, 49.35693
240.9677, 44.62598
241.4498, 37.11621
241.9320, 28.72314
242.4141, 22.90625
242.8962, 21.37207
243.3783, 19.93945
243.8604, 17.32812
244.3425, 13.44336
244.8247, 9.001953
245.3068, 3.241699
245.7889, 2.516113
246.2710, 6.234863
246.7531, 7.621582
247.2352, 7.556641
247.7174, 6.192383
248.1995, 3.499512
248.6816, 0.1972660
249.1637, 4.281738
249.6458, 8.790527
250.1279, 12.00635
250.6101, 15.03662
251.0922, 14.52979
251.5743, 7.468262
252.0564, 8.143555
252.5385, 14.33398
253.0206, 6.009766
253.5028, 7.061523
253.9849, 12.55322
254.4670, 7.788086
254.9491, 1.522949
255.4312, 5.013672
255.9133, 11.97705
256.3955, 15.39111
256.8776, 13.47266
257.3597, 10.01562
257.8418, 9.507324
258.3239, 14.29199
258.8061, 16.22461
259.2882, 12.52686
259.7703, 3.290527
260.2524, 2.226074
260.7345, 2.609863
261.2166, 1.317383
261.6988, 1.907715
262.1809, 5.599121
262.6630, 7.484375
263.1451, 6.104492
263.6272, 1.948242
264.1093, 1.278320
264.5915, 3.958984
265.0736, 4.862793
265.5557, 1.535156
266.0378, 8.556152
266.5199, 13.22559
267.0020, 8.791016
267.4842, 2.457520
267.9663, 8.641602
268.4484, 8.610352
268.9305, 6.082031
269.4126, 3.443848
269.8947, 0.6074220
270.3769, 1.843262
270.8590, 3.235352
271.3411, 4.542969
271.8232, 9.574707
272.3053, 19.99023
272.7874, 28.93750
273.2696, 32.22803
273.7517, 29.13916
274.2338, 23.83496
274.7159, 14.78223
275.1980, 5.460449
275.6801, 5.776367
276.1623, 18.07910
276.6444, 29.74561
277.1265, 32.54932
277.6086, 25.59033
278.0907, 25.12891
278.5728, 33.26855
279.0550, 45.49658
279.5371, 53.96045
280.0192, 58.32617
280.5013, 61.62500
280.9834, 64.31934
281.4655, 66.43896
281.9477, 71.05078
282.4298, 78.19092
282.9119, 87.20654
283.3940, 97.43066
283.8761, 108.7979
284.3582, 120.4233
284.8404, 131.4526
285.3225, 142.1831
285.8046, 156.0747
286.2867, 173.7993
286.7688, 190.3252
287.2509, 198.0811
287.7331, 197.7690
288.2152, 199.5786
288.6973, 207.6812
289.1794, 220.3057
289.6615, 231.7773
290.1436, 242.4170
290.6258, 250.6909
291.1079, 252.8613
291.5900, 250.6709
292.0721, 253.9688
292.5542, 268.1157
293.0363, 286.6108
293.5185, 293.9165
294.0006, 290.3628
294.4827, 287.3271
294.9648, 295.4277
295.4469, 311.4224
295.9290, 324.5605
296.4112, 331.9146
296.8933, 337.3413
297.3754, 346.9990
297.8575, 360.1597
298.3396, 373.2124
298.8217, 383.1436
299.3039, 391.1445
299.7860, 399.6841
300.2681, 409.7593
300.7502, 418.5776
301.2323, 421.7852
301.7144, 420.5649
302.1966, 418.5986
302.6787, 417.3306
303.1608, 416.6924
303.6429, 417.1040
304.1250, 418.8301
304.6071, 420.2988
305.0893, 421.2202
305.5714, 420.8960
306.0535, 417.4604
306.5356, 405.4722
307.0177, 392.8384
307.4998, 388.2095
307.9820, 391.8159
308.4641, 396.3804
308.9462, 397.2637
309.4283, 395.6543
309.9104, 392.6489
310.3925, 390.1357
310.8747, 387.2388
311.3568, 379.9863
311.8389, 369.1680
312.3210, 363.9429
312.8031, 376.2139
313.2852, 393.2920
313.7674, 402.9990
314.2495, 397.5220
314.7316, 390.5024
315.2137, 387.4028
315.6958, 387.6089
316.1779, 389.4131
316.6601, 394.7383
317.1422, 400.3896
317.6243, 403.7905
318.1064, 401.8154
318.5885, 401.4985
319.0706, 406.1606
319.5528, 414.0215
320.0349, 421.6489
320.5170, 428.6558
320.9991, 434.5815
321.4812, 438.7241
321.9633, 440.8174
322.4455, 443.3320
322.9276, 448.2368
323.4097, 453.6626
323.8918, 457.2808
324.3739, 455.0581
324.8560, 454.2671
325.3382, 457.3052
325.8203, 464.9067
326.3024, 470.9741
326.7845, 476.4155
327.2666, 479.7427
327.7487, 479.7983
328.2309, 469.1147
328.7130, 464.3247
329.1951, 470.1748
329.6772, 485.3345
330.1593, 495.5073
330.6414, 497.2949
331.1236, 496.7871
331.6057, 496.9639
332.0878, 496.2500
332.5699, 498.9087
333.0520, 505.8892
333.5341, 515.9897
334.0163, 525.7202
334.4984, 535.0410
334.9805, 543.2979
335.4626, 550.2173
335.9447, 555.6479
336.4268, 560.7554
336.9090, 565.9761
337.3911, 570.6719
337.8732, 572.7104
338.3553, 570.4058
338.8374, 571.7725
339.3195, 581.1968
339.8017, 598.1694
340.2838, 609.9863
340.7659, 616.1450
341.2480, 618.7617
341.7301, 619.7065
342.2122, 618.8730
342.6944, 617.0947
343.1765, 613.2896
343.6586, 609.1953
344.1407, 612.3491
344.6228, 623.3438
345.1049, 633.6631
345.5871, 634.1597
346.0692, 626.8340
346.5513, 625.9751
347.0334, 635.5371
347.5155, 647.9785
347.9977, 649.0903
348.4798, 640.1646
348.9619, 631.4507
349.4440, 628.8779
349.9261, 630.7988
350.4082, 635.4829
350.8904, 643.8228
351.3725, 648.3516
351.8546, 636.3125
352.3367, 613.7656
352.8188, 596.6030
353.3009, 596.8281
353.7831, 603.3862
354.2652, 604.0244
354.7473, 598.8042
355.2294, 590.2051
355.7115, 578.3936
356.1936, 564.7993
356.6758, 551.3555
357.1579, 539.0552
357.6400, 526.4326
358.1221, 510.8022
358.6042, 493.5771
359.0863, 479.4521
359.5685, 473.6875
360.0506, 470.2612
360.5327, 465.4321
361.0148, 459.7930
361.4969, 450.1191
361.9790, 431.3208
362.4612, 407.7266
362.9433, 386.8926
363.4254, 373.3555
363.9075, 361.2041
364.3896, 348.0659
364.8717, 333.5654
365.3539, 319.0952
365.8360, 305.6357
366.3181, 291.8555
366.8002, 276.3911
367.2823, 256.1489
367.7644, 237.3203
368.2466, 220.9414
368.7287, 206.8555
369.2108, 193.5884
369.6929, 181.5806
370.1750, 169.9688
370.6571, 158.4478
371.1393, 147.3071
371.6214, 135.8604
372.1035, 124.3682
372.5856, 112.5225
373.0677, 99.56104
373.5498, 84.84424
374.0320, 70.15332
374.5141, 55.14307
374.9962, 39.07764
375.4783, 30.86182
375.9604, 34.22412
376.4425, 39.39453
376.9247, 32.17773
377.4068, 9.577637
377.8889, 6.190918
378.3710, 6.760254
378.8531, 3.184570
379.3352, 2.515137
379.8174, 10.30518
380.2995, 23.62305
380.7816, 27.11719
381.2637, 22.00781
381.7458, 19.00195
382.2279, 20.07080
382.7101, 22.48096
383.1922, 22.03125
383.6743, 18.81055
384.1564, 13.96436
384.6385, 6.899414
385.1206, 1.240234
385.6028, 7.044922
386.0849, 9.989258
386.5670, 15.24609
387.0491, 31.53027
387.5312, 53.46387
388.0133, 70.46875
388.4955, 75.79004
388.9776, 76.92090
389.4597, 78.82227
389.9418, 81.76953
390.4239, 87.56445
390.9060, 99.74023
391.3882, 113.9834
391.8703, 125.9287
392.3524, 133.1816
392.8345, 141.6338
393.3166, 155.4092
393.7987, 172.4287
394.2809, 188.2070
394.7630, 202.7949
395.2451, 214.6309
395.7272, 221.6816
396.2093, 222.4551
396.6914, 226.6367
397.1736, 239.4912
397.6557, 254.8965
398.1378, 267.2773
398.6199, 276.0234
399.1020, 281.2998
399.5841, 282.2295
400.0663, 279.2607
400.5484, 275.4727
401.0305, 270.4121
401.5126, 265.0664
401.9947, 260.5381
402.4768, 259.8906
402.9590, 252.6543
403.4411, 236.1787
403.9232, 215.3379
404.4053, 199.0879
404.8874, 189.3105
405.3695, 178.6455
405.8517, 163.1816
406.3338, 143.8018
406.8159, 133.0576
407.2980, 132.9951
407.7801, 134.6318
408.2622, 128.1973
408.7444, 114.1064
409.2265, 102.8125
409.7086, 96.90332
410.1907, 93.76172
410.6728, 88.26758
411.1549, 80.46484
411.6371, 71.86230
412.1192, 61.80762
412.6013, 51.72852
413.0834, 45.88672
413.5655, 45.12109
414.0476, 44.23242
414.5298, 37.28809
415.0119, 26.55859
415.4940, 16.57129
415.9761, 8.765625
416.4582, 2.825195
416.9403, 0.3398440
417.4225, 1.203125
417.9046, 2.902344
418.3867, 9.620117
418.8688, 16.52734
419.3509, 19.14258
419.8330, 14.41992
420.3152, 9.808594
420.7973, 8.275391
421.2794, 8.595703
421.7615, 8.532227
422.2436, 8.481445
422.7257, 6.927734
423.2079, 2.741211
423.6900, 4.500000
424.1721, 11.25488
424.6542, 17.01172
425.1363, 22.38867
425.6184, 27.80859
426.1006, 30.76953
426.5827, 37.29297
427.0648, 49.14355
427.5469, 64.69141
428.0290, 77.37988
428.5111, 84.25000
428.9933, 93.60449
429.4754, 110.0537
429.9575, 135.0293
430.4396, 155.3867
430.9217, 169.3398
431.4038, 182.4023
431.8860, 201.9189
432.3681, 228.1318
432.8502, 254.4600
433.3323, 279.6523
433.8144, 303.6914
434.2965, 324.7686
434.7787, 343.1016
435.2608, 364.6924
435.7429, 398.7305
436.2250, 439.1885
436.7071, 471.2061
437.1892, 492.9473
437.6714, 505.4883
438.1535, 510.2764
438.6356, 507.1602
439.1177, 495.0742
439.5998, 470.3154
440.0819, 438.0635
440.5641, 398.3242
441.0462, 352.3779
441.5283, 312.1699
442.0104, 283.8672
442.4925, 264.4863
442.9746, 252.3193
443.4568, 249.1943
443.9389, 248.0527
444.4210, 246.4746
444.9031, 245.3662
445.3852, 246.5312
445.8673, 253.7646
446.3495, 260.0576
446.8316, 262.3281
447.3137, 259.5332
447.7958, 260.9355
448.2779, 270.7598
448.7600, 281.4336
449.2422, 287.2188
449.7243, 285.8691
450.2064, 284.9580
450.6885, 287.0107
451.1706, 289.0703
451.6527, 281.9238
452.1349, 263.2334
452.6170, 243.2793
453.0991, 225.2412
453.5812, 209.0459
454.0633, 199.6992
454.5454, 197.9424
455.0276, 198.4980
455.5097, 195.8418
455.9918, 190.4209
456.4739, 185.1582
456.9560, 181.0537
457.4381, 176.8770
457.9203, 170.0889
458.4024, 161.2734
458.8845, 153.0234
459.3666, 149.0996
459.8488, 145.6973
460.3309, 136.6064
460.8130, 120.7598
461.2951, 107.1357
461.7772, 105.9336
462.2593, 109.3311
462.7415, 108.1006
463.2236, 95.86035
463.7057, 81.96973
464.1878, 68.74805
464.6699, 56.63965
465.1520, 46.93457
465.6342, 39.86914
466.1163, 35.64844
466.5984, 34.82129
467.0805, 38.75879
467.5626, 42.50293
468.0447, 47.49512
468.5269, 51.32227
469.0090, 50.94043
469.4911, 41.22852
469.9732, 37.24219
470.4553, 43.03711
470.9374, 56.05859
471.4196, 65.17676
471.9017, 69.12598
472.3838, 71.78418
472.8659, 74.62305
473.3480, 77.64160
473.8301, 81.56348
474.3123, 85.88184
474.7944, 92.79004
475.2765, 108.6895
475.7586, 130.9951
476.2407, 145.5449
476.7228, 144.2090
477.2050, 138.2939
477.6871, 144.1885
478.1692, 159.7891
478.6513, 177.0918
479.1334, 192.1582
479.6155, 206.9102
480.0977, 223.9756
480.5798, 244.4023
481.0619, 264.1104
481.5440, 276.8906
482.0261, 288.4238
482.5082, 305.4414
482.9904, 337.6035
483.4725, 366.7275
483.9546, 384.3076
484.4367, 393.8057
484.9188, 408.8330
485.4009, 435.1172
485.8831, 463.4375
486.3652, 490.3535
486.8473, 514.3906
487.3294, 539.1074
487.8115, 567.1221
488.2936, 594.1084
488.7758, 614.5293
489.2579, 624.1611
489.7400, 636.8701
490.2221, 656.0088
490.7042, 679.7666
491.1863, 700.9932
491.6685, 719.4229
492.1506, 736.6201
492.6327, 754.5635
493.1148, 772.5703
493.5969, 785.2314
494.0790, 792.6377
494.5612, 797.9004
495.0433, 804.3154
495.5254, 810.7812
496.0075, 815.1699
496.4896, 816.3242
496.9717, 816.4453
497.4539, 818.1543
497.9360, 820.4922
498.4181, 820.7422
498.9002, 813.6729
499.3823, 807.0605
499.8644, 808.2783
500.3466, 818.7080
500.8287, 821.7441
501.3108, 806.6113
501.7929, 785.0518
502.2750, 766.0703
502.7571, 749.4375
503.2393, 736.8604
503.7214, 732.9365
504.2035, 731.8652
504.6856, 720.4209
505.1677, 691.3125
505.6498, 665.3760
506.1320, 651.3789
506.6141, 648.5078
507.0962, 633.0645
507.5783, 602.0273
508.0604, 569.0234
508.5425, 546.1035
509.0247, 532.5684
509.5068, 517.8516
509.9889, 501.0020
510.4710, 482.1328
510.9531, 459.0938
511.4352, 433.6484
511.9174, 412.1660
512.3995, 401.6758
512.8816, 393.6416
513.3637, 375.8604
513.8458, 350.0752
514.3279, 327.3516
514.8101, 320.4688
515.2922, 315.2061
515.7743, 298.0654
516.2564, 262.3203
516.7385, 230.7549
517.2206, 213.8828
517.7028, 204.4219
518.1849, 194.2139
518.6670, 183.0635
519.1491, 169.9248
519.6312, 153.6709
520.1133, 135.3486
520.5955, 118.6650
521.0776, 104.8906
521.5597, 91.21094
522.0418, 75.31836
522.5239, 56.44434
523.0060, 46.92871
523.4882, 49.21387
523.9703, 54.32324
524.4524, 53.28711
524.9345, 46.33691
525.4166, 36.38184
525.8987, 22.26562
526.3809, 8.498047
526.8630, 2.765625
527.3451, 3.647461
527.8272, 5.480469
528.3093, 3.438477
528.7914, 1.773438
529.2736, 7.342773
529.7557, 19.43750
530.2378, 27.86035
530.7199, 23.35840
531.2020, 14.68262
531.6841, 9.061523
532.1663, 9.106445
532.6484, 9.292969
533.1305, 9.924805
533.6126, 9.476563
534.0947, 5.736328
534.5768, 7.898438
535.0590, 16.48828
535.5411, 15.41895
536.0232, 6.520508
536.5053, 1.479492
536.9874, 0.7490230
537.4695, 2.544922
537.9517, 6.717773
538.4338, 13.40918
538.9159, 18.95996
539.3980, 23.62988
539.8801, 26.24414
540.3622, 23.93555
540.8444, 18.01367
541.3265, 14.65430
541.8086, 16.20898
542.2907, 18.95508
542.7728, 19.08984
543.2549, 16.62988
543.7371, 11.57715
544.2192, 2.258789
544.7013, 13.98535
545.1834, 12.42871
545.6655, 1.548828
546.1476, 11.95215
546.6298, 8.399414
547.1119, 1.364258
547.5940, 2.106445
548.0761, 1.523438
548.5582, 3.082031
549.0403, 0.5332030
549.5225, 3.914063
550.0046, 7.733398
550.4867, 11.47949
550.9688, 13.12012
551.4509, 10.72070
551.9330, 6.321289
552.4152, 8.087891
552.8973, 16.87891
553.3794, 26.11621
553.8615, 32.24609
554.3436, 35.74316
554.8257, 39.79297
555.3079, 44.34473
555.7900, 48.08789
556.2721, 49.82617
556.7542, 49.85547
557.2363, 48.33008
557.7184, 44.67188
558.2006, 41.45020
558.6827, 42.39062
559.1648, 44.94043
559.6469, 44.83105
560.1290, 37.19531
560.6111, 29.93359
561.0933, 25.58105
561.5754, 24.16797
562.0575, 25.33594
562.5396, 31.86328
563.0217, 38.39062
563.5038, 42.76074
563.9860, 44.32031
564.4681, 46.99902
564.9502, 51.82910
565.4323, 56.08984
565.9144, 56.10742
566.3965, 51.36035
566.8787, 49.40039
567.3608, 51.95996
567.8429, 56.45020
568.3250, 58.23340
568.8071, 57.74219
569.2892, 56.82910
569.7714, 55.10059
570.2535, 54.18164
570.7356, 56.68945
571.2177, 62.27539
571.6998, 68.31934
572.1819, 73.23730
572.6641, 78.17480
573.1462, 84.52930
573.6283, 93.11426
574.1104, 99.50879
574.5925, 101.6504
575.0746, 101.3281
575.5568, 100.2402
576.0389, 97.08203
576.5210, 94.91406
577.0031, 93.36719
577.4852, 93.16699
577.9673, 96.97754
578.4495, 107.6250
578.9316, 113.6445
579.4137, 110.1143
579.8958, 99.65820
580.3779, 92.31445
580.8600, 88.14355
581.3422, 88.09082
581.8243, 95.51074
582.3064, 107.2031
582.7885, 114.8311
583.2706, 117.5713
583.7527, 120.4590
584.2349, 131.0850
584.7170, 142.8682
585.1991, 147.1387
585.6812, 137.3037
586.1633, 126.9131
586.6454, 118.1758
587.1276, 113.3408
587.6097, 116.1621
588.0918, 138.7402
588.5739, 155.9697
589.0560, 160.5068
589.5381, 154.3428
590.0203, 151.7666
590.5024, 153.5732
590.9845, 157.6230
591.4666, 163.6533
591.9487, 171.8115
592.4308, 178.0322
592.9130, 182.9131
593.3951, 185.0957
593.8772, 180.6514
594.3593, 172.0225
594.8414, 166.6826
595.3235, 165.0986
595.8057, 169.3203
596.2878, 187.8008
596.7699, 212.9170
597.2520, 229.9258
597.7341, 227.1846
598.2162, 221.1758
598.6984, 217.5869
599.1805, 216.5957
599.6626, 219.5078
600.1447, 233.5928
600.6268, 244.9609
601.1089, 246.8057
601.5911, 238.1016
602.0732, 236.1875
602.5553, 244.1328
603.0374, 252.2139
603.5195, 251.7627
604.0016, 241.6191
604.4838, 238.6592
604.9659, 246.0117
605.4480, 253.8252
605.9301, 246.1055
606.4122, 227.0928
606.8943, 214.4062
607.3765, 215.0840
607.8586, 220.2891
608.3407, 222.3242
608.8228, 220.9258
609.3049, 215.7402
609.7870, 200.6719
610.2692, 187.1465
610.7513, 183.1045
611.2334, 187.8018
611.7155, 190.3301
612.1976, 185.1133
612.6797, 180.4541
613.1619, 180.1152
613.6440, 184.9424
614.1261, 190.4238
614.6082, 198.7598
615.0903, 205.0801
615.5724, 203.3086
616.0546, 192.8545
616.5367, 186.2676
617.0188, 185.2295
617.5009, 188.6670
617.9830, 197.5918
618.4651, 209.5518
618.9473, 217.2627
619.4294, 215.9775
619.9115, 211.9902
620.3936, 211.2998
620.8757, 213.1357
621.3578, 214.9219
621.8400, 213.9951
622.3221, 213.1074
622.8042, 215.2051
623.2863, 220.6670
623.7684, 222.1455
624.2505, 216.5410
624.7327, 209.0703
625.2148, 201.4844
625.6969, 192.6680
626.1790, 189.2275
626.6611, 193.3291
627.1432, 198.6426
627.6254, 198.1074
628.1075, 192.3389
628.5896, 186.0635
629.0717, 179.3936
629.5538, 173.3730
630.0359, 170.6279
630.5181, 169.4766
631.0002, 166.4424
631.4823, 158.3740
631.9644, 150.1426
632.4465, 143.1875
632.9286, 137.6904
633.4108, 135.8936
633.8929, 143.8623
634.3750, 151.6055
634.8571, 154.6562
635.3392, 152.3340
635.8214, 147.6914
636.3035, 140.2607
636.7856, 132.6719
637.2677, 125.2900
637.7498, 117.6504
638.2319, 113.6611
638.7141, 114.2773
639.1962, 116.9873
639.6783, 120.2686
640.1604, 123.6738
640.6425, 125.4258
641.1246, 125.4297
641.6068, 123.0488
642.0889, 115.9912
642.5710, 106.5615
643.0531, 98.42676
643.5352, 92.82031
644.0173, 88.56738
644.4995, 84.93652
644.9816, 82.73047
645.4637, 83.61621
645.9458, 90.77539
646.4279, 96.19141
646.9100, 97.33887
647.3922, 94.79785
647.8743, 95.29199
648.3564, 99.33984
648.8385, 102.5000
649.3206, 100.5273
649.8027, 94.89746
650.2849, 97.26172
650.7670, 107.6719
651.2491, 117.1660
651.7312, 115.6943
652.2133, 108.4648
652.6954, 104.2275
653.1776, 105.3379
653.6597, 106.1162
654.1418, 103.0459
654.6239, 97.91699
655.1060, 92.85254
655.5881, 85.04004
656.0703, 81.45215
656.5524, 88.25488
657.0345, 98.50781
657.5166, 99.10352
657.9987, 85.67090
658.4808, 73.65039
658.9630, 66.53125
659.4451, 63.36230
659.9272, 61.55664
660.4093, 61.13770
660.8914, 60.27148
661.3735, 57.37109
661.8557, 53.66211
662.3378, 51.55078
662.8199, 50.98535
663.3020, 50.99512
663.7841, 53.28223
664.2662, 54.46582
664.7484, 50.16699
665.2305, 38.35352
665.7126, 31.62305
666.1947, 36.47559
666.6768, 45.20117
667.1589, 52.54199
667.6411, 60.19922
668.1232, 62.14258
668.6053, 56.58398
669.0874, 47.44824
669.5695, 38.46680
670.0516, 29.54883
670.5338, 25.45410
671.0159, 28.57031
671.4980, 33.27832
671.9801, 29.87793
672.4622, 21.09082
672.9443, 14.25586
673.4265, 15.33887
673.9086, 16.80469
674.3907, 12.10156
674.8728, 3.598633
675.3549, 1.715820
675.8370, 1.537109
676.3192, 5.318359
676.8013, 7.160156
677.2834, 7.223633
677.7655, 5.289063
678.2476, 0.6357420
678.7297, 4.469727
679.2119, 1.660156
679.6940, 7.240234
680.1761, 10.18066
680.6582, 6.614258
681.1403, 1.779297
681.6224, 0.9062500
682.1046, 1.572266
682.5867, 0.1210940
683.0688, 4.666016
683.5509, 8.113281
684.0330, 7.783203
684.5151, 5.076172
684.9973, 1.341797
685.4794, 5.169922
685.9615, 9.284180
686.4436, 10.04102
686.9257, 7.900391
687.4078, 1.972656
687.8900, 12.30273
688.3721, 18.69238
688.8542, 12.08789
689.3363, 5.4687999E-02
689.8184, 0.8476560
690.3005, 8.262695
690.7827, 13.77051
691.2648, 7.126953
691.7469, 3.265625
692.2290, 4.451172
692.7111, 1.271484
693.1932, 5.858398
693.6754, 1.033203
694.1575, 2.113281
694.6396, 5.235352
695.1217, 21.78027
695.6038, 32.95508
696.0859, 31.84961
696.5681, 29.50977
697.0502, 29.46387
697.5323, 31.21777
698.0144, 34.34570
698.4965, 40.37891
698.9786, 45.07129
699.4608, 43.15527
699.9429, 35.93359
700.4250, 31.66309
700.9071, 31.60156
701.3892, 30.31055
701.8713, 19.54688
702.3535, 6.058594
702.8356, 0.9121090
703.3177, 2.602539
703.7998, 6.168945
704.2819, 3.116211
704.7640, 0.6660160
705.2462, 1.713867
705.7283, 18.74023
706.2104, 27.02051
706.6925, 21.51758
707.1746, 10.59473
707.6567, 7.601563
708.1389, 12.95312
708.6210, 19.91406
709.1031, 27.70410
709.5852, 35.04395
710.0673, 40.23926
710.5494, 43.23438
711.0316, 44.33008
711.5137, 42.29688
711.9958, 39.49902
712.4779, 36.08691
712.9600, 33.14160
713.4421, 33.67285
713.9243, 44.07617
714.4064, 52.29688
714.8885, 53.10840
715.3706, 47.88184
715.8527, 47.38867
716.3348, 53.03027
716.8170, 58.94238
717.2991, 61.91016
717.7812, 62.67383
718.2633, 64.57715
718.7454, 67.69629
719.2275, 70.52246
719.7097, 72.39746
720.1918, 73.52148
720.6739, 72.16309
721.1560, 68.11914
721.6381, 71.47949
722.1202, 99.89551
722.6024, 127.9082
723.0845, 135.0107
723.5666, 107.3408
724.0487, 99.86230
724.5308, 124.4219
725.0129, 153.7578
725.4951, 163.5439
725.9772, 152.6357
726.4593, 146.4365
726.9414, 147.2285
727.4235, 150.2773
727.9056, 151.3379
728.3878, 150.4023
728.8699, 146.6621
729.3520, 138.2607
729.8341, 131.8379
730.3162, 136.2324
730.7983, 143.4873
731.2805, 144.0010
731.7626, 126.4893
732.2447, 113.7998
732.7268, 109.8516
733.2089, 110.6787
733.6910, 109.7793
734.1732, 106.0635
734.6553, 106.8672
735.1374, 116.3438
735.6195, 126.8838
736.1016, 119.8086
736.5837, 99.26660
737.0659, 84.03125
737.5480, 86.00293
738.0301, 91.94922
738.5122, 90.70996
738.9943, 83.78711
739.4764, 75.20117
739.9586, 65.32715
740.4407, 55.12402
740.9228, 43.84277
741.4049, 32.17578
741.8870, 23.46875
742.3691, 17.66309
742.8513, 14.89062
743.3334, 17.47852
743.8155, 22.67773
744.2976, 15.50195
744.7797, 2.959961
745.2618, 18.26953
745.7440, 16.29785
746.2261, 9.620117
746.7082, 14.28320
747.1903, 29.73340
747.6724, 43.14648
748.1545, 50.37305
748.6367, 52.42578
749.1188, 48.22656
749.6009, 37.08789
750.0830, 30.23926
750.5651, 27.38867
751.0472, 27.88770
751.5294, 33.49512
752.0115, 43.92285
752.4936, 49.85645
752.9757, 50.88965
753.4578, 50.98242
753.9399, 56.79199
754.4221, 62.68262
754.9042, 57.00781
755.3863, 36.97363
755.8684, 23.52637
756.3505, 37.20703
756.8326, 54.86328
757.3148, 57.34668
757.7969, 34.58203
758.2790, 18.83398
758.7611, 13.12012
759.2432, 9.663086
759.7253, 0.9550780
760.2075, 13.07617
760.6896, 19.88281
761.1717, 17.93066
761.6538, 16.18359
762.1359, 24.38477
762.6180, 39.29395
763.1002, 56.18164
763.5823, 75.89453
764.0644, 93.18848
764.5465, 104.6982
765.0286, 112.3877
765.5107, 118.7783
765.9929, 121.0811
766.4750, 128.9297
766.9571, 145.7129
767.4392, 164.9082
767.9213, 176.5879
768.4034, 180.2568
768.8856, 191.0664
769.3677, 212.2451
769.8498, 237.5039
770.3319, 260.1641
770.8140, 280.6543
771.2961, 300.3848
771.7783, 320.2891
772.2604, 338.1641
772.7425, 348.1211
773.2246, 356.5215
773.7067, 373.7617
774.1888, 412.8252
774.6710, 442.7627
775.1531, 457.7139
775.6352, 465.2178
776.1173, 478.6660
776.5994, 498.1289
777.0815, 518.9961
777.5637, 540.8184
778.0458, 562.5977
778.5279, 583.3018
779.0100, 602.7402
779.4921, 620.6152
779.9742, 632.9873
780.4564, 647.6240
780.9385, 669.3691
781.4206, 695.6719
781.9027, 721.1514
782.3848, 743.5586
782.8669, 768.1631
783.3491, 798.4941
783.8312, 829.8223
784.3133, 846.6904
784.7954, 849.5430
785.2775, 859.9355
785.7596, 887.9268
786.2418, 922.7383
786.7239, 948.4209
787.2060, 968.7676
787.6881, 994.1377
788.1702, 1034.632
788.6523, 1073.914
789.1345, 1102.698
789.6166, 1124.870
790.0987, 1154.003
790.5808, 1193.688
791.0629, 1233.072
791.5450, 1271.025
792.0272, 1305.737
792.5093, 1328.097
792.9914, 1339.352
793.4735, 1349.825
793.9556, 1364.770
794.4377, 1380.408
794.9199, 1390.083
795.4020, 1396.969
795.8841, 1408.547
796.3662, 1432.706
796.8483, 1456.996
797.3304, 1477.816
797.8126, 1495.444
798.2947, 1509.966
798.7768, 1521.853
799.2589, 1528.976
799.7410, 1528.676
800.2231, 1525.194
800.7053, 1530.048
801.1874, 1542.115
801.6695, 1555.270
802.1516, 1566.385
802.6337, 1577.064
803.1158, 1587.284
803.5980, 1598.413
804.0801, 1613.514
804.5622, 1640.320
805.0443, 1661.304
805.5264, 1669.243
806.0085, 1668.933
806.4907, 1675.237
806.9728, 1689.106
807.4549, 1707.190
807.9370, 1730.489
808.4191, 1754.416
808.9012, 1766.867
809.3834, 1771.021
809.8655, 1778.791
810.3476, 1796.781
810.8297, 1820.453
811.3118, 1849.035
811.7939, 1880.878
812.2761, 1911.442
812.7582, 1939.927
813.2403, 1969.386
813.7224, 2000.163
814.2045, 2030.889
814.6866, 2060.800
815.1688, 2089.903
815.6509, 2118.194
816.1330, 2142.027
816.6151, 2167.450
817.0972, 2201.578
817.5793, 2244.619
818.0615, 2298.135
818.5436, 2374.363
819.0257, 2447.871
819.5078, 2502.227
819.9899, 2546.067
820.4720, 2602.376
820.9542, 2671.740
821.4363, 2750.428
821.9184, 2838.607
822.4005, 2934.945
822.8826, 3037.514
823.3647, 3146.972
823.8469, 3261.171
824.3290, 3383.070
824.8111, 3506.209
825.2932, 3620.935
825.7753, 3735.636
826.2574, 3862.730
826.7396, 4018.533
827.2217, 4174.969
827.7038, 4332.520
828.1859, 4486.256
828.6681, 4629.414
829.1502, 4759.297
829.6323, 4890.234
830.1144, 5027.385
830.5966, 5160.182
831.0787, 5273.822
831.5608, 5372.922
832.0429, 5472.916
832.5250, 5587.328
833.0071, 5688.093
833.4893, 5760.649
833.9714, 5811.242
834.4535, 5850.838
834.9356, 5881.479
835.4177, 5899.996
835.8998, 5902.877
836.3820, 5897.623
836.8641, 5896.991
837.3462, 5899.516
837.8283, 5894.221
838.3104, 5880.310
838.7925, 5852.527
839.2747, 5795.201
839.7568, 5724.231
840.2389, 5662.016
840.7210, 5623.262
841.2031, 5576.736
841.6852, 5511.942
842.1674, 5440.490
842.6495, 5373.527
843.1316, 5312.625
843.6137, 5249.287
844.0958, 5183.238
844.5779, 5113.221
845.0601, 5033.963
845.5422, 4949.014
846.0243, 4865.403
846.5064, 4784.685
846.9885, 4706.182
847.4706, 4630.104
847.9528, 4553.053
848.4349, 4472.025
848.9170, 4384.979
849.3991, 4298.404
849.8812, 4212.658
850.3633, 4124.833
850.8455, 4031.921
851.3276, 3934.842
851.8097, 3839.408
852.2918, 3744.667
852.7739, 3650.058
853.2560, 3555.790
853.7382, 3462.764
854.2203, 3369.303
854.7024, 3273.724
855.1845, 3178.276
855.6666, 3086.692
856.1487, 2995.946
856.6309, 2903.211
857.1130, 2809.852
857.5951, 2719.705
858.0772, 2631.900
858.5593, 2547.347
859.0414, 2465.998
859.5236, 2389.258
860.0057, 2319.585
860.4878, 2254.800
860.9699, 2189.430
861.4520, 2119.181
861.9341, 2051.692
862.4163, 1990.778
862.8984, 1934.578
863.3805, 1876.717
863.8626, 1815.970
864.3447, 1754.847
864.8268, 1693.508
865.3090, 1632.947
865.7911, 1576.793
866.2732, 1523.608
866.7553, 1471.021
867.2374, 1414.866
867.7195, 1360.709
868.2017, 1313.152
868.6838, 1270.092
869.1659, 1227.463
869.6480, 1185.709
870.1301, 1142.752
870.6122, 1099.712
871.0944, 1054.521
871.5765, 999.1104
872.0586, 935.3564
872.5407, 878.1963
873.0228, 833.5586
873.5049, 795.1543
873.9871, 758.3408
874.4692, 723.5098
874.9513, 690.7490
875.4334, 663.1514
875.9155, 633.0703
876.3976, 597.5742
876.8798, 562.3164
877.3619, 532.7793
877.8440, 508.7480
878.3261, 488.0605
878.8082, 470.9062
879.2903, 454.6602
879.7725, 436.0029
880.2546, 415.4990
880.7367, 393.8330
881.2188, 370.9590
881.7009, 349.0615
882.1830, 328.3672
882.6652, 307.7373
883.1473, 285.8779
883.6294, 261.5605
884.1115, 245.5947
884.5936, 239.5830
885.0757, 234.5439
885.5579, 223.0557
886.0400, 208.0049
886.5221, 196.6543
887.0042, 188.8574
887.4863, 176.0869
887.9684, 147.5898
888.4506, 119.1934
888.9327, 99.69531
889.4148, 88.71387
889.8969, 79.48633
890.3790, 72.37793
890.8611, 65.41602
891.3433, 56.76855
891.8254, 48.14355
892.3075, 44.90723
892.7896, 46.13086
893.2717, 47.33496
893.7538, 46.77637
894.2360, 43.80664
894.7181, 35.19727
895.2002, 23.85156
895.6823, 18.04004
896.1644, 21.82617
896.6465, 22.84375
897.1287, 17.66504
897.6108, 10.95020
898.0929, 13.51953
898.5750, 22.88867
899.0571, 26.59668
899.5392, 20.45996
900.0214, 11.74902
900.5035, 6.361328
900.9856, 1.809570
901.4677, 5.178711
901.9498, 20.61426
902.4319, 27.54395
902.9141, 21.07910
903.3962, 13.15039
903.8783, 16.83398
904.3604, 30.47070
904.8425, 36.09961
905.3246, 32.41016
905.8068, 26.28613
906.2889, 22.11035
906.7710, 19.15234
907.2531, 15.82031
907.7352, 11.78418
908.2173, 12.63184
908.6995, 23.87500
909.1816, 33.19824
909.6637, 33.16016
910.1458, 26.21094
910.6279, 32.55566
911.1100, 51.24414
911.5922, 63.29004
912.0743, 50.14355
912.5564, 31.14941
913.0385, 26.37598
913.5206, 32.17285
914.0027, 36.94238
914.4849, 38.97656
914.9670, 37.11035
915.4491, 27.92383
915.9312, 17.03906
916.4133, 19.72168
916.8954, 35.57617
917.3776, 40.09863
917.8597, 24.09375
918.3418, 5.332031
918.8239, 5.084961
919.3060, 14.02344
919.7881, 19.04297
920.2703, 15.74512
920.7524, 10.83887
921.2345, 3.694336
921.7166, 2.684570
922.1987, 4.689453
922.6808, 1.982422
923.1630, 4.178711
923.6451, 11.93945
924.1272, 20.80078
924.6093, 28.06250
925.0914, 33.60645
925.5735, 36.28223
926.0557, 36.05371
926.5378, 37.34668
927.0199, 45.95215
927.5020, 50.93262
927.9841, 46.42676
928.4662, 34.91113
928.9484, 32.88672
929.4305, 40.26367
929.9126, 46.31152
930.3947, 45.91992
930.8768, 41.83105
931.3589, 34.86133
931.8411, 26.91211
932.3232, 22.11816
932.8053, 27.21973
933.2874, 28.45801
933.7695, 21.03125
934.2516, 11.45996
934.7338, 10.53809
935.2159, 18.31348
935.6980, 22.48340
936.1801, 20.09570
936.6622, 19.34961
937.1443, 34.86426
937.6265, 53.58594
938.1086, 56.75488
938.5907, 34.98438
939.0728, 23.77734
939.5549, 34.96191
940.0370, 49.90234
940.5192, 57.64941
941.0013, 58.58496
941.4834, 63.16797
941.9655, 71.33789
942.4476, 78.76953
942.9297, 82.31934
943.4119, 83.98926
943.8940, 87.85059
944.3761, 92.16016
944.8582, 88.86035
945.3403, 66.73047
945.8224, 49.60840
946.3046, 42.07129
946.7867, 42.75781
947.2688, 51.28711
947.7509, 66.52930
948.2330, 78.62988
948.7151, 86.00879
949.1973, 86.51758
949.6794, 69.90332
950.1615, 49.29590
950.6436, 41.08301
951.1257, 56.60254
951.6078, 69.39551
952.0900, 78.33691
952.5721, 85.95508
953.0542, 95.33105
953.5363, 105.5771
954.0184, 110.2314
954.5005, 109.0986
954.9827, 108.1934
955.4648, 107.0859
955.9469, 111.3574
956.4290, 127.2891
956.9111, 154.1611
957.3932, 178.2627
957.8754, 199.3242
958.3575, 215.9268
958.8396, 224.6895
959.3217, 231.0576
959.8038, 249.8320
960.2859, 277.6367
960.7681, 302.5908
961.2502, 320.5371
961.7323, 333.2969
962.2144, 332.7031
962.6965, 332.0117
963.1786, 349.8711
963.6608, 396.2168
964.1429, 432.2812
964.6250, 452.2324
965.1071, 475.9189
965.5892, 531.3281
966.0714, 603.0645
966.5535, 658.6699
967.0356, 695.3457
967.5177, 729.6328
967.9998, 756.9121
968.4819, 796.2559
968.9641, 862.5840
969.4462, 951.7227
969.9283, 1035.348
970.4104, 1111.365
970.8925, 1199.093
971.3746, 1310.758
971.8568, 1431.776
972.3389, 1540.405
972.8210, 1643.135
973.3031, 1754.928
973.7852, 1883.612
974.2673, 2016.908
974.7495, 2159.376
975.2316, 2300.564
975.7137, 2433.338
976.1958, 2559.501
976.6779, 2666.562
977.1600, 2754.670
977.6422, 2811.255
978.1243, 2816.875
978.6064, 2793.799
979.0885, 2762.730
979.5706, 2725.918
980.0527, 2684.740
980.5349, 2637.694
981.0170, 2589.181
981.4991, 2541.160
981.9812, 2492.271
982.4633, 2438.093
982.9454, 2378.636
983.4276, 2315.320
983.9097, 2249.977
984.3918, 2177.679
984.8739, 2091.053
985.3560, 1995.754
985.8381, 1900.947
986.3203, 1812.684
986.8024, 1712.129
987.2845, 1595.484
987.7666, 1475.607
988.2487, 1365.875
988.7308, 1263.682
989.2130, 1157.098
989.6951, 1046.332
990.1772, 943.4648
990.6593, 857.3906
991.1414, 779.4980
991.6235, 704.6152
992.1057, 633.1582
992.5878, 568.0742
993.0699, 509.2422
993.5520, 458.3066
994.0341, 416.5352
994.5162, 380.1504
994.9984, 343.1426
995.4805, 308.1992
995.9626, 280.5000
996.4447, 268.4160
996.9268, 251.2715
997.4089, 221.7676
997.8911, 192.9746
998.3732, 180.8477
998.8553, 184.4805
999.3374, 165.8770
999.8195, 123.4766
1000.302, 90.20312
1000.784, 105.2051
1001.266, 128.2520
1001.748, 121.2051
1002.230, 86.32617
1002.712, 67.45117
1003.194, 74.60938
1003.676, 79.04688
1004.159, 71.29102
1004.641, 59.19727
1005.123, 60.34766
1005.605, 70.76172
1006.087, 78.16016
1006.569, 78.33398
1007.051, 77.09375
1007.533, 78.80664
1008.016, 79.43750
1008.498, 75.99805
1008.980, 68.80078
1009.462, 60.16797
1009.944, 49.86328
1010.426, 40.15039
1010.908, 31.11914
1011.390, 24.60547
1011.872, 23.59570
1012.355, 27.27539
1012.837, 32.42188
1013.319, 39.68750
1013.801, 45.69336
1014.283, 49.63477
1014.765, 51.58203
1015.247, 51.79883
1015.729, 50.40625
1016.211, 47.74609
1016.694, 43.55078
1017.176, 40.30078
1017.658, 41.54883
1018.140, 43.98047
1018.622, 45.55664
1019.104, 46.97070
1019.586, 42.62500
1020.068, 31.57031
1020.551, 18.74805
1021.033, 4.927734
1021.515, 7.519531
1021.997, 12.52148
1022.479, 11.67383
1022.961, 9.685547
1023.443, 12.90820
1023.925, 9.847656
1024.407, 7.814453
1024.890, 29.66992
1025.372, 41.87305
1025.854, 43.74805
1026.336, 51.68750
1026.818, 67.99023
1027.300, 81.37695
1027.782, 80.67383
1028.264, 73.33008
1028.746, 65.75000
1029.229, 58.50977
1029.711, 50.09766
1030.193, 37.25391
1030.675, 30.07031
1031.157, 32.75391
1031.639, 42.20703
1032.121, 55.16016
1032.603, 69.49609
1033.086, 77.68164
1033.568, 76.46875
1034.050, 71.79688
1034.532, 61.35742
1035.014, 52.59570
1035.496, 52.91992
1035.978, 64.17188
1036.460, 71.75977
1036.943, 75.30859
1037.425, 77.95312
1037.907, 82.33008
1038.389, 86.39844
1038.871, 86.41016
1039.353, 83.67188
1039.835, 83.36523
1040.317, 85.52148
1040.799, 91.39648
1041.281, 101.4277
1041.764, 114.8965
1042.246, 133.6328
1042.728, 155.0098
1043.210, 169.9668
1043.692, 177.1387
1044.174, 179.2715
1044.656, 169.4199
1045.138, 160.8457
1045.621, 164.7871
1046.103, 180.3906
1046.585, 191.8008
1047.067, 199.0957
1047.549, 199.1602
1048.031, 187.1523
1048.513, 173.4062
1048.995, 169.6992
1049.478, 173.6953
1049.960, 181.1328
1050.442, 195.1621
1050.924, 206.7422
1051.406, 217.8281
1051.888, 222.4629
1052.370, 209.2910
1052.852, 186.1035
1053.334, 183.3535
1053.817, 199.9375
1054.299, 212.2617
1054.781, 202.0410
1055.263, 190.3867
1055.745, 187.5762
1056.227, 189.9395
1056.709, 188.0547
1057.191, 181.3887
1057.673, 180.4141
1058.156, 188.8867
1058.638, 196.1211
1059.120, 186.0742
1059.602, 171.7402
1060.084, 169.0527
1060.566, 183.3574
1061.048, 188.8730
1061.530, 180.9531
1062.013, 173.8027
1062.495, 177.4141
1062.977, 183.8613
1063.459, 171.0996
1063.941, 146.6699
1064.423, 133.4531
1064.905, 152.9746
1065.387, 166.0156
1065.870, 151.9805
1066.352, 131.7070
1066.834, 124.9043
1067.316, 131.8164
1067.798, 135.2324
1068.280, 134.5879
1068.762, 130.3145
1069.244, 120.9121
1069.726, 109.6660
1070.208, 96.50195
1070.691, 84.00977
1071.173, 81.00000
1071.655, 90.90625
1072.137, 96.17578
1072.619, 93.25391
1073.101, 88.01172
1073.583, 88.47656
1074.065, 91.66602
1074.548, 92.93945
1075.030, 91.22852
1075.512, 88.62500
1075.994, 82.60352
1076.476, 79.97070
1076.958, 86.00195
1077.440, 96.51758
1077.922, 94.79492
1078.405, 82.93164
1078.887, 70.65820
1079.369, 60.75391
1079.851, 53.04492
1080.333, 47.54492
1080.815, 44.92578
1081.297, 46.03320
1081.779, 52.69922
1082.261, 54.14453
1082.744, 49.72266
1083.226, 45.01172
1083.708, 44.89258
1084.190, 45.77344
1084.672, 41.43555
1085.154, 34.64453
1085.636, 35.83594
1086.118, 54.02539
1086.601, 63.35742
1087.083, 58.51758
1087.565, 49.47070
1088.047, 46.00000
1088.529, 48.52930
1089.011, 62.29883
1089.493, 87.58984
1089.975, 103.2207
1090.458, 92.65039
1090.940, 78.84961
1091.422, 70.04688
1091.904, 64.20703
1092.386, 54.29492
1092.868, 41.19336
1093.350, 31.19141
1093.832, 26.92969
1094.314, 23.40430
1094.797, 15.64258
1095.279, 8.378906
1095.761, 7.375000
1096.243, 13.38867
1096.725, 13.16406
1097.207, 6.158203
1097.689, 0.8906250
1098.171, 2.273438
1098.653, 7.826172
1099.136, 19.95508
1099.618, 33.01562
1100.100, 35.84570
1100.582, 18.38477
1101.064, 3.556641
1101.546, 10.06250
1102.028, 16.49023
1102.510, 4.900391
1102.993, 15.86719
1103.475, 29.38477
1103.957, 34.66406
1104.439, 30.65039
1104.921, 3.937500
1105.403, 15.18555
1105.885, 17.06836
1106.367, 9.781250
1106.849, 6.894531
1107.332, 7.406250
1107.814, 7.726563
1108.296, 7.382813
1108.778, 2.812500
1109.260, 14.20508
1109.742, 30.91992
1110.224, 40.61523
1110.706, 43.08203
1111.188, 35.54492
1111.671, 17.52148
1112.153, 3.986328
1112.635, 0.3183590
1113.117, 1.044922
1113.599, 7.906250
1114.081, 16.47852
1114.563, 22.27148
1115.045, 25.03320
1115.528, 23.19531
1116.010, 15.58789
1116.492, 8.500000
1116.974, 3.609375
1117.456, 3.292969
1117.938, 19.84375
1118.420, 42.86523
1118.902, 49.85742
1119.385, 12.16016
1119.867, 6.228516
1120.349, 6.298828
1120.831, 21.82812
1121.313, 10.59766
1121.795, 17.18555
1122.277, 33.45312
1122.759, 38.04297
1123.241, 35.68945
1123.724, 24.69531
1124.206, 11.84570
1124.688, 2.908203
1125.170, 16.14648
1125.652, 22.19141
1126.134, 21.51562
1126.616, 16.73242
1127.098, 8.039063
1127.580, 0.9765630
1128.063, 11.49023
1128.545, 17.84766
1129.027, 13.26758
1129.509, 1.722656
1129.991, 2.554688
1130.473, 0.4199220
1130.955, 3.333984
1131.437, 4.910156
1131.920, 3.056641
1132.402, 10.01562
1132.884, 23.71484
1133.366, 25.33008
1133.848, 12.80078
1134.330, 10.17578
1134.812, 19.09961
1135.294, 28.10547
1135.776, 31.59961
1136.259, 32.91602
1136.741, 34.87500
1137.223, 38.17383
1137.705, 44.25586
1138.187, 53.62109
1138.669, 64.99219
1139.151, 79.07227
1139.633, 92.87695
1140.115, 105.3711
1140.598, 115.6582
1141.080, 124.4551
1141.562, 129.6641
1142.044, 125.8516
1142.526, 95.09180
1143.008, 79.79297
1143.490, 90.87500
1143.972, 108.2168
1144.455, 110.6855
1144.937, 103.1387
1145.419, 101.2559
1145.901, 105.2637
1146.383, 111.1836
1146.865, 119.9863
1147.347, 126.6289
1147.829, 129.9629
1148.312, 130.6855
1148.794, 127.6035
1149.276, 122.1621
1149.758, 124.9336
1150.240, 137.1641
1150.722, 151.1387
1151.204, 165.1992
1151.686, 175.9180
1152.168, 179.4668
1152.651, 178.7051
1153.133, 181.4258
1153.615, 187.4395
1154.097, 196.3555
1154.579, 208.4414
1155.061, 219.7480
1155.543, 227.4355
1156.025, 232.5742
1156.507, 234.6582
1156.990, 234.3047
1157.472, 237.1738
1157.954, 243.6152
1158.436, 250.0059
1158.918, 256.0410
1159.400, 259.1699
1159.882, 254.1484
1160.364, 248.8867
1160.847, 252.4922
1161.329, 267.4082
1161.811, 275.1562
1162.293, 274.5000
1162.775, 273.4531
1163.257, 277.5508
1163.739, 279.9707
1164.221, 264.0098
1164.703, 242.1816
1165.186, 237.1016
1165.668, 265.8672
1166.150, 279.9980
1166.632, 277.0742
1167.114, 268.4043
1167.596, 258.1426
1168.078, 249.3809
1168.560, 249.7441
1169.042, 255.8711
1169.525, 258.5059
1170.007, 257.0293
1170.489, 247.2012
1170.971, 224.5059
1171.453, 205.5215
1171.935, 214.6719
1172.417, 235.0645
1172.899, 227.4707
1173.382, 197.7715
1173.864, 181.4277
1174.346, 210.3848
1174.828, 223.3008
1175.310, 206.5059
1175.792, 180.8594
1176.274, 173.0449
1176.756, 177.0645
1177.239, 178.7598
1177.721, 176.6152
1178.203, 177.4062
1178.685, 187.9062
1179.167, 194.1855
1179.649, 191.0918
1180.131, 182.1133
1180.613, 174.7812
1181.095, 167.8789
1181.578, 153.7188
1182.060, 130.3477
1182.542, 119.4746
1183.024, 144.3691
1183.506, 166.0684
1183.988, 169.6543
1184.470, 162.1621
1184.952, 162.1562
1185.434, 166.5684
1185.917, 163.0156
1186.399, 147.0098
1186.881, 134.1680
1187.363, 131.2754
1187.845, 134.5488
1188.327, 143.5957
1188.809, 156.2129
1189.291, 166.0762
1189.774, 172.9141
1190.256, 175.2266
1190.738, 170.6895
1191.220, 165.6113
1191.702, 159.3398
1192.184, 157.4062
1192.666, 165.0449
1193.148, 180.0859
1193.630, 189.0449
1194.113, 192.1172
1194.595, 189.7266
1195.077, 177.0508
1195.559, 168.4453
1196.041, 179.9707
1196.523, 190.9375
1197.005, 183.2188
1197.487, 158.4004
1197.969, 140.4316
1198.452, 129.5312
1198.934, 126.3359
1199.416, 136.8652
1199.898, 147.9512
1200.380, 157.3418
1200.862, 161.0781
1201.344, 151.7129
1201.826, 129.3105
1202.309, 124.0820
1202.791, 134.7227
1203.273, 144.1562
1203.755, 139.6465
1204.237, 134.6016
1204.719, 137.7852
1205.201, 142.6543
1205.683, 140.6094
1206.166, 131.6602
1206.648, 124.5254
1207.130, 119.5508
1207.612, 117.8887
1208.094, 122.4863
1208.576, 128.0059
1209.058, 130.8555
1209.540, 133.2617
1210.022, 139.9727
1210.505, 150.7695
1210.987, 154.0352
1211.469, 149.1758
1211.951, 139.9844
1212.433, 120.3574
1212.915, 106.7988
1213.397, 115.0762
1213.879, 132.4414
1214.361, 137.7031
1214.844, 131.5996
1215.326, 123.2812
1215.808, 113.7344
1216.290, 106.6504
1216.772, 105.0078
1217.254, 106.0254
1217.736, 107.6914
1218.218, 110.8906
1218.701, 120.1230
1219.183, 134.2480
1219.665, 141.1484
1220.147, 138.4766
1220.629, 134.5898
1221.111, 135.4395
1221.593, 135.7090
1222.075, 132.3203
1222.557, 126.4785
1223.040, 120.9902
1223.522, 115.8262
1224.004, 108.2578
1224.486, 97.14258
1224.968, 92.55859
1225.450, 112.4844
1225.932, 126.2734
1226.414, 114.3438
1226.896, 87.75195
1227.379, 80.85938
1227.861, 90.34570
1228.343, 97.74023
1228.825, 99.29492
1229.307, 96.50391
1229.789, 83.20703
1230.271, 73.29297
1230.753, 74.49023
1231.236, 83.28516
1231.718, 90.33203
1232.200, 94.85156
1232.682, 91.81641
1233.164, 77.80469
1233.646, 66.99219
1234.128, 70.86523
1234.610, 74.55664
1235.093, 70.91797
1235.575, 62.40820
1236.057, 53.41016
1236.539, 46.17578
1237.021, 49.89062
1237.503, 71.44141
1237.985, 87.56445
1238.467, 87.12305
1238.949, 81.81250
1239.432, 74.32617
1239.914, 67.13867
1240.396, 69.78906
1240.878, 78.38086
1241.360, 81.29492
1241.842, 72.68555
1242.324, 66.76758
1242.806, 69.04297
1243.288, 70.78125
1243.771, 67.11133
1244.253, 60.50391
1244.735, 55.08398
1245.217, 51.56250
1245.699, 51.69141
1246.181, 56.95117
1246.663, 64.13086
1247.145, 75.89062
1247.628, 82.46094
1248.110, 74.18555
1248.592, 61.65820
1249.074, 72.83203
1249.556, 95.10547
1250.038, 102.9824
1250.520, 78.52734
1251.002, 69.93555
1251.484, 83.26758
1251.967, 99.11133
1252.449, 106.9355
1252.931, 109.5781
1253.413, 109.9551
1253.895, 109.2500
1254.377, 109.4590
1254.859, 111.1895
1255.341, 113.3594
1255.823, 116.4805
1256.306, 116.8867
1256.788, 111.1230
1257.270, 102.8926
1257.752, 93.65234
1258.234, 86.34766
1258.716, 86.99219
1259.198, 99.26953
1259.680, 107.8711
1260.163, 113.7031
1260.645, 110.0586
1261.127, 85.45703
1261.609, 59.87695
1262.091, 54.44922
1262.573, 57.78906
1263.055, 53.30078
1263.537, 38.72266
1264.020, 29.05273
1264.502, 24.10352
1264.984, 23.66406
1265.466, 28.41602
1265.948, 36.03125
1266.430, 49.25391
1266.912, 60.96875
1267.394, 61.78320
1267.876, 51.19727
1268.359, 51.21875
1268.841, 60.60547
1269.323, 68.00586
1269.805, 72.48633
1270.287, 66.88672
1270.769, 32.21875
1271.251, 0.2929690
1271.733, 2.382813
1272.215, 32.54102
1272.698, 38.03711
1273.180, 23.50000
1273.662, 9.062500
1274.144, 2.845703
1274.626, 0.2324220
1275.108, 1.986328
1275.590, 4.080078
1276.072, 1.892578
1276.555, 2.312500
1277.037, 0.1152340
1277.519, 6.964844
1278.001, 12.10547
1278.483, 12.95508
1278.965, 10.41992
1279.447, 1.357422
1279.929, 3.736328
1280.411, 10.24609
1280.894, 29.17188
1281.376, 22.46289
1281.858, 0.7558590
1282.340, 11.27539
1282.822, 0.5898440
1283.304, 2.611328
1283.786, 4.023438
1284.268, 5.693359
1284.750, 13.97070
1285.233, 38.88086
1285.715, 52.06055
1286.197, 56.29297
1286.679, 54.95117
1287.161, 44.87500
1287.643, 46.95703
1288.125, 61.60352
1288.607, 72.58789
1289.090, 63.81445
1289.572, 53.73047
1290.054, 56.58203
1290.536, 63.81641
1291.018, 64.62305
1291.500, 58.15234
1291.982, 60.90234
1292.464, 74.48828
1292.947, 80.35547
1293.429, 64.44141
1293.911, 49.46680
1294.393, 53.73828
1294.875, 56.60156
1295.357, 35.69336
1295.839, 1.195313
1296.321, 0.2851560
1296.803, 28.71094
1297.286, 47.38086
1297.768, 28.37695
1298.250, 19.02734
1298.732, 21.25977
1299.214, 31.94922
1299.696, 19.25586
1300.178, 0.3105470
1300.660, 0.0000000E+00
##END=



