##NAMES=Tundrite-(Nd)
##RRUFFID=R130565
##IDEAL CHEMISTRY=Na_2_Nd^3+^_2_Ti^4+^O_2_(SiO_4_)(CO_3_)_2_
##LOCALITY=Ilimaussaq complex, Narsaq, Kitaa, Greenland
##OWNER=RRUFF
##SOURCE=Rock Currier
##DESCRIPTION=Pale tan prismatic crystals associated with green to dark-green prismatic aegirine, white microcline, and pinkish fluorite.
##STATUS=The identification of this mineral has been confirmed only by single crystal X-ray diffraction.
##URL=rruff.info/R130565
118.9922, 0.0000000E+00
119.4743, 2.159363
119.9564, 0.1292720
120.4385, 0.9580080
120.9207, 0.1990970
121.4028, 2.305664
121.8849, 6.626892
122.3670, 15.06549
122.8491, 24.25061
123.3312, 30.24384
123.8134, 32.01910
124.2955, 32.71002
124.7776, 34.89142
125.2597, 38.32288
125.7418, 42.25562
126.2239, 46.46716
126.7061, 50.87018
127.1882, 55.07941
127.6703, 58.96375
128.1524, 62.88354
128.6345, 67.49786
129.1166, 72.73010
129.5988, 77.91333
130.0809, 82.67700
130.5630, 86.98816
131.0451, 90.65381
131.5272, 93.19391
132.0093, 95.34308
132.4915, 98.86896
132.9736, 103.8196
133.4557, 109.5723
133.9378, 115.5211
134.4199, 121.6685
134.9020, 128.2385
135.3842, 135.2634
135.8663, 142.6486
136.3484, 150.6474
136.8305, 159.2211
137.3126, 168.4547
137.7947, 178.9459
138.2769, 191.3120
138.7590, 201.8441
139.2411, 209.1846
139.7232, 213.3508
140.2053, 216.8218
140.6874, 219.4669
141.1696, 221.7073
141.6517, 224.0112
142.1338, 226.3190
142.6159, 228.9677
143.0980, 232.2821
143.5801, 236.5704
144.0623, 240.2329
144.5444, 242.6485
145.0265, 244.8584
145.5086, 248.6987
145.9907, 255.3375
146.4728, 261.9961
146.9550, 267.9509
147.4371, 273.3248
147.9192, 277.6344
148.4013, 280.1032
148.8834, 281.5855
149.3655, 284.0177
149.8477, 289.3974
150.3298, 293.9915
150.8119, 296.4645
151.2940, 296.7010
151.7761, 295.0028
152.2583, 290.3843
152.7404, 283.7159
153.2225, 277.3977
153.7046, 272.3737
154.1867, 267.2463
154.6688, 261.4328
155.1510, 255.2222
155.6331, 247.7610
156.1152, 238.8474
156.5973, 228.5816
157.0794, 217.5208
157.5615, 204.8101
158.0437, 191.8231
158.5258, 179.3756
159.0079, 167.9304
159.4900, 156.7464
159.9721, 145.5359
160.4542, 134.3676
160.9364, 123.6346
161.4185, 113.4352
161.9006, 103.7725
162.3827, 94.61896
162.8648, 86.21057
163.3469, 78.43127
163.8291, 70.37329
164.3112, 62.28052
164.7933, 54.94562
165.2754, 48.81604
165.7575, 43.54718
166.2396, 38.69562
166.7218, 34.15460
167.2039, 29.72754
167.6860, 25.75317
168.1681, 22.26019
168.6502, 19.86176
169.1323, 19.23279
169.6145, 19.85919
170.0966, 20.57538
170.5787, 21.96155
171.0608, 24.55707
171.5429, 26.14044
172.0250, 25.94391
172.5072, 25.32886
172.9893, 26.37970
173.4714, 28.79425
173.9535, 30.56372
174.4356, 30.32227
174.9177, 29.41638
175.3999, 29.36176
175.8820, 30.27637
176.3641, 31.48444
176.8462, 32.71796
177.3283, 33.80011
177.8104, 34.33154
178.2926, 34.19556
178.7747, 33.37695
179.2568, 31.58075
179.7389, 28.68726
180.2210, 25.52051
180.7031, 23.00531
181.1853, 21.02911
181.6674, 19.29382
182.1495, 17.82843
182.6316, 16.49426
183.1137, 14.88678
183.5958, 12.86414
184.0780, 11.02948
184.5601, 10.34656
185.0422, 10.68835
185.5243, 11.01984
186.0064, 10.58160
186.4885, 9.670593
186.9707, 9.372131
187.4528, 9.804138
187.9349, 10.71588
188.4170, 11.74316
188.8991, 12.89209
189.3812, 14.26471
189.8634, 15.98535
190.3455, 18.00385
190.8276, 20.08307
191.3097, 22.25226
191.7918, 24.39404
192.2739, 26.22949
192.7561, 27.75366
193.2382, 29.35938
193.7203, 31.56879
194.2024, 34.27203
194.6845, 36.07013
195.1666, 36.74475
195.6488, 36.63757
196.1309, 36.29602
196.6130, 35.68408
197.0951, 35.07977
197.5772, 34.89746
198.0593, 35.15637
198.5415, 34.40747
199.0236, 32.43420
199.5057, 29.55957
199.9878, 26.43524
200.4699, 23.00580
200.9520, 19.59186
201.4342, 16.20483
201.9163, 12.74573
202.3984, 10.36389
202.8805, 9.398682
203.3626, 9.314941
203.8447, 8.734985
204.3269, 7.503418
204.8090, 6.322449
205.2911, 5.831421
205.7732, 6.260437
206.2553, 5.638611
206.7374, 3.345825
207.2196, 0.2573850
207.7017, 1.035706
208.1838, 1.4038000E-02
208.6659, 1.355896
209.1480, 1.686829
209.6301, 0.6300050
210.1123, 0.4075930
210.5944, 1.519470
211.0765, 3.349976
211.5586, 4.065247
212.0407, 3.341492
212.5228, 2.233215
213.0050, 1.255615
213.4871, 0.3737180
213.9692, 0.1613770
214.4513, 2.5269000E-02
214.9334, 0.3464360
215.4155, 0.4883420
215.8977, 3.050476
216.3798, 5.828003
216.8619, 7.976318
217.3440, 9.270874
217.8261, 10.68427
218.3082, 12.41187
218.7904, 14.23987
219.2725, 15.57660
219.7546, 16.64178
220.2367, 16.80347
220.7188, 15.25781
221.2009, 10.38422
221.6831, 8.351257
222.1652, 10.61108
222.6473, 15.45062
223.1294, 17.79010
223.6115, 16.92999
224.0936, 14.74707
224.5758, 11.93646
225.0579, 8.070129
225.5400, 4.593262
226.0221, 1.333252
226.5042, 1.483398
226.9863, 2.902954
227.4685, 1.751282
227.9506, 1.053650
228.4327, 2.412415
228.9148, 7.343567
229.3969, 10.71143
229.8790, 11.60297
230.3612, 11.16956
230.8433, 12.40802
231.3254, 16.18939
231.8075, 20.33112
232.2896, 23.82092
232.7717, 26.03595
233.2539, 29.15088
233.7360, 33.57068
234.2181, 38.67682
234.7002, 43.05054
235.1823, 46.17456
235.6644, 49.27954
236.1466, 52.95337
236.6287, 57.68359
237.1108, 61.56104
237.5929, 64.03839
238.0750, 65.83466
238.5571, 68.43988
239.0393, 72.27863
239.5214, 76.27136
240.0035, 80.11987
240.4856, 84.06854
240.9677, 87.21216
241.4498, 89.06403
241.9320, 90.38318
242.4141, 92.61151
242.8962, 96.31671
243.3783, 100.0439
243.8604, 103.3055
244.3425, 105.9810
244.8247, 108.6461
245.3068, 111.1083
245.7889, 113.6862
246.2710, 116.9898
246.7531, 121.4264
247.2352, 125.8702
247.7174, 129.8535
248.1995, 133.0696
248.6816, 137.1425
249.1637, 142.2115
249.6458, 148.0403
250.1279, 154.2982
250.6101, 161.3210
251.0922, 168.2231
251.5743, 174.6483
252.0564, 180.5486
252.5385, 186.5396
253.0206, 192.5524
253.5028, 198.7725
253.9849, 205.3179
254.4670, 212.5307
254.9491, 219.5249
255.4312, 226.0964
255.9133, 232.1716
256.3955, 238.1130
256.8776, 243.7205
257.3597, 249.4473
257.8418, 255.8979
258.3239, 263.6417
258.8061, 270.8687
259.2882, 277.2086
259.7703, 282.6928
260.2524, 288.0091
260.7345, 293.4095
261.2166, 298.3560
261.6988, 302.3365
262.1809, 304.9077
262.6630, 307.6295
263.1451, 311.0883
263.6272, 315.0839
264.1093, 317.2504
264.5915, 316.9532
265.0736, 315.9058
265.5557, 315.9023
266.0378, 318.0472
266.5199, 317.9563
267.0020, 314.6391
267.4842, 308.4993
267.9663, 301.8197
268.4484, 294.4744
268.9305, 287.1002
269.4126, 280.2728
269.8947, 274.0319
270.3769, 267.6178
270.8590, 260.8157
271.3411, 253.7526
271.8232, 247.2661
272.3053, 241.6560
272.7874, 235.9092
273.2696, 228.9391
273.7517, 220.2766
274.2338, 212.7654
274.7159, 206.7903
275.1980, 201.9164
275.6801, 197.0433
276.1623, 192.0062
276.6444, 187.6254
277.1265, 184.4181
277.6086, 182.4364
278.0907, 181.1760
278.5728, 180.8886
279.0550, 181.3769
279.5371, 181.5529
280.0192, 181.0104
280.5013, 180.8420
280.9834, 182.0480
281.4655, 184.7786
281.9477, 187.1851
282.4298, 189.1552
282.9119, 191.1804
283.3940, 193.7315
283.8761, 196.7842
284.3582, 200.3162
284.8404, 204.4072
285.3225, 208.8252
285.8046, 212.4921
286.2867, 215.2855
286.7688, 218.1523
287.2509, 222.2357
287.7331, 227.4392
288.2152, 232.5002
288.6973, 236.5969
289.1794, 240.4196
289.6615, 246.5251
290.1436, 255.1479
290.6258, 264.0148
291.1079, 270.7394
291.5900, 275.7898
292.0721, 281.7461
292.5542, 289.5287
293.0363, 298.2831
293.5185, 306.1011
294.0006, 313.0702
294.4827, 320.0125
294.9648, 327.7308
295.4469, 336.1003
295.9290, 344.7280
296.4112, 353.9508
296.8933, 362.8387
297.3754, 369.7239
297.8575, 374.7531
298.3396, 379.0586
298.8217, 383.7513
299.3039, 388.1422
299.7860, 390.7075
300.2681, 391.1469
300.7502, 390.1165
301.2323, 388.5404
301.7144, 386.1667
302.1966, 382.2742
302.6787, 376.2941
303.1608, 368.6662
303.6429, 359.6611
304.1250, 349.2689
304.6071, 338.0287
305.0893, 326.8501
305.5714, 315.2280
306.0535, 302.5852
306.5356, 287.5665
307.0177, 271.8535
307.4998, 257.2770
307.9820, 243.7303
308.4641, 230.5950
308.9462, 216.8680
309.4283, 203.3615
309.9104, 191.3502
310.3925, 182.4492
310.8747, 174.5389
311.3568, 166.2383
311.8389, 157.6179
312.3210, 149.6283
312.8031, 142.7509
313.2852, 136.7162
313.7674, 131.2271
314.2495, 126.4392
314.7316, 122.0195
315.2137, 117.7417
315.6958, 113.7175
316.1779, 110.3377
316.6601, 107.9142
317.1422, 106.0222
317.6243, 104.5181
318.1064, 103.4445
318.5885, 102.5865
319.0706, 101.5997
319.5528, 100.7879
320.0349, 100.7448
320.5170, 102.5579
320.9991, 104.4137
321.4812, 105.1837
321.9633, 104.1025
322.4455, 104.4637
322.9276, 108.1597
323.4097, 113.2528
323.8918, 117.3635
324.3739, 119.1252
324.8560, 120.8652
325.3382, 122.9867
325.8203, 125.4827
326.3024, 128.7993
326.7845, 133.6967
327.2666, 139.0596
327.7487, 144.0187
328.2309, 147.8684
328.7130, 152.0829
329.1951, 157.1287
329.6772, 162.8626
330.1593, 167.8174
330.6414, 171.2006
331.1236, 174.4902
331.6057, 178.5216
332.0878, 183.7214
332.5699, 188.8925
333.0520, 193.8895
333.5341, 198.8069
334.0163, 204.0185
334.4984, 210.1544
334.9805, 215.4279
335.4626, 218.8680
335.9447, 219.7843
336.4268, 221.7055
336.9090, 225.2167
337.3911, 229.1699
337.8732, 231.6877
338.3553, 232.5493
338.8374, 232.8031
339.3195, 232.8646
339.8017, 232.7159
340.2838, 231.6323
340.7659, 229.6663
341.2480, 226.6380
341.7301, 222.1876
342.2122, 216.2837
342.6944, 209.6024
343.1765, 202.1425
343.6586, 194.0613
344.1407, 186.2362
344.6228, 178.7444
345.1049, 170.9180
345.5871, 161.9849
346.0692, 152.0742
346.5513, 143.0730
347.0334, 135.3934
347.5155, 128.2525
347.9977, 120.3945
348.4798, 111.8684
348.9619, 103.6823
349.4440, 96.63684
349.9261, 90.31085
350.4082, 83.56671
350.8904, 76.21704
351.3725, 69.27740
351.8546, 63.85071
352.3367, 59.64294
352.8188, 55.80640
353.3009, 52.60120
353.7831, 49.24310
354.2652, 44.43542
354.7473, 38.25256
355.2294, 32.29700
355.7115, 27.74170
356.1936, 24.11041
356.6758, 20.80402
357.1579, 17.61926
357.6400, 14.68774
358.1221, 12.30670
358.6042, 10.32654
359.0863, 8.112427
359.5685, 5.027466
360.0506, 1.796692
360.5327, 1.134521
361.0148, 3.839600
361.4969, 5.827271
361.9790, 6.308350
362.4612, 6.015564
362.9433, 6.201477
363.4254, 7.772034
363.9075, 9.438904
364.3896, 10.80316
364.8717, 11.86639
365.3539, 12.40118
365.8360, 11.97925
366.3181, 11.19843
366.8002, 10.60364
367.2823, 10.03967
367.7644, 9.910889
368.2466, 10.77747
368.7287, 12.46948
369.2108, 13.00665
369.6929, 11.63452
370.1750, 9.767822
370.6571, 8.107361
371.1393, 6.640564
371.6214, 5.372070
372.1035, 4.377625
372.5856, 3.536072
373.0677, 2.649414
373.5498, 1.903992
374.0320, 0.7286990
374.5141, 1.133606
374.9962, 3.737366
375.4783, 6.550781
375.9604, 9.683228
376.4425, 12.79968
376.9247, 15.30206
377.4068, 16.97443
377.8889, 19.27509
378.3710, 22.72284
378.8531, 27.01215
379.3352, 30.91437
379.8174, 34.33710
380.2995, 37.77649
380.7816, 41.51733
381.2637, 45.58557
381.7458, 49.95190
382.2279, 54.75189
382.7101, 59.68518
383.1922, 64.31781
383.6743, 68.73285
384.1564, 73.19653
384.6385, 78.16437
385.1206, 83.26556
385.6028, 87.65063
386.0849, 91.22925
386.5670, 94.73853
387.0491, 99.32587
387.5312, 104.3403
388.0133, 108.5105
388.4955, 110.8339
388.9776, 112.5643
389.4597, 115.1033
389.9418, 118.2189
390.4239, 120.5271
390.9060, 120.6942
391.3882, 119.9363
391.8703, 119.2753
392.3524, 118.7402
392.8345, 118.7051
393.3166, 119.6490
393.7987, 121.2084
394.2809, 122.6398
394.7630, 123.4757
395.2451, 124.3248
395.7272, 125.4449
396.2093, 126.8677
396.6914, 128.4512
397.1736, 130.5145
397.6557, 132.5521
398.1378, 134.1031
398.6199, 134.0972
399.1020, 134.7313
399.5841, 136.6783
400.0663, 139.6710
400.5484, 141.9193
401.0305, 142.7937
401.5126, 143.6064
401.9947, 145.0157
402.4768, 147.2807
402.9590, 149.6179
403.4411, 152.4501
403.9232, 155.0686
404.4053, 155.8270
404.8874, 153.7982
405.3695, 152.8142
405.8517, 154.4979
406.3338, 158.6168
406.8159, 161.6194
407.2980, 163.2324
407.7801, 164.7119
408.2622, 167.3152
408.7444, 170.9996
409.2265, 174.6659
409.7086, 178.1316
410.1907, 181.4354
410.6728, 184.6941
411.1549, 187.9036
411.6371, 190.9734
412.1192, 193.3176
412.6013, 195.5200
413.0834, 199.0978
413.5655, 204.2893
414.0476, 209.7141
414.5298, 214.0378
415.0119, 217.6270
415.4940, 221.3271
415.9761, 225.4680
416.4582, 229.8322
416.9403, 234.3867
417.4225, 239.0693
417.9046, 243.3861
418.3867, 246.8831
418.8688, 249.7550
419.3509, 252.1401
419.8330, 254.0341
420.3152, 255.8993
420.7973, 258.1486
421.2794, 260.3630
421.7615, 261.9315
422.2436, 262.7320
422.7257, 262.9036
423.2079, 262.4709
423.6900, 261.4612
424.1721, 260.2275
424.6542, 258.7635
425.1363, 257.0790
425.6184, 255.1294
426.1006, 252.8359
426.5827, 250.1790
427.0648, 246.9987
427.5469, 243.6313
428.0290, 241.1429
428.5111, 240.3434
428.9933, 239.0497
429.4754, 236.1873
429.9575, 231.6937
430.4396, 225.8411
430.9217, 218.1009
431.4038, 210.1274
431.8860, 204.3712
432.3681, 200.8751
432.8502, 197.3568
433.3323, 193.2561
433.8144, 188.6769
434.2965, 183.8115
434.7787, 178.6916
435.2608, 173.6132
435.7429, 169.0751
436.2250, 164.6911
436.7071, 159.3814
437.1892, 152.8234
437.6714, 146.1066
438.1535, 140.5312
438.6356, 135.8051
439.1177, 131.2894
439.5998, 127.1740
440.0819, 122.7991
440.5641, 117.0845
441.0462, 110.2134
441.5283, 104.1540
442.0104, 100.6978
442.4925, 98.15405
442.9746, 95.17474
443.4568, 91.27032
443.9389, 87.21429
444.4210, 82.65253
444.9031, 78.15277
445.3852, 74.78839
445.8673, 73.78723
446.3495, 73.03424
446.8316, 71.92072
447.3137, 70.38184
447.7958, 68.84015
448.2779, 67.02081
448.7600, 65.46600
449.2422, 64.66052
449.7243, 65.15619
450.2064, 65.23901
450.6885, 64.65497
451.1706, 63.62775
451.6527, 62.92499
452.1349, 62.79901
452.6170, 62.04877
453.0991, 59.72937
453.5812, 55.90875
454.0633, 53.78455
454.5454, 53.67438
455.0276, 53.56439
455.5097, 50.96033
455.9918, 46.25891
456.4739, 41.91046
456.9560, 38.35138
457.4381, 35.54138
457.9203, 33.65973
458.4024, 32.56140
458.8845, 31.51904
459.3666, 29.89862
459.8488, 28.19781
460.3309, 26.98792
460.8130, 26.31744
461.2951, 26.18964
461.7772, 27.03455
462.2593, 28.29193
462.7415, 29.29059
463.2236, 29.24139
463.7057, 29.48083
464.1878, 30.49335
464.6699, 32.20673
465.1520, 34.40161
465.6342, 37.12061
466.1163, 40.22083
466.5984, 43.68884
467.0805, 47.57159
467.5626, 51.56915
468.0447, 55.59375
468.5269, 59.78650
469.0090, 64.33978
469.4911, 69.32214
469.9732, 74.55481
470.4553, 80.14929
470.9374, 85.87726
471.4196, 91.16431
471.9017, 96.03210
472.3838, 100.3398
472.8659, 104.1834
473.3480, 107.5836
473.8301, 109.6680
474.3123, 110.4217
474.7944, 109.9017
475.2765, 108.4512
475.7586, 105.8961
476.2407, 101.1971
476.7228, 93.40240
477.2050, 83.99677
477.6871, 74.98834
478.1692, 66.36322
478.6513, 58.23431
479.1334, 50.66656
479.6155, 43.64941
480.0977, 37.08771
480.5798, 30.92834
481.0619, 25.59235
481.5440, 21.31427
482.0261, 18.07794
482.5082, 15.82617
482.9904, 15.99506
483.4725, 15.63397
483.9546, 13.64368
484.4367, 10.29694
484.9188, 6.899414
485.4009, 2.664185
485.8831, 0.7429810
486.3652, 2.522705
486.8473, 2.027405
487.3294, 2.257507
487.8115, 3.553833
488.2936, 5.283081
488.7758, 6.943176
489.2579, 8.766479
489.7400, 9.788818
490.2221, 9.739380
490.7042, 8.870300
491.1863, 7.769958
491.6685, 6.384827
492.1506, 5.235352
492.6327, 4.940735
493.1148, 5.192932
493.5969, 4.550537
494.0790, 2.936829
494.5612, 0.8452760
495.0433, 1.230835
495.5254, 3.440491
496.0075, 6.158936
496.4896, 9.523254
496.9717, 13.37201
497.4539, 17.62219
497.9360, 22.21252
498.4181, 26.81519
498.9002, 31.07690
499.3823, 35.50995
499.8644, 40.44757
500.3466, 45.96820
500.8287, 51.66901
501.3108, 57.20441
501.7929, 62.98505
502.2750, 69.29559
502.7571, 76.26721
503.2393, 83.71887
503.7214, 91.49023
504.2035, 99.70343
504.6856, 108.8666
505.1677, 119.5334
505.6498, 130.0378
506.1320, 139.7313
506.6141, 148.7573
507.0962, 158.7817
507.5783, 170.0115
508.0604, 181.5892
508.5425, 193.2874
509.0247, 204.9986
509.5068, 215.3338
509.9889, 224.2793
510.4710, 231.4171
510.9531, 236.3922
511.4352, 239.1190
511.9174, 239.2770
512.3995, 237.2391
512.8816, 232.2084
513.3637, 222.5637
513.8458, 208.7075
514.3279, 193.1038
514.8101, 176.0671
515.2922, 158.5635
515.7743, 141.0540
516.2564, 123.1528
516.7385, 106.8242
517.2206, 93.42773
517.7028, 81.82202
518.1849, 70.79596
518.6670, 59.71490
519.1491, 49.83527
519.6312, 41.29614
520.1133, 34.04474
520.5955, 27.68237
521.0776, 22.52783
521.5597, 17.98120
522.0418, 13.73334
522.5239, 9.711853
523.0060, 6.602173
523.4882, 4.459961
523.9703, 3.106201
524.4524, 2.577637
524.9345, 2.792114
525.4166, 2.788208
525.8987, 2.347412
526.3809, 1.734619
526.8630, 1.093689
527.3451, 0.5448610
527.8272, 0.5960690
528.3093, 1.739685
528.7914, 3.428650
529.2736, 5.017029
529.7557, 6.544250
530.2378, 8.189270
530.7199, 10.54736
531.2020, 13.03046
531.6841, 14.72485
532.1663, 14.91693
532.6484, 15.36542
533.1305, 16.53705
533.6126, 18.17139
534.0947, 19.94116
534.5768, 22.41504
535.0590, 24.43408
535.5411, 25.71887
536.0232, 26.30511
536.5053, 26.48419
536.9874, 26.26062
537.4695, 25.70911
537.9517, 24.81305
538.4338, 23.54779
538.9159, 22.31079
539.3980, 21.06012
539.8801, 20.00879
540.3622, 19.70056
540.8444, 19.90430
541.3265, 19.42047
541.8086, 17.71179
542.2907, 15.73480
542.7728, 14.45453
543.2549, 13.86914
543.7371, 13.94098
544.2192, 15.24506
544.7013, 16.89160
545.1834, 17.99701
545.6655, 18.52460
546.1476, 19.11584
546.6298, 19.93311
547.1119, 21.00006
547.5940, 22.45813
548.0761, 24.78729
548.5582, 26.82269
549.0403, 27.99414
549.5225, 29.13074
550.0046, 31.19012
550.4867, 34.48944
550.9688, 37.86975
551.4509, 41.18335
551.9330, 44.57269
552.4152, 48.43719
552.8973, 52.89185
553.3794, 56.94263
553.8615, 59.87006
554.3436, 61.87842
554.8257, 64.12683
555.3079, 66.59882
555.7900, 69.19525
556.2721, 72.00336
556.7542, 74.80920
557.2363, 77.28973
557.7184, 79.53156
558.2006, 81.00684
558.6827, 80.98340
559.1648, 79.97040
559.6469, 78.82373
560.1290, 78.62469
560.6111, 77.61505
561.0933, 74.76404
561.5754, 70.32190
562.0575, 66.03583
562.5396, 62.35968
563.0217, 58.67963
563.5038, 54.73718
563.9860, 50.47223
564.4681, 46.06189
564.9502, 41.28589
565.4323, 36.70740
565.9144, 33.14984
566.3965, 30.72229
566.8787, 27.64740
567.3608, 23.41882
567.8429, 19.00641
568.3250, 16.43683
568.8071, 15.41162
569.2892, 14.44727
569.7714, 12.80347
570.2535, 10.92365
570.7356, 9.526367
571.2177, 8.500793
571.6998, 7.331360
572.1819, 5.274536
572.6641, 3.206726
573.1462, 1.838501
573.6283, 1.331299
574.1104, 1.028503
574.5925, 0.9458010
575.0746, 0.8489380
575.5568, 0.5110470
576.0389, 0.7104490
576.5210, 1.233765
577.0031, 0.5806880
577.4852, 0.6054690
577.9673, 0.9750370
578.4495, 0.3008420
578.9316, 0.3389280
579.4137, 0.5692750
579.8958, 0.5163570
580.3779, 0.8040770
580.8600, 1.439758
581.3422, 1.950623
581.8243, 1.807617
582.3064, 1.302246
582.7885, 1.126221
583.2706, 1.348816
583.7527, 1.754761
584.2349, 2.348450
584.7170, 2.972595
585.1991, 3.476318
585.6812, 4.103943
586.1633, 3.997253
586.6454, 1.492676
587.1276, 1.767273
587.6097, 2.794617
588.0918, 2.846008
588.5739, 6.403503
589.0560, 4.960754
589.5381, 0.5769650
590.0203, 3.563904
590.5024, 3.276123
590.9845, 1.875427
591.4666, 4.9439999E-03
591.9487, 2.388184
592.4308, 3.312073
592.9130, 2.599182
593.3951, 1.297180
593.8772, 0.5812380
594.3593, 0.1391600
594.8414, 1.197510
595.3235, 3.855713
595.8057, 6.652771
596.2878, 9.065613
596.7699, 10.67041
597.2520, 10.65582
597.7341, 6.899109
598.2162, 3.194031
598.6984, 1.217346
599.1805, 0.8145750
599.6626, 1.209229
600.1447, 3.070740
600.6268, 4.897888
601.1089, 5.984985
601.5911, 6.225342
602.0732, 7.170105
602.5553, 9.290039
603.0374, 11.35345
603.5195, 12.29535
604.0016, 11.98895
604.4838, 12.30841
604.9659, 13.48962
605.4480, 14.85797
605.9301, 15.48334
606.4122, 15.52985
606.8943, 15.66571
607.3765, 16.06952
607.8586, 16.64319
608.3407, 17.24329
608.8228, 17.92230
609.3049, 18.79108
609.7870, 20.37329
610.2692, 21.74335
610.7513, 22.09552
611.2334, 21.54816
611.7155, 21.61115
612.1976, 23.43872
612.6797, 25.18878
613.1619, 25.98468
613.6440, 25.59503
614.1261, 25.40442
614.6082, 25.62250
615.0903, 25.71448
615.5724, 24.80701
616.0546, 22.81708
616.5367, 22.52844
617.0188, 24.77039
617.5009, 27.46252
617.9830, 27.27875
618.4651, 24.91309
618.9473, 22.74213
619.4294, 21.64136
619.9115, 21.07086
620.3936, 20.75446
620.8757, 20.56525
621.3578, 20.12683
621.8400, 19.01178
622.3221, 17.83148
622.8042, 17.03461
623.2863, 16.64557
623.7684, 15.77936
624.2505, 13.69055
624.7327, 11.75500
625.2148, 10.79565
625.6969, 11.24060
626.1790, 10.88989
626.6611, 9.592651
627.1432, 7.836304
627.6254, 5.888184
628.1075, 3.797058
628.5896, 2.440186
629.0717, 2.126892
629.5538, 2.148376
630.0359, 1.457397
630.5181, 0.3438720
631.0002, 0.4708250
631.4823, 0.5183720
631.9644, 0.3561400
632.4465, 0.1932370
632.9286, 0.1134030
633.4108, 0.3809810
633.8929, 1.872620
634.3750, 3.054504
634.8571, 3.035522
635.3392, 1.702087
635.8214, 0.9101560
636.3035, 1.087769
636.7856, 1.277649
637.2677, 0.8279420
637.7498, 0.4077760
638.2319, 1.162048
638.7141, 1.229614
639.1962, 1.569031
639.6783, 3.610413
640.1604, 6.916138
640.6425, 9.591309
641.1246, 11.18146
641.6068, 12.43378
642.0889, 13.73944
642.5710, 15.31342
643.0531, 17.50281
643.5352, 21.63336
644.0173, 25.20471
644.4995, 26.53149
644.9816, 26.51843
645.4637, 27.87158
645.9458, 32.13550
646.4279, 36.15564
646.9100, 39.23639
647.3922, 41.73291
647.8743, 45.38989
648.3564, 50.67267
648.8385, 55.81665
649.3206, 59.40802
649.8027, 61.66791
650.2849, 65.28174
650.7670, 70.41687
651.2491, 75.75360
651.7312, 79.74054
652.2133, 83.09497
652.6954, 87.12286
653.1776, 92.17792
653.6597, 97.26270
654.1418, 101.8658
654.6239, 106.2134
655.1060, 110.5907
655.5881, 114.9818
656.0703, 119.5075
656.5524, 124.4368
657.0345, 129.4367
657.5166, 133.7605
657.9987, 137.0256
658.4808, 140.6324
658.9630, 145.0055
659.4451, 149.9360
659.9272, 154.8102
660.4093, 159.6292
660.8914, 164.4169
661.3735, 169.3940
661.8557, 174.2668
662.3378, 178.2782
662.8199, 181.5659
663.3020, 185.3195
663.7841, 191.1452
664.2662, 197.1827
664.7484, 201.8416
665.2305, 204.6970
665.7126, 207.5531
666.1947, 211.1534
666.6768, 214.6866
667.1589, 217.6019
667.6411, 219.7929
668.1232, 221.5226
668.6053, 222.6393
669.0874, 223.4814
669.5695, 224.5211
670.0516, 225.7501
670.5338, 226.7980
671.0159, 227.6605
671.4980, 228.1364
671.9801, 227.6818
672.4622, 226.5734
672.9443, 225.6008
673.4265, 225.4828
673.9086, 225.2390
674.3907, 224.1424
674.8728, 222.3688
675.3549, 220.4774
675.8370, 218.6709
676.3192, 216.7144
676.8013, 214.5198
677.2834, 212.1000
677.7655, 209.6844
678.2476, 207.1337
678.7297, 204.9423
679.2119, 203.8286
679.6940, 203.6540
680.1761, 201.2682
680.6582, 196.4704
681.1403, 191.6841
681.6224, 189.4970
682.1046, 188.6151
682.5867, 186.4869
683.0688, 182.6227
683.5509, 178.7995
684.0330, 176.2454
684.5151, 174.3057
684.9973, 172.2707
685.4794, 169.8429
685.9615, 167.5308
686.4436, 165.6823
686.9257, 163.8410
687.4078, 161.4056
687.8900, 158.0142
688.3721, 154.9340
688.8542, 152.3989
689.3363, 150.2539
689.8184, 148.4328
690.3005, 146.9007
690.7827, 145.0686
691.2648, 142.6970
691.7469, 139.9050
692.2290, 136.8345
692.7111, 133.5307
693.1932, 130.2210
693.6754, 127.2433
694.1575, 124.0083
694.6396, 119.8777
695.1217, 114.9836
695.6038, 110.7409
696.0859, 107.9216
696.5681, 105.2736
697.0502, 102.2852
697.5323, 98.92450
698.0144, 96.15546
698.4965, 94.15613
698.9786, 92.14032
699.4608, 89.16559
699.9429, 85.60199
700.4250, 83.31000
700.9071, 82.42767
701.3892, 81.99701
701.8713, 81.66162
702.3535, 81.06409
702.8356, 79.59607
703.3177, 76.77808
703.7998, 74.39716
704.2819, 73.68286
704.7640, 73.46027
705.2462, 72.43353
705.7283, 69.80621
706.2104, 67.64240
706.6925, 66.11914
707.1746, 65.02026
707.6567, 63.92322
708.1389, 62.79248
708.6210, 62.03973
709.1031, 61.69165
709.5852, 61.98456
710.0673, 63.68420
710.5494, 66.35687
711.0316, 68.75305
711.5137, 69.81769
711.9958, 70.87628
712.4779, 72.78888
712.9600, 75.36273
713.4421, 78.06506
713.9243, 81.03088
714.4064, 83.81000
714.8885, 86.12292
715.3706, 88.07886
715.8527, 90.55566
716.3348, 93.84918
716.8170, 96.89514
717.2991, 99.07538
717.7812, 100.4578
718.2633, 102.2111
718.7454, 104.3367
719.2275, 105.2559
719.7097, 102.5756
720.1918, 98.78235
720.6739, 97.04474
721.1560, 97.57874
721.6381, 97.80890
722.1202, 96.29266
722.6024, 94.35193
723.0845, 92.85858
723.5666, 92.06995
724.0487, 91.22754
724.5308, 90.43646
725.0129, 89.25909
725.4951, 87.19940
725.9772, 84.19391
726.4593, 81.96356
726.9414, 80.78668
727.4235, 79.76447
727.9056, 77.64746
728.3878, 74.88916
728.8699, 72.58099
729.3520, 71.12524
729.8341, 69.55975
730.3162, 66.82959
730.7983, 63.78436
731.2805, 61.44452
731.7626, 60.66254
732.2447, 59.87598
732.7268, 59.13177
733.2089, 58.12512
733.6910, 56.38446
734.1732, 53.76550
734.6553, 51.09521
735.1374, 48.46851
735.6195, 46.06024
736.1016, 44.30188
736.5837, 43.09595
737.0659, 42.05109
737.5480, 41.19861
738.0301, 40.23370
738.5122, 38.77460
738.9943, 36.98425
739.4764, 35.30573
739.9586, 33.72699
740.4407, 32.44751
740.9228, 31.57544
741.4049, 31.06110
741.8870, 30.78540
742.3691, 30.88220
742.8513, 30.90814
743.3334, 30.78186
743.8155, 30.44550
744.2976, 29.39594
744.7797, 27.68811
745.2618, 26.33221
745.7440, 26.34906
746.2261, 26.80853
746.7082, 26.63806
747.1903, 25.84833
747.6724, 24.86572
748.1545, 23.57648
748.6367, 22.40198
749.1188, 21.82440
749.6009, 22.00006
750.0830, 20.86432
750.5651, 17.66473
751.0472, 14.47754
751.5294, 12.63525
752.0115, 12.07605
752.4936, 11.46362
752.9757, 10.79602
753.4578, 10.02728
753.9399, 9.274292
754.4221, 8.356567
754.9042, 6.765198
755.3863, 4.343323
755.8684, 2.597229
756.3505, 3.055969
756.8326, 3.982178
757.3148, 3.968506
757.7969, 2.369873
758.2790, 1.156921
758.7611, 0.3289180
759.2432, 0.1319580
759.7253, 8.8500999E-02
760.2075, 0.4736330
760.6896, 0.5805050
761.1717, 8.6914003E-02
761.6538, 0.5405880
762.1359, 0.8191530
762.6180, 0.8847660
763.1002, 0.9512330
763.5823, 1.046265
764.0644, 1.206604
764.5465, 1.584167
765.0286, 1.973572
765.5107, 2.144470
765.9929, 1.692810
766.4750, 1.593750
766.9571, 2.012878
767.4392, 2.612244
767.9213, 2.944763
768.4034, 2.996765
768.8856, 3.180542
769.3677, 3.640320
769.8498, 3.986938
770.3319, 3.696167
770.8140, 2.923401
771.2961, 1.977783
771.7783, 0.8979490
772.2604, 0.2161250
772.7425, 1.920288
773.2246, 3.437012
773.7067, 3.552734
774.1888, 0.5012820
774.6710, 1.450317
775.1531, 1.560242
775.6352, 0.7142940
776.1173, 0.4510500
776.5994, 0.7811280
777.0815, 1.328247
777.5637, 2.165039
778.0458, 2.837708
778.5279, 2.409058
779.0100, 1.325989
779.4921, 0.5980830
779.9742, 0.8638310
780.4564, 1.317871
780.9385, 1.924194
781.4206, 2.437317
781.9027, 2.267456
782.3848, 0.8689580
782.8669, 0.3115840
783.3491, 1.091064
783.8312, 1.490723
784.3133, 1.407837
784.7954, 0.8624270
785.2775, 0.4953610
785.7596, 0.5038450
786.2418, 0.8431400
786.7239, 1.745789
787.2060, 2.932007
787.6881, 3.736267
788.1702, 3.783447
788.6523, 3.463867
789.1345, 2.471619
789.6166, 1.226501
790.0987, 0.9502560
790.5808, 2.211853
791.0629, 3.324768
791.5450, 3.891663
792.0272, 4.058838
792.5093, 4.024597
792.9914, 3.838989
793.4735, 4.169250
793.9556, 5.697021
794.4377, 7.450073
794.9199, 8.220581
795.4020, 8.282471
795.8841, 8.331238
796.3662, 8.571106
796.8483, 8.921448
797.3304, 9.512939
797.8126, 10.20050
798.2947, 10.47058
798.7768, 10.11804
799.2589, 9.928345
799.7410, 10.12646
800.2231, 10.63739
800.7053, 11.41217
801.1874, 12.37909
801.6695, 13.13367
802.1516, 13.02570
802.6337, 13.01819
803.1158, 14.33508
803.5980, 16.45312
804.0801, 17.98724
804.5622, 17.57330
805.0443, 17.59723
805.5264, 18.90826
806.0085, 21.05249
806.4907, 22.54034
806.9728, 23.25427
807.4549, 23.93146
807.9370, 24.88892
808.4191, 25.88617
808.9012, 26.30389
809.3834, 26.30151
809.8655, 26.44977
810.3476, 27.24164
810.8297, 28.07574
811.3118, 28.54999
811.7939, 28.77100
812.2761, 29.04492
812.7582, 29.31708
813.2403, 29.84747
813.7224, 30.99994
814.2045, 32.30499
814.6866, 32.00226
815.1688, 30.06799
815.6509, 28.74518
816.1330, 29.01489
816.6151, 30.12048
817.0972, 31.18494
817.5793, 32.21167
818.0615, 33.19958
818.5436, 33.93610
819.0257, 34.74200
819.5078, 35.82135
819.9899, 37.06360
820.4720, 38.10577
820.9542, 38.87091
821.4363, 39.58051
821.9184, 40.28137
822.4005, 40.93481
822.8826, 41.48932
823.3647, 41.97119
823.8469, 42.42969
824.3290, 42.77533
824.8111, 43.16779
825.2932, 43.63281
825.7753, 44.32422
826.2574, 45.49194
826.7396, 48.11877
827.2217, 49.98456
827.7038, 50.27557
828.1859, 49.94629
828.6681, 50.94025
829.1502, 53.50555
829.6323, 55.62146
830.1144, 56.73535
830.5966, 57.36694
831.0787, 58.04541
831.5608, 58.84387
832.0429, 59.98969
832.5250, 61.90967
833.0071, 63.63971
833.4893, 64.34521
833.9714, 64.65894
834.4535, 65.69409
834.9356, 68.23077
835.4177, 69.87628
835.8998, 69.93762
836.3820, 69.79980
836.8641, 71.95038
837.3462, 76.02179
837.8283, 78.92999
838.3104, 79.81213
838.7925, 80.07568
839.2747, 80.80658
839.7568, 81.95752
840.2389, 83.53876
840.7210, 85.95404
841.2031, 87.94788
841.6852, 88.98871
842.1674, 89.64532
842.6495, 90.34479
843.1316, 91.04047
843.6137, 92.22076
844.0958, 94.05170
844.5779, 96.03668
845.0601, 97.69922
845.5422, 99.02716
846.0243, 99.94562
846.5064, 100.3495
846.9885, 100.8848
847.4706, 101.7859
847.9528, 103.0505
848.4349, 104.7795
848.9170, 107.1740
849.3991, 109.2811
849.8812, 111.0574
850.3633, 112.6163
850.8455, 114.3371
851.3276, 116.0346
851.8097, 116.4139
852.2918, 115.4099
852.7739, 113.3659
853.2560, 110.0345
853.7382, 106.1495
854.2203, 102.3183
854.7024, 98.62134
855.1845, 94.95618
855.6666, 91.42224
856.1487, 87.84027
856.6309, 83.99774
857.1130, 79.96539
857.5951, 76.49231
858.0772, 73.57483
858.5593, 71.12463
859.0414, 69.51904
859.5236, 68.07941
860.0057, 65.40747
860.4878, 61.71954
860.9699, 58.68787
861.4520, 56.99951
861.9341, 56.17590
862.4163, 56.28351
862.8984, 57.15607
863.3805, 57.91028
863.8626, 58.61279
864.3447, 58.97211
864.8268, 58.69208
865.3090, 58.13861
865.7911, 58.32837
866.2732, 59.09265
866.7553, 59.73383
867.2374, 60.38043
867.7195, 60.31732
868.2017, 58.63574
868.6838, 55.88184
869.1659, 53.73395
869.6480, 53.10571
870.1301, 51.60291
870.6122, 48.53278
871.0944, 44.64142
871.5765, 41.50446
872.0586, 39.04169
872.5407, 36.61768
873.0228, 34.03387
873.5049, 31.49146
873.9871, 29.31451
874.4692, 27.25775
874.9513, 24.92908
875.4334, 21.77130
875.9155, 18.97009
876.3976, 16.55890
876.8798, 14.57068
877.3619, 13.25024
877.8440, 12.67560
878.3261, 11.21570
878.8082, 8.525940
879.2903, 5.702087
879.7725, 3.758362
880.2546, 2.460999
880.7367, 1.525574
881.2188, 0.9378660
881.7009, 0.4747310
882.1830, 0.1885990
882.6652, 0.1215210
883.1473, 0.7187500
883.6294, 1.797241
884.1115, 1.709290
884.5936, 0.2003170
885.0757, 1.256531
885.5579, 1.405396
886.0400, 0.7523800
886.5221, 0.2274170
887.0042, 0.1157230
887.4863, 0.3471680
887.9684, 0.5764770
888.4506, 0.6245730
888.9327, 0.2750240
889.4148, 0.4338990
889.8969, 0.8443600
890.3790, 0.7692260
890.8611, 0.9521480
891.3433, 1.761902
891.8254, 2.992188
892.3075, 4.249390
892.7896, 5.492676
893.2717, 6.540344
893.7538, 6.529053
894.2360, 7.068298
894.7181, 9.699707
895.2002, 13.55774
895.6823, 16.26569
896.1644, 16.82275
896.6465, 18.08960
897.1287, 20.80383
897.6108, 24.02466
898.0929, 25.71521
898.5750, 26.26434
899.0571, 27.49902
899.5392, 30.00421
900.0214, 33.01770
900.5035, 36.55975
900.9856, 39.99823
901.4677, 42.61481
901.9498, 43.34308
902.4319, 44.82007
902.9141, 47.26300
903.3962, 50.18549
903.8783, 53.39307
904.3604, 56.79950
904.8425, 59.59430
905.3246, 61.73859
905.8068, 63.67639
906.2889, 65.79651
906.7710, 67.89667
907.2531, 69.95654
907.7352, 71.99384
908.2173, 73.25494
908.6995, 73.30695
909.1816, 73.06628
909.6637, 72.95331
910.1458, 72.89130
910.6279, 72.43182
911.1100, 71.56964
911.5922, 70.15796
912.0743, 67.65747
912.5564, 64.91406
913.0385, 62.95764
913.5206, 61.48615
914.0027, 59.50842
914.4849, 56.07086
914.9670, 53.01569
915.4491, 50.96057
915.9312, 49.27814
916.4133, 46.44757
916.8954, 42.53644
917.3776, 39.18073
917.8597, 36.91479
918.3418, 34.81555
918.8239, 31.75372
919.3060, 28.23389
919.7881, 24.91125
920.2703, 21.63098
920.7524, 19.24176
921.2345, 18.44971
921.7166, 17.90387
922.1987, 16.40125
922.6808, 13.89001
923.1630, 11.84973
923.6451, 10.35797
924.1272, 9.086548
924.6093, 7.884888
925.0914, 6.635559
925.5735, 4.993469
926.0557, 2.969116
926.5378, 1.603882
927.0199, 2.020813
927.5020, 2.280273
927.9841, 1.448181
928.4662, 0.1279910
928.9484, 0.1855470
929.4305, 1.192566
929.9126, 2.392334
930.3947, 2.678040
930.8768, 2.476929
931.3589, 1.968750
931.8411, 1.386780
932.3232, 1.256165
932.8053, 2.160217
933.2874, 2.985107
933.7695, 3.389343
934.2516, 3.780151
934.7338, 4.796143
935.2159, 6.443665
935.6980, 8.179626
936.1801, 9.909363
936.6622, 11.76660
937.1443, 13.88806
937.6265, 16.21460
938.1086, 18.70557
938.5907, 21.48517
939.0728, 23.95416
939.5549, 25.88000
940.0370, 27.62762
940.5192, 29.23401
941.0013, 30.65918
941.4834, 32.91187
941.9655, 36.03363
942.4476, 39.08887
942.9297, 41.05963
943.4119, 42.92505
943.8940, 46.03082
944.3761, 50.05103
944.8582, 53.32593
945.3403, 54.78558
945.8224, 56.46198
946.3046, 58.95959
946.7867, 61.71313
947.2688, 63.50909
947.7509, 64.39642
948.2330, 64.59326
948.7151, 64.09888
949.1973, 63.16614
949.6794, 62.00226
950.1615, 60.49396
950.6436, 58.53510
951.1257, 55.93231
951.6078, 53.42841
952.0900, 51.01611
952.5721, 48.56866
953.0542, 46.11237
953.5363, 43.61395
954.0184, 40.40839
954.5005, 36.51245
954.9827, 33.08429
955.4648, 31.29333
955.9469, 29.97937
956.4290, 28.50952
956.9111, 26.82727
957.3932, 24.79620
957.8754, 21.88361
958.3575, 19.56055
958.8396, 18.46271
959.3217, 18.15503
959.8038, 17.83710
960.2859, 17.39252
960.7681, 16.48444
961.2502, 14.80206
961.7323, 12.98145
962.2144, 11.00928
962.6965, 9.301636
963.1786, 8.396423
963.6608, 8.484436
964.1429, 8.884460
964.6250, 9.897949
965.1071, 10.36102
965.5892, 8.516846
966.0714, 5.415527
966.5535, 3.125549
967.0356, 1.814453
967.5177, 1.052551
967.9998, 1.141663
968.4819, 1.273071
968.9641, 0.9082640
969.4462, 0.1511230
969.9283, 0.1878660
970.4104, 6.2927000E-02
970.8925, 9.9792004E-02
971.3746, 0.1807860
971.8568, 0.1298830
972.3389, 0.4357910
972.8210, 1.165100
973.3031, 1.299438
973.7852, 0.2846680
974.2673, 1.302246
974.7495, 0.9879760
975.2316, 0.2129520
975.7137, 8.9722000E-02
976.1958, 0.1049190
976.6779, 2.4536001E-02
977.1600, 0.4088130
977.6422, 0.8373410
978.1243, 0.9526980
978.6064, 0.8959350
979.0885, 0.7914430
979.5706, 0.6480100
980.0527, 0.5021970
980.5349, 0.2169800
981.0170, 0.1652830
981.4991, 0.6230470
981.9812, 1.345032
982.4633, 1.464355
982.9454, 1.043701
983.4276, 0.4175420
983.9097, 0.5609130
984.3918, 1.282104
984.8739, 1.140015
985.3560, 0.5256960
985.8381, 3.9059999E-03
986.3203, 0.7754520
986.8024, 0.4548340
987.2845, 1.440979
987.7666, 3.358215
988.2487, 3.415344
988.7308, 2.283203
989.2130, 1.722168
989.6951, 1.868164
990.1772, 1.981262
990.6593, 1.506531
991.1414, 1.033264
991.6235, 0.8991090
992.1057, 1.046570
992.5878, 1.087402
993.0699, 0.9468380
993.5520, 1.315613
994.0341, 2.825134
994.5162, 4.314697
994.9984, 3.728943
995.4805, 1.970886
995.9626, 0.7686160
996.4447, 1.144653
996.9268, 1.257568
997.4089, 0.4476320
997.8911, 0.2896120
998.3732, 0.2659300
998.8553, 2.041687
999.3374, 2.379150
999.8195, 1.159912
1000.302, 4.7974002E-02
1000.784, 0.5322270
1001.266, 1.464050
1001.748, 1.988342
1002.230, 2.061401
1002.712, 1.827576
1003.194, 0.9330440
1003.676, 0.6011350
1004.159, 1.380005
1004.641, 2.562683
1005.123, 2.694458
1005.605, 2.024292
1006.087, 1.276001
1006.569, 0.5303960
1007.051, 7.7331997E-02
1007.533, 0.5324100
1008.016, 1.004761
1008.498, 0.5924680
1008.980, 0.9826660
1009.462, 1.728394
1009.944, 1.557983
1010.426, 1.207214
1010.908, 1.328247
1011.390, 1.530090
1011.872, 1.288696
1012.355, 0.6547850
1012.837, 9.6190996E-02
1013.319, 1.536194
1013.801, 2.134094
1014.283, 1.183472
1014.765, 0.3890990
1015.247, 0.7651980
1015.729, 0.1129760
1016.211, 0.3099370
1016.694, 0.2161870
1017.176, 7.4157998E-02
1017.658, 0.3825070
1018.140, 0.7505490
1018.622, 0.8023070
1019.104, 0.4635010
1019.586, 0.1156010
1020.068, 0.3251340
1020.551, 0.4541020
1021.033, 0.1840210
1021.515, 1.135620
1021.997, 1.327209
1022.479, 0.9610600
1022.961, 0.6295170
1023.443, 0.2993160
1023.925, 0.3922730
1024.407, 1.284851
1024.890, 2.473755
1025.372, 3.359497
1025.854, 3.923767
1026.336, 4.559631
1026.818, 5.339294
1027.300, 5.768311
1027.782, 5.121277
1028.264, 4.120850
1028.746, 3.348145
1029.229, 2.868958
1029.711, 2.805115
1030.193, 3.377747
1030.675, 3.751160
1031.157, 3.528564
1031.639, 3.187317
1032.121, 3.990784
1032.603, 5.458740
1033.086, 5.957947
1033.568, 4.323242
1034.050, 3.081787
1034.532, 3.829956
1035.014, 5.140442
1035.496, 5.764160
1035.978, 5.619934
1036.460, 5.373840
1036.943, 5.012024
1037.425, 4.894348
1037.907, 5.451538
1038.389, 6.269409
1038.871, 6.872498
1039.353, 7.289734
1039.835, 7.737366
1040.317, 7.977905
1040.799, 8.950684
1041.281, 11.20331
1041.764, 13.62360
1042.246, 14.08575
1042.728, 13.21869
1043.210, 13.13770
1043.692, 14.29407
1044.174, 15.36298
1044.656, 15.37939
1045.138, 15.43207
1045.621, 16.19794
1046.103, 17.62311
1046.585, 19.02008
1047.067, 20.37506
1047.549, 21.83307
1048.031, 23.45575
1048.513, 25.19006
1048.995, 27.09119
1049.478, 28.99927
1049.960, 30.64160
1050.442, 31.39923
1050.924, 32.71454
1051.406, 34.59045
1051.888, 37.09119
1052.370, 40.41846
1052.852, 44.43927
1053.334, 48.82050
1053.817, 53.50507
1054.299, 58.16681
1054.781, 62.31940
1055.263, 66.71417
1055.745, 71.97388
1056.227, 77.73315
1056.709, 82.85229
1057.191, 87.24005
1057.673, 92.15369
1058.156, 97.85815
1058.638, 104.0665
1059.120, 110.6618
1059.602, 117.4764
1060.084, 124.3552
1060.566, 131.3022
1061.048, 138.1849
1061.530, 144.6978
1062.013, 152.0085
1062.495, 160.9959
1062.977, 170.8587
1063.459, 179.8761
1063.941, 188.2311
1064.423, 196.7410
1064.905, 207.1717
1065.387, 215.8234
1065.870, 222.0577
1066.352, 225.3820
1066.834, 224.8184
1067.316, 220.4025
1067.798, 214.4675
1068.280, 207.0692
1068.762, 198.3311
1069.244, 186.9515
1069.726, 175.3433
1070.208, 165.4476
1070.691, 157.1501
1071.173, 149.6841
1071.655, 142.2932
1072.137, 137.6545
1072.619, 136.3741
1073.101, 137.3611
1073.583, 139.4675
1074.065, 142.6685
1074.548, 147.0425
1075.030, 152.6121
1075.512, 158.9662
1075.994, 166.2270
1076.476, 173.9041
1076.958, 181.8993
1077.440, 190.0507
1077.922, 198.1204
1078.405, 205.9194
1078.887, 212.5901
1079.369, 218.7969
1079.851, 222.0837
1080.333, 222.1225
1080.815, 217.5751
1081.297, 207.4998
1081.779, 191.4636
1082.261, 171.9805
1082.744, 148.6532
1083.226, 124.7113
1083.708, 100.5225
1084.190, 78.38885
1084.672, 60.90588
1085.154, 47.55988
1085.636, 36.65039
1086.118, 28.07037
1086.601, 21.40564
1087.083, 16.90240
1087.565, 13.60498
1088.047, 10.05084
1088.529, 6.880615
1089.011, 5.738892
1089.493, 6.793213
1089.975, 7.712769
1090.458, 7.737183
1090.940, 7.146240
1091.422, 5.767334
1091.904, 4.025513
1092.386, 3.503662
1092.868, 3.965942
1093.350, 3.838806
1093.832, 2.408569
1094.314, 1.141113
1094.797, 1.169983
1095.279, 1.773132
1095.761, 2.338623
1096.243, 2.811401
1096.725, 3.092407
1097.207, 3.185242
1097.689, 3.098328
1098.171, 2.763916
1098.653, 2.462341
1099.136, 2.366760
1099.618, 2.373657
1100.100, 2.395813
1100.582, 2.330505
1101.064, 2.579163
1101.546, 3.372131
1102.028, 3.890991
1102.510, 2.844421
1102.993, 1.155701
1103.475, 1.065796
1103.957, 2.386841
1104.439, 3.423828
1104.921, 3.291077
1105.403, 2.958252
1105.885, 2.370483
1106.367, 2.069336
1106.849, 3.374268
1107.332, 5.866150
1107.814, 7.244568
1108.296, 7.101440
1108.778, 6.928528
1109.260, 7.805298
1109.742, 8.857117
1110.224, 9.474304
1110.706, 9.763977
1111.188, 10.41736
1111.671, 11.44684
1112.153, 12.34839
1112.635, 12.92267
1113.117, 13.41620
1113.599, 13.99585
1114.081, 14.69354
1114.563, 15.55536
1115.045, 16.58661
1115.528, 17.68304
1116.010, 18.80890
1116.492, 19.99915
1116.974, 21.50922
1117.456, 22.92792
1117.938, 23.32324
1118.420, 23.15814
1118.902, 23.45093
1119.385, 24.79736
1119.867, 26.26709
1120.349, 28.11420
1120.831, 29.38953
1121.313, 28.70087
1121.795, 26.88837
1122.277, 26.66089
1122.759, 27.79498
1123.241, 28.49127
1123.724, 27.64209
1124.206, 26.52466
1124.688, 25.35822
1125.170, 24.27582
1125.652, 23.57990
1126.134, 23.19556
1126.616, 22.64374
1127.098, 21.86377
1127.580, 21.00818
1128.063, 20.16437
1128.545, 19.28729
1129.027, 18.20758
1129.509, 17.09808
1129.991, 16.74762
1130.473, 17.18427
1130.955, 17.27399
1131.437, 16.61676
1131.920, 15.99878
1132.402, 16.56445
1132.884, 17.26324
1133.366, 16.82208
1133.848, 15.05365
1134.330, 14.23706
1134.812, 14.51648
1135.294, 14.96094
1135.776, 15.24500
1136.259, 15.35730
1136.741, 15.08063
1137.223, 14.68890
1137.705, 14.65118
1138.187, 15.45099
1138.669, 15.66400
1139.151, 15.14203
1139.633, 14.36963
1140.115, 13.52844
1140.598, 12.73926
1141.080, 12.32501
1141.562, 12.17657
1142.044, 11.97321
1142.526, 11.64532
1143.008, 11.21875
1143.490, 10.81708
1143.972, 10.16547
1144.455, 8.633057
1144.937, 6.667603
1145.419, 5.984802
1145.901, 6.466309
1146.383, 6.684143
1146.865, 5.833313
1147.347, 4.690735
1147.829, 3.230896
1148.312, 1.871704
1148.794, 1.303101
1149.276, 1.440979
1149.758, 1.898987
1150.240, 2.635986
1150.722, 3.106262
1151.204, 2.996216
1151.686, 2.451294
1152.168, 1.177612
1152.651, 0.3563230
1153.133, 0.6071170
1153.615, 0.3594970
1154.097, 1.066101
1154.579, 1.218872
1155.061, 0.8012080
1155.543, 1.009094
1156.025, 2.771912
1156.507, 3.097839
1156.990, 2.137207
1157.472, 1.096375
1157.954, 5.9937000E-02
1158.436, 0.7805180
1158.918, 0.7658690
1159.400, 0.5408330
1159.882, 0.6605830
1160.364, 0.8562620
1160.847, 0.7549440
1161.329, 0.2439580
1161.811, 8.2092002E-02
1162.293, 0.3464360
1162.775, 0.4667970
1163.257, 3.7048001E-02
1163.739, 0.6132200
1164.221, 0.5251460
1164.703, 4.5837000E-02
1165.186, 0.3842160
1165.668, 0.7374270
1166.150, 0.8703000
1166.632, 0.7441410
1167.114, 0.5277710
1167.596, 0.2101440
1168.078, 3.7415002E-02
1168.560, 0.1953740
1169.042, 0.7312620
1169.525, 1.097778
1170.007, 1.265808
1170.489, 1.068909
1170.971, 0.4232180
1171.453, 0.3861080
1171.935, 1.433655
1172.417, 2.304382
1172.899, 2.019714
1173.382, 0.7401120
1173.864, 0.5646970
1174.346, 2.250610
1174.828, 2.865173
1175.310, 1.928101
1175.792, 0.3898930
1176.274, 0.8590700
1176.756, 1.682312
1177.239, 1.745483
1177.721, 1.048279
1178.203, 1.8920000E-03
1178.685, 1.791382
1179.167, 3.177185
1179.649, 3.932434
1180.131, 4.086792
1180.613, 3.249146
1181.095, 1.906311
1181.578, 1.719177
1182.060, 2.998962
1182.542, 3.872559
1183.024, 3.018738
1183.506, 2.184753
1183.988, 1.932190
1184.470, 2.169434
1184.952, 2.969482
1185.434, 4.071106
1185.917, 4.440002
1186.399, 3.681274
1186.881, 3.020874
1187.363, 2.867798
1187.845, 3.208801
1188.327, 4.276489
1188.809, 5.703308
1189.291, 5.819214
1189.774, 4.960388
1190.256, 4.828674
1190.738, 6.341980
1191.220, 7.542175
1191.702, 7.340698
1192.184, 6.587830
1192.666, 5.631653
1193.148, 4.592651
1193.630, 4.340881
1194.113, 4.793152
1194.595, 5.543335
1195.077, 7.004944
1195.559, 7.638550
1196.041, 5.507874
1196.523, 3.239868
1197.005, 3.067444
1197.487, 4.833740
1197.969, 5.821167
1198.452, 6.100403
1198.934, 6.253296
1199.416, 6.605347
1199.898, 6.869507
1200.380, 6.690735
1200.862, 6.522705
1201.344, 7.002686
1201.826, 8.128784
1202.309, 7.960999
1202.791, 6.618469
1203.273, 5.614624
1203.755, 6.168640
1204.237, 6.889648
1204.719, 7.192688
1205.201, 7.188354
1205.683, 6.792053
1206.166, 6.028442
1206.648, 6.439148
1207.130, 7.990540
1207.612, 9.185242
1208.094, 8.665833
1208.576, 7.945190
1209.058, 7.747314
1209.540, 7.899902
1210.022, 8.281311
1210.505, 8.861023
1210.987, 8.987061
1211.469, 8.668335
1211.951, 8.512329
1212.433, 9.443420
1212.915, 10.12390
1213.397, 9.335022
1213.879, 7.950195
1214.361, 7.723389
1214.844, 8.620667
1215.326, 8.895752
1215.808, 8.342712
1216.290, 8.084106
1216.772, 9.415466
1217.254, 10.72986
1217.736, 11.14203
1218.218, 10.93756
1218.701, 10.55396
1219.183, 10.02252
1219.665, 9.752319
1220.147, 9.814148
1220.629, 9.919495
1221.111, 9.677246
1221.593, 9.626160
1222.075, 10.20062
1222.557, 11.14935
1223.040, 11.86346
1223.522, 12.33856
1224.004, 12.52954
1224.486, 12.42700
1224.968, 12.11981
1225.450, 11.38940
1225.932, 10.76721
1226.414, 10.45941
1226.896, 10.48682
1227.379, 11.09479
1227.861, 12.14575
1228.343, 12.87213
1228.825, 13.06464
1229.307, 13.18103
1229.789, 13.68378
1230.271, 13.84210
1230.753, 13.14783
1231.236, 12.06085
1231.718, 12.13104
1232.200, 13.01874
1232.682, 13.43433
1233.164, 12.94659
1233.646, 12.49493
1234.128, 12.67981
1234.610, 12.76160
1235.093, 12.37140
1235.575, 11.74921
1236.057, 11.53174
1236.539, 11.62799
1237.021, 11.88660
1237.503, 12.31036
1237.985, 12.77405
1238.467, 13.40582
1238.949, 13.78497
1239.432, 13.62872
1239.914, 13.13037
1240.396, 12.81824
1240.878, 12.66260
1241.360, 12.60461
1241.842, 12.60431
1242.324, 12.77374
1242.806, 13.30798
1243.288, 13.71375
1243.771, 13.62018
1244.253, 13.29266
1244.735, 13.22174
1245.217, 13.35370
1245.699, 13.55243
1246.181, 13.75702
1246.663, 14.14874
1247.145, 14.94000
1247.628, 15.46564
1248.110, 15.18365
1248.592, 14.58368
1249.074, 14.79443
1249.556, 15.45404
1250.038, 15.81982
1250.520, 15.40698
1251.002, 15.60132
1251.484, 16.80634
1251.967, 17.49286
1252.449, 16.36633
1252.931, 14.63751
1253.413, 14.14783
1253.895, 14.47992
1254.377, 14.90643
1254.859, 15.13849
1255.341, 16.08862
1255.823, 18.02362
1256.306, 19.37799
1256.788, 18.88062
1257.270, 17.72308
1257.752, 17.28247
1258.234, 17.20337
1258.716, 16.88342
1259.198, 16.12567
1259.680, 15.76349
1260.163, 15.82361
1260.645, 16.10333
1261.127, 16.81201
1261.609, 17.29688
1262.091, 16.75189
1262.573, 15.72131
1263.055, 14.94238
1263.537, 14.45508
1264.020, 14.08118
1264.502, 13.81232
1264.984, 13.53491
1265.466, 12.89746
1265.948, 12.58380
1266.430, 13.36237
1266.912, 14.48743
1267.394, 15.10907
1267.876, 15.21344
1268.359, 15.36188
1268.841, 15.53644
1269.323, 15.59387
1269.805, 15.81403
1270.287, 15.43774
1270.769, 13.12646
1271.251, 10.96063
1271.733, 10.82410
1272.215, 12.41492
1272.698, 13.36902
1273.180, 13.72321
1273.662, 13.59638
1274.144, 12.56415
1274.626, 11.76227
1275.108, 11.53192
1275.590, 11.40826
1276.072, 10.96191
1276.555, 10.34515
1277.037, 10.18420
1277.519, 10.31921
1278.001, 10.27020
1278.483, 9.525696
1278.965, 9.161255
1279.447, 9.384583
1279.929, 9.619934
1280.411, 9.394104
1280.894, 8.908203
1281.376, 8.431091
1281.858, 8.006409
1282.340, 7.712463
1282.822, 7.492981
1283.304, 7.667786
1283.786, 8.374023
1284.268, 8.816467
1284.750, 8.176331
1285.233, 7.221863
1285.715, 6.936646
1286.197, 6.947876
1286.679, 6.537537
1287.161, 5.464783
1287.643, 4.903809
1288.125, 4.863464
1288.607, 5.004089
1289.090, 5.458374
1289.572, 5.616028
1290.054, 4.687134
1290.536, 3.418091
1291.018, 2.718201
1291.500, 2.599854
1291.982, 2.808594
1292.464, 3.290009
1292.947, 3.527771
1293.429, 3.344849
1293.911, 2.752655
1294.393, 1.165649
1294.875, 0.2527160
1295.357, 0.4937740
1295.839, 0.2090760
1296.321, 0.6846620
1296.803, 0.9552000
1297.286, 1.035034
1297.768, 0.7396850
1298.250, 0.1132510
1298.732, 0.2123720
1299.214, 0.3065190
1299.696, 0.1730960
1300.178, 1.5870000E-03
1300.660, 0.0000000E+00
##END=



