##NAMES=Tundrite-(Ce)
##RRUFFID=R130564
##IDEAL CHEMISTRY=Na_2_Ce^3+^_2_Ti^4+^O_2_SiO_4_(CO_3_)_2_
##LOCALITY=Ilimaussaq complex, Narsaq, Kitaa, Greenland
##OWNER=RRUFF
##SOURCE=Rock Currier
##DESCRIPTION=Aggregates of acicular or bladed yellow crystals associated with albite and aegirine
##STATUS=The identification of this mineral has been confirmed only by single crystal X-ray diffraction.
##URL=rruff.info/R130564
151.7761, 0.0000000E+00
152.2583, 1.212952
152.7404, 1.974976
153.2225, 4.569946
153.7046, 10.49921
154.1867, 16.65704
154.6688, 21.58124
155.1510, 24.51062
155.6331, 26.77472
156.1152, 28.24811
156.5973, 29.02490
157.0794, 29.83209
157.5615, 31.15613
158.0437, 32.31903
158.5258, 33.05029
159.0079, 33.25354
159.4900, 33.25024
159.9721, 32.70447
160.4542, 31.67975
160.9364, 31.14038
161.4185, 32.09644
161.9006, 33.19373
162.3827, 33.47473
162.8648, 31.96332
163.3469, 30.92633
163.8291, 30.58459
164.3112, 30.51898
164.7933, 29.91089
165.2754, 27.81427
165.7575, 25.09222
166.2396, 22.58423
166.7218, 20.65491
167.2039, 19.10675
167.6860, 17.64496
168.1681, 16.12366
168.6502, 14.59033
169.1323, 13.26807
169.6145, 12.12433
170.0966, 11.13208
170.5787, 10.58350
171.0608, 10.02533
171.5429, 9.285828
172.0250, 8.559570
172.5072, 7.644104
172.9893, 5.974060
173.4714, 3.916565
173.9535, 2.203186
174.4356, 0.9618530
174.9177, 0.3474730
175.3999, 0.5546260
175.8820, 1.465942
176.3641, 2.568970
176.8462, 3.250122
177.3283, 3.973938
177.8104, 5.494446
178.2926, 7.390076
178.7747, 9.562073
179.2568, 12.10962
179.7389, 14.91711
180.2210, 18.15900
180.7031, 22.02698
181.1853, 25.55823
181.6674, 27.61255
182.1495, 27.99078
182.6316, 27.23846
183.1137, 26.67169
183.5958, 26.69379
184.0780, 27.25177
184.5601, 28.38025
185.0422, 29.48688
185.5243, 29.67633
186.0064, 29.60614
186.4885, 29.32098
186.9707, 28.94928
187.4528, 28.52991
187.9349, 27.91516
188.4170, 26.55762
188.8991, 24.50287
189.3812, 22.82220
189.8634, 22.58032
190.3455, 23.46033
190.8276, 23.29468
191.3097, 21.69519
191.7918, 19.51239
192.2739, 18.08710
192.7561, 17.40399
193.2382, 17.31708
193.7203, 18.20996
194.2024, 19.93835
194.6845, 20.54590
195.1666, 19.71204
195.6488, 17.97662
196.1309, 16.29443
196.6130, 14.64539
197.0951, 13.07495
197.5772, 11.46344
198.0593, 9.807190
198.5415, 8.845520
199.0236, 8.878601
199.5057, 9.336121
199.9878, 8.876465
200.4699, 7.373840
200.9520, 5.584290
201.4342, 3.971924
201.9163, 2.563232
202.3984, 0.8883670
202.8805, 1.207031
203.3626, 3.479187
203.8447, 5.320190
204.3269, 6.685913
204.8090, 7.788391
205.2911, 8.725281
205.7732, 9.502991
206.2553, 10.08313
206.7374, 10.37097
207.2196, 10.52527
207.7017, 11.00366
208.1838, 11.88770
208.6659, 12.86646
209.1480, 13.83966
209.6301, 13.24365
210.1123, 12.18512
210.5944, 10.41302
211.0765, 8.288330
211.5586, 6.915771
212.0407, 6.568970
212.5228, 6.361084
213.0050, 5.745850
213.4871, 4.542114
213.9692, 3.605042
214.4513, 2.990662
214.9334, 2.674744
215.4155, 2.615234
215.8977, 2.888550
216.3798, 3.295227
216.8619, 3.981384
217.3440, 5.553040
217.8261, 5.363220
218.3082, 2.469604
218.7904, 2.008850
219.2725, 4.514709
219.7546, 4.160095
220.2367, 3.390869
220.7188, 3.435730
221.2009, 4.518555
221.6831, 5.852783
222.1652, 7.546204
222.6473, 9.454895
223.1294, 11.07861
223.6115, 12.21112
224.0936, 13.44678
224.5758, 15.10950
225.0579, 17.34448
225.5400, 19.65320
226.0221, 21.92957
226.5042, 24.32251
226.9863, 27.17548
227.4685, 30.66724
227.9506, 34.38739
228.4327, 38.22064
228.9148, 42.49536
229.3969, 46.16180
229.8790, 48.90894
230.3612, 51.12054
230.8433, 53.71338
231.3254, 56.61353
231.8075, 60.01270
232.2896, 64.08850
232.7717, 69.25110
233.2539, 74.12390
233.7360, 78.56512
234.2181, 82.69763
234.7002, 86.82513
235.1823, 90.86346
235.6644, 94.91479
236.1466, 98.96997
236.6287, 102.8636
237.1108, 107.2190
237.5929, 112.2847
238.0750, 117.6490
238.5571, 122.4257
239.0393, 126.5150
239.5214, 130.1970
240.0035, 133.5093
240.4856, 136.3945
240.9677, 139.2109
241.4498, 141.9943
241.9320, 144.7311
242.4141, 147.4109
242.8962, 149.8749
243.3783, 152.5886
243.8604, 155.8031
244.3425, 159.7620
244.8247, 163.3613
245.3068, 166.5283
245.7889, 169.3867
246.2710, 172.2073
246.7531, 175.1240
247.2352, 177.7230
247.7174, 179.5969
248.1995, 180.2566
248.6816, 182.6585
249.1637, 187.5569
249.6458, 193.5980
250.1279, 198.8936
250.6101, 203.4492
251.0922, 207.3408
251.5743, 210.3480
252.0564, 212.3049
252.5385, 214.7958
253.0206, 217.8290
253.5028, 221.3923
253.9849, 225.4795
254.4670, 230.5549
254.9491, 235.2811
255.4312, 239.2247
255.9133, 242.2844
256.3955, 245.7946
256.8776, 250.1609
257.3597, 254.5933
257.8418, 258.1509
258.3239, 260.4077
258.8061, 262.7769
259.2882, 265.5818
259.7703, 268.8245
260.2524, 272.0322
260.7345, 275.4513
261.2166, 278.4213
261.6988, 280.4154
262.1809, 281.2249
262.6630, 281.6526
263.1451, 281.8473
263.6272, 281.8070
264.1093, 281.2388
264.5915, 280.0038
265.0736, 278.5797
265.5557, 277.5845
266.0378, 277.5511
266.5199, 275.9160
267.0020, 272.0727
267.4842, 266.4304
267.9663, 260.6486
268.4484, 254.6057
268.9305, 248.8804
269.4126, 243.9926
269.8947, 240.0590
270.3769, 235.7764
270.8590, 230.8156
271.3411, 225.5511
271.8232, 221.2177
272.3053, 217.9304
272.7874, 215.1200
273.2696, 212.4496
273.7517, 209.8910
274.2338, 207.5502
274.7159, 205.5123
275.1980, 203.5156
275.6801, 200.8724
276.1623, 197.3765
276.6444, 195.0692
277.1265, 195.2108
277.6086, 197.9919
278.0907, 200.6580
278.5728, 203.0934
279.0550, 205.5166
279.5371, 208.2488
280.0192, 211.2839
280.5013, 214.6928
280.9834, 218.2711
281.4655, 222.0411
281.9477, 227.2197
282.4298, 233.8946
282.9119, 241.5768
283.3940, 249.6966
283.8761, 258.2468
284.3582, 267.0013
284.8404, 275.8735
285.3225, 284.8477
285.8046, 294.0114
286.2867, 303.3132
286.7688, 312.5845
287.2509, 321.2200
287.7331, 329.3264
288.2152, 338.4845
288.6973, 349.7704
289.1794, 362.3795
289.6615, 373.2289
290.1436, 382.3041
290.6258, 391.0853
291.1079, 401.3713
291.5900, 412.8331
292.0721, 423.5757
292.5542, 432.7029
293.0363, 441.1121
293.5185, 450.8622
294.0006, 462.0162
294.4827, 472.6876
294.9648, 481.9312
295.4469, 489.7982
295.9290, 496.1785
296.4112, 500.8593
296.8933, 504.4845
297.3754, 508.1891
297.8575, 511.7934
298.3396, 514.3135
298.8217, 515.1370
299.3039, 514.3775
299.7860, 512.2639
300.2681, 508.8281
300.7502, 503.9749
301.2323, 497.6556
301.7144, 489.7972
302.1966, 480.5947
302.6787, 469.6049
303.1608, 457.4119
303.6429, 444.4086
304.1250, 430.7292
304.6071, 416.8898
305.0893, 403.5715
305.5714, 390.4268
306.0535, 377.2318
306.5356, 363.6948
307.0177, 349.9847
307.4998, 336.2656
307.9820, 322.4169
308.4641, 309.2784
308.9462, 297.4499
309.4283, 286.5906
309.9104, 276.3799
310.3925, 266.8860
310.8747, 258.0062
311.3568, 249.8279
311.8389, 242.3296
312.3210, 235.4857
312.8031, 228.8653
313.2852, 222.9417
313.7674, 218.1489
314.2495, 215.4861
314.7316, 213.0677
315.2137, 209.7923
315.6958, 205.9100
316.1779, 202.4189
316.6601, 200.0319
317.1422, 198.2900
317.6243, 196.8442
318.1064, 195.5282
318.5885, 194.7336
319.0706, 194.3488
319.5528, 194.5823
320.0349, 195.8435
320.5170, 199.0914
320.9991, 202.6917
321.4812, 206.0249
321.9633, 209.0668
322.4455, 211.7224
322.9276, 213.3306
323.4097, 214.7679
323.8918, 217.1112
324.3739, 221.0122
324.8560, 225.3695
325.3382, 229.8687
325.8203, 234.4800
326.3024, 239.6726
326.7845, 246.4702
327.2666, 253.3701
327.7487, 259.1912
328.2309, 262.6799
328.7130, 266.4902
329.1951, 270.9103
329.6772, 275.8976
330.1593, 281.0748
330.6414, 286.7416
331.1236, 292.2435
331.6057, 297.2375
332.0878, 301.4412
332.5699, 305.6395
333.0520, 309.9435
333.5341, 314.2014
334.0163, 317.9667
334.4984, 321.1349
334.9805, 323.9201
335.4626, 326.5533
335.9447, 329.3293
336.4268, 330.8043
336.9090, 330.8011
337.3911, 329.7109
337.8732, 328.2203
338.3553, 326.5018
338.8374, 323.8289
339.3195, 319.7476
339.8017, 314.3536
340.2838, 309.2459
340.7659, 304.7597
341.2480, 299.6953
341.7301, 292.3483
342.2122, 282.5881
342.6944, 273.0054
343.1765, 264.4091
343.6586, 256.2623
344.1407, 247.0764
344.6228, 236.8571
345.1049, 225.9624
345.5871, 214.4001
346.0692, 202.2059
346.5513, 190.8416
347.0334, 180.5188
347.5155, 170.8914
347.9977, 161.9072
348.4798, 153.4034
348.9619, 144.7411
349.4440, 135.3214
349.9261, 125.4844
350.4082, 115.9368
350.8904, 106.7051
351.3725, 97.92267
351.8546, 89.48010
352.3367, 81.51312
352.8188, 74.26813
353.3009, 68.33398
353.7831, 62.92352
354.2652, 56.89478
354.7473, 50.29529
355.2294, 44.20245
355.7115, 39.94159
356.1936, 36.49432
356.6758, 32.49005
357.1579, 26.88306
357.6400, 21.35333
358.1221, 17.16168
358.6042, 14.09674
359.0863, 11.21991
359.5685, 7.949158
360.0506, 4.773438
360.5327, 2.165466
361.0148, 0.5055540
361.4969, 1.393005
361.9790, 4.545288
362.4612, 8.175049
362.9433, 11.04144
363.4254, 12.31342
363.9075, 13.15564
364.3896, 13.99451
364.8717, 14.87714
365.3539, 15.68481
365.8360, 16.56390
366.3181, 17.28021
366.8002, 17.65912
367.2823, 17.36646
367.7644, 17.09180
368.2466, 17.06421
368.7287, 17.23566
369.2108, 17.02808
369.6929, 16.53851
370.1750, 15.58588
370.6571, 14.02881
371.1393, 11.23706
371.6214, 8.969971
372.1035, 7.772705
372.5856, 6.909119
373.0677, 4.606873
373.5498, 8.2396999E-02
374.0320, 4.419678
374.5141, 7.924805
374.9962, 10.22760
375.4783, 13.26343
375.9604, 17.04993
376.4425, 21.49237
376.9247, 26.70654
377.4068, 32.83209
377.8889, 38.58612
378.3710, 43.45197
378.8531, 47.68536
379.3352, 52.56976
379.8174, 58.15479
380.2995, 63.80164
380.7816, 68.63074
381.2637, 72.86060
381.7458, 78.17993
382.2279, 85.24768
382.7101, 92.74109
383.1922, 98.18121
383.6743, 101.9479
384.1564, 106.3431
384.6385, 113.5364
385.1206, 122.0883
385.6028, 129.1894
386.0849, 134.6840
386.5670, 139.1406
387.0491, 142.6687
387.5312, 145.5994
388.0133, 148.6348
388.4955, 152.4566
388.9776, 156.1328
389.4597, 158.9801
389.9418, 160.9665
390.4239, 161.9108
390.9060, 160.4236
391.3882, 158.5031
391.8703, 158.1680
392.3524, 160.6716
392.8345, 162.9885
393.3166, 163.4767
393.7987, 162.7518
394.2809, 162.0592
394.7630, 161.4021
395.2451, 161.2043
395.7272, 161.9059
396.2093, 163.7648
396.6914, 165.0184
397.1736, 164.6506
397.6557, 163.8328
398.1378, 163.6367
398.6199, 164.2050
399.1020, 165.3729
399.5841, 167.4446
400.0663, 170.2389
400.5484, 172.5473
401.0305, 173.9323
401.5126, 175.3066
401.9947, 177.1584
402.4768, 179.8066
402.9590, 182.1435
403.4411, 183.9734
403.9232, 185.6584
404.4053, 187.9576
404.8874, 191.2109
405.3695, 194.0666
405.8517, 195.8053
406.3338, 196.5705
406.8159, 198.7086
407.2980, 202.4484
407.7801, 206.7950
408.2622, 210.9399
408.7444, 214.8893
409.2265, 218.3704
409.7086, 221.1067
410.1907, 223.6367
410.6728, 227.3182
411.1549, 232.0404
411.6371, 236.5361
412.1192, 239.6091
412.6013, 241.9189
413.0834, 244.9908
413.5655, 249.0093
414.0476, 253.2254
414.5298, 257.1951
415.0119, 260.8033
415.4940, 263.9072
415.9761, 265.9341
416.4582, 267.8440
416.9403, 270.5066
417.4225, 273.8067
417.9046, 277.0631
418.3867, 280.0759
418.8688, 282.7199
419.3509, 284.7812
419.8330, 286.0131
420.3152, 286.9543
420.7973, 287.9217
421.2794, 288.8882
421.7615, 289.6605
422.2436, 290.7651
422.7257, 291.0953
423.2079, 289.9406
423.6900, 287.0230
424.1721, 284.5969
424.6542, 283.3364
425.1363, 282.4235
425.6184, 281.2236
426.1006, 279.7540
426.5827, 277.9663
427.0648, 275.9966
427.5469, 273.7164
428.0290, 270.6581
428.5111, 266.5073
428.9933, 262.3294
429.4754, 258.6133
429.9575, 255.3670
430.4396, 251.8167
430.9217, 248.0649
431.4038, 244.1054
431.8860, 239.5469
432.3681, 234.2747
432.8502, 229.4316
433.3323, 225.7665
433.8144, 222.4500
434.2965, 216.7036
434.7787, 208.5828
435.2608, 200.7122
435.7429, 195.4007
436.2250, 191.7438
436.7071, 187.5259
437.1892, 182.4750
437.6714, 176.9088
438.1535, 171.0611
438.6356, 165.0043
439.1177, 158.9368
439.5998, 153.1000
440.0819, 147.1817
440.5641, 140.5871
441.0462, 133.4243
441.5283, 126.8596
442.0104, 122.1893
442.4925, 118.0825
442.9746, 113.4893
443.4568, 107.8276
443.9389, 102.2380
444.4210, 96.94000
444.9031, 91.94763
445.3852, 87.25006
445.8673, 83.25452
446.3495, 79.32898
446.8316, 75.21686
447.3137, 70.81860
447.7958, 66.69104
448.2779, 63.04022
448.7600, 59.61359
449.2422, 56.24744
449.7243, 52.83282
450.2064, 49.61145
450.6885, 46.41852
451.1706, 43.44006
451.6527, 41.40479
452.1349, 40.60260
452.6170, 39.70251
453.0991, 38.05188
453.5812, 35.63220
454.0633, 33.32404
454.5454, 31.00201
455.0276, 29.06787
455.5097, 28.35565
455.9918, 28.59192
456.4739, 28.24182
456.9560, 26.72131
457.4381, 24.78870
457.9203, 23.52588
458.4024, 22.85077
458.8845, 22.38257
459.3666, 22.26752
459.8488, 22.17236
460.3309, 21.50482
460.8130, 20.13281
461.2951, 18.83099
461.7772, 18.56189
462.2593, 18.64978
462.7415, 18.31442
463.2236, 16.94571
463.7057, 15.41611
464.1878, 13.80072
464.6699, 12.29688
465.1520, 11.48572
465.6342, 12.72113
466.1163, 13.62231
466.5984, 12.97446
467.0805, 9.886505
467.5626, 7.707428
468.0447, 7.114410
468.5269, 7.102448
469.0090, 6.645996
469.4911, 5.551117
469.9732, 4.354218
470.4553, 2.943329
470.9374, 1.476440
471.4196, 0.7821960
471.9017, 1.119354
472.3838, 1.460602
472.8659, 1.166016
473.3480, 0.2256470
473.8301, 0.5250240
474.3123, 1.107269
474.7944, 1.418823
475.2765, 1.191986
475.7586, 0.5291440
476.2407, 6.1432000E-02
476.7228, 0.5014950
477.2050, 0.7102360
477.6871, 0.4548650
478.1692, 0.1844790
478.6513, 0.8214110
479.1334, 1.351257
479.6155, 1.672668
480.0977, 1.650391
480.5798, 1.245300
481.0619, 0.6369630
481.5440, 0.2415160
482.0261, 1.208191
482.5082, 2.052673
482.9904, 2.763428
483.4725, 3.292206
483.9546, 3.536133
484.4367, 3.554901
484.9188, 3.623230
485.4009, 3.769073
485.8831, 3.965881
486.3652, 4.121246
486.8473, 4.073517
487.3294, 4.612610
487.8115, 6.249664
488.2936, 7.980225
488.7758, 8.659302
489.2579, 7.865295
489.7400, 7.343140
490.2221, 7.420685
490.7042, 7.918427
491.1863, 8.363525
491.6685, 8.761414
492.1506, 9.065979
492.6327, 9.216766
493.1148, 9.248840
493.5969, 9.466125
494.0790, 9.921356
494.5612, 10.08371
495.0433, 8.977783
495.5254, 7.224579
496.0075, 6.195770
496.4896, 6.630554
496.9717, 7.389130
497.4539, 7.330933
497.9360, 6.738922
498.4181, 6.366608
498.9002, 6.973419
499.3823, 7.584381
499.8644, 7.554565
500.3466, 6.791443
500.8287, 5.899109
501.3108, 4.553986
501.7929, 3.430786
502.2750, 3.044861
502.7571, 4.879822
503.2393, 5.593231
503.7214, 4.210114
504.2035, 1.819550
504.6856, 0.7958980
505.1677, 2.042297
505.6498, 3.005341
506.1320, 2.795502
506.6141, 1.469818
507.0962, 0.6688540
507.5783, 0.5114750
508.0604, 0.5083010
508.5425, 0.3224790
509.0247, 3.9459001E-02
509.5068, 0.6105960
509.9889, 1.445496
510.4710, 2.318573
510.9531, 2.970093
511.4352, 3.402435
511.9174, 3.626282
512.3995, 3.556671
512.8816, 3.342957
513.3637, 3.092896
513.8458, 2.832092
514.3279, 2.697479
514.8101, 2.970093
515.2922, 3.290436
515.7743, 3.301300
516.2564, 2.807190
516.7385, 2.536011
517.2206, 3.120056
517.7028, 3.917450
518.1849, 4.192474
518.6670, 3.251526
519.1491, 2.449707
519.6312, 2.063171
520.1133, 1.978302
520.5955, 1.697021
521.0776, 1.030853
521.5597, 0.4661870
522.0418, 0.3027950
522.5239, 0.6140750
523.0060, 0.3730470
523.4882, 0.5522160
523.9703, 1.682251
524.4524, 2.555176
524.9345, 3.178650
525.4166, 3.678741
525.8987, 4.050354
526.3809, 4.363495
526.8630, 4.524109
527.3451, 4.655212
527.8272, 5.267792
528.3093, 7.042267
528.7914, 9.136963
529.2736, 10.57764
529.7557, 11.42438
530.2378, 12.35770
530.7199, 14.12704
531.2020, 15.89963
531.6841, 16.92798
532.1663, 16.82144
532.6484, 16.61493
533.1305, 16.47394
533.6126, 16.49084
534.0947, 16.75708
534.5768, 17.52472
535.0590, 18.20493
535.5411, 18.76993
536.0232, 19.16913
536.5053, 19.12387
536.9874, 18.47098
537.4695, 17.79657
537.9517, 17.35614
538.4338, 17.16666
538.9159, 17.52701
539.3980, 18.58304
539.8801, 19.64560
540.3622, 19.58054
540.8444, 18.72842
541.3265, 18.78561
541.8086, 20.32153
542.2907, 22.49762
542.7728, 24.11923
543.2549, 25.48068
543.7371, 27.38651
544.2192, 30.86945
544.7013, 34.57922
545.1834, 37.41159
545.6655, 39.43329
546.1476, 41.60062
546.6298, 44.09372
547.1119, 47.01920
547.5940, 50.53583
548.0761, 55.16815
548.5582, 59.38220
549.0403, 62.44342
549.5225, 65.37344
550.0046, 69.42480
550.4867, 75.27975
550.9688, 80.86389
551.4509, 85.76666
551.9330, 90.18140
552.4152, 94.69891
552.8973, 99.35031
553.3794, 103.9658
553.8615, 108.4398
554.3436, 112.8078
554.8257, 117.2850
555.3079, 121.8406
555.7900, 126.2084
556.2721, 130.3026
556.7542, 133.9758
557.2363, 136.8462
557.7184, 138.7232
558.2006, 140.0953
558.6827, 141.3795
559.1648, 142.4072
559.6469, 142.9298
560.1290, 143.0631
560.6111, 142.5319
561.0933, 141.0349
561.5754, 138.6362
562.0575, 135.9429
562.5396, 132.7969
563.0217, 129.7049
563.5038, 126.8679
563.9860, 124.3911
564.4681, 121.3599
564.9502, 117.5498
565.4323, 113.5754
565.9144, 110.1534
566.3965, 107.3250
566.8787, 104.1499
567.3608, 100.3798
567.8429, 96.43866
568.3250, 93.21393
568.8071, 90.61914
569.2892, 88.26514
569.7714, 86.02856
570.2535, 83.95688
570.7356, 82.25006
571.2177, 80.82764
571.6998, 79.32416
572.1819, 77.39102
572.6641, 75.31708
573.1462, 73.23798
573.6283, 71.07269
574.1104, 69.52484
574.5925, 69.22220
575.0746, 69.24084
575.5568, 68.77652
576.0389, 67.24463
576.5210, 66.22849
577.0031, 66.11279
577.4852, 66.33890
577.9673, 65.70837
578.4495, 63.90881
578.9316, 62.42746
579.4137, 61.69955
579.8958, 61.57233
580.3779, 61.64114
580.8600, 61.96448
581.3422, 62.21167
581.8243, 61.94556
582.3064, 61.42776
582.7885, 61.39725
583.2706, 61.93668
583.7527, 62.39398
584.2349, 62.19632
584.7170, 61.61795
585.1991, 60.98816
585.6812, 60.32489
586.1633, 59.74115
586.6454, 59.28476
587.1276, 58.91293
587.6097, 58.56473
588.0918, 58.13242
588.5739, 57.81760
589.0560, 57.72745
589.5381, 57.81723
590.0203, 57.72360
590.5024, 57.29221
590.9845, 57.00366
591.4666, 57.31583
591.9487, 58.25409
592.4308, 58.04221
592.9130, 56.48325
593.3951, 54.83249
593.8772, 54.46576
594.3593, 55.04584
594.8414, 55.47949
595.3235, 55.55563
595.8057, 55.50052
596.2878, 55.64581
596.7699, 55.80814
597.2520, 55.64532
597.7341, 54.56436
598.2162, 53.55881
598.6984, 53.04370
599.1805, 52.99347
599.6626, 53.26343
600.1447, 54.42139
600.6268, 55.30948
601.1089, 55.41751
601.5911, 54.67511
602.0732, 54.04141
602.5553, 53.54205
603.0374, 53.12250
603.5195, 52.78683
604.0016, 52.55341
604.4838, 52.16577
604.9659, 51.55566
605.4480, 50.99640
605.9301, 51.02924
606.4122, 51.46500
606.8943, 51.47839
607.3765, 50.63211
607.8586, 49.64444
608.3407, 49.57300
608.8228, 50.00378
609.3049, 49.92581
609.7870, 48.41568
610.2692, 46.67313
610.7513, 45.27499
611.2334, 44.22812
611.7155, 43.34244
612.1976, 42.84045
612.6797, 42.24921
613.1619, 41.33780
613.6440, 40.01270
614.1261, 38.76395
614.6082, 37.56949
615.0903, 36.46747
615.5724, 35.56873
616.0546, 34.89835
616.5367, 33.86636
617.0188, 32.34814
617.5009, 30.61563
617.9830, 28.94864
618.4651, 27.38083
618.9473, 26.05106
619.4294, 25.20114
619.9115, 24.38678
620.3936, 23.13574
620.8757, 21.55106
621.3578, 19.92935
621.8400, 18.27405
622.3221, 16.72336
622.8042, 15.51434
623.2863, 14.65546
623.7684, 13.35718
624.2505, 10.98917
624.7327, 8.706635
625.2148, 7.145905
625.6969, 6.535126
626.1790, 5.717499
626.6611, 4.654022
627.1432, 3.492554
627.6254, 2.272766
628.1075, 1.021118
628.5896, 0.2665100
629.0717, 0.2550350
629.5538, 0.3289790
630.0359, 0.5065610
630.5181, 1.960419
631.0002, 3.331482
631.4823, 4.613861
631.9644, 5.443237
632.4465, 5.181458
632.9286, 4.196991
633.4108, 3.642365
633.8929, 4.458191
634.3750, 5.256927
634.8571, 5.363281
635.3392, 4.716064
635.8214, 4.519165
636.3035, 5.197754
636.7856, 5.715057
637.2677, 5.417908
637.7498, 4.183746
638.2319, 3.019684
638.7141, 1.926544
639.1962, 0.8473510
639.6783, 0.3084110
640.1604, 1.520142
640.6425, 2.673584
641.1246, 3.745178
641.6068, 4.800110
642.0889, 5.883423
642.5710, 7.005676
643.0531, 8.166290
643.5352, 9.185364
644.0173, 10.43408
644.4995, 12.26254
644.9816, 14.44952
645.4637, 16.41312
645.9458, 17.58731
646.4279, 19.02350
646.9100, 21.04446
647.3922, 23.60773
647.8743, 25.87274
648.3564, 27.63312
648.8385, 29.76324
649.3206, 33.02078
649.8027, 37.26791
650.2849, 40.92798
650.7670, 43.98087
651.2491, 46.66074
651.7312, 48.82047
652.2133, 50.81235
652.6954, 53.26730
653.1776, 56.36377
653.6597, 59.62103
654.1418, 62.84058
654.6239, 66.07330
655.1060, 69.39139
655.5881, 73.04187
656.0703, 76.49490
656.5524, 79.40811
657.0345, 82.14743
657.5166, 85.35913
657.9987, 89.29248
658.4808, 93.09772
658.9630, 96.60809
659.4451, 99.86407
659.9272, 103.0923
660.4093, 106.2945
660.8914, 109.2514
661.3735, 111.5087
661.8557, 113.5626
662.3378, 116.5537
662.8199, 120.3787
663.3020, 124.0635
663.7841, 126.7692
664.2662, 129.2348
664.7484, 132.0805
665.2305, 135.4172
665.7126, 138.7314
666.1947, 142.1123
666.6768, 145.2646
667.1589, 147.9912
667.6411, 150.1682
668.1232, 152.1605
668.6053, 153.9456
669.0874, 155.5656
669.5695, 157.0136
670.0516, 158.2919
670.5338, 159.7355
671.0159, 161.5117
671.4980, 163.2355
671.9801, 164.0849
672.4622, 164.3884
672.9443, 165.0449
673.4265, 167.1102
673.9086, 169.0139
674.3907, 169.5270
674.8728, 169.0031
675.3549, 168.5233
675.8370, 168.3320
676.3192, 168.3152
676.8013, 168.4933
677.2834, 168.8477
677.7655, 169.2061
678.2476, 169.5739
678.7297, 169.9418
679.2119, 170.3002
679.6940, 170.6486
680.1761, 171.0408
680.6582, 171.4826
681.1403, 171.8799
681.6224, 172.3047
682.1046, 172.5855
682.5867, 172.2239
683.0688, 171.0479
683.5509, 170.1201
684.0330, 170.3907
684.5151, 171.1555
684.9973, 171.6945
685.4794, 171.7969
685.9615, 171.7679
686.4436, 171.2963
686.9257, 170.8879
687.4078, 171.2579
687.8900, 172.9220
688.3721, 173.8675
688.8542, 173.6460
689.3363, 172.7609
689.8184, 172.2679
690.3005, 172.1765
690.7827, 172.0911
691.2648, 172.0747
691.7469, 171.6602
692.2290, 170.0955
692.7111, 167.6184
693.1932, 165.0175
693.6754, 162.6446
694.1575, 160.2097
694.6396, 157.6148
695.1217, 154.8881
695.6038, 151.9577
696.0859, 148.7325
696.5681, 145.4099
697.0502, 141.9055
697.5323, 138.1710
698.0144, 135.3167
698.4965, 133.5091
698.9786, 132.0121
699.4608, 130.2953
699.9429, 128.4179
700.4250, 126.7108
700.9071, 125.1928
701.3892, 123.7438
701.8713, 122.2812
702.3535, 120.8254
702.8356, 119.3698
703.3177, 117.8533
703.7998, 116.5205
704.2819, 115.8810
704.7640, 115.2906
705.2462, 114.0045
705.7283, 111.1897
706.2104, 109.0107
706.6925, 107.5666
707.1746, 106.7235
707.6567, 106.2609
708.1389, 106.1769
708.6210, 106.8078
709.1031, 108.4240
709.5852, 110.4872
710.0673, 111.9235
710.5494, 113.0206
711.0316, 114.6667
711.5137, 117.4933
711.9958, 120.7228
712.4779, 123.7043
712.9600, 126.7072
713.4421, 130.4399
713.9243, 135.8396
714.4064, 141.1811
714.8885, 145.8433
715.3706, 149.9992
715.8527, 154.6750
716.3348, 160.2289
716.8170, 165.0694
717.2991, 168.2936
717.7812, 170.2238
718.2633, 172.1585
718.7454, 174.0035
719.2275, 175.2790
719.7097, 175.4854
720.1918, 175.2306
720.6739, 175.2687
721.1560, 175.6911
721.6381, 175.8697
722.1202, 175.1888
722.6024, 174.2525
723.0845, 173.6227
723.5666, 173.7334
724.0487, 173.2083
724.5308, 172.0663
725.0129, 170.2188
725.4951, 167.2918
725.9772, 163.1280
726.4593, 159.8505
726.9414, 157.8671
727.4235, 155.9262
727.9056, 152.1770
728.3878, 147.2765
728.8699, 142.8166
729.3520, 139.2557
729.8341, 135.9619
730.3162, 132.8158
730.7983, 129.5493
731.2805, 125.7879
731.7626, 120.5696
732.2447, 116.0863
732.7268, 113.1656
733.2089, 110.7109
733.6910, 106.8944
734.1732, 101.4326
734.6553, 95.88400
735.1374, 90.58698
735.6195, 85.47025
736.1016, 80.43323
736.5837, 75.48969
737.0659, 70.68729
737.5480, 65.85083
738.0301, 61.34329
738.5122, 57.68735
738.9943, 54.65555
739.4764, 51.71680
739.9586, 48.67282
740.4407, 45.71069
740.9228, 42.86206
741.4049, 40.13541
741.8870, 37.56033
742.3691, 35.17877
742.8513, 32.98697
743.3334, 30.95517
743.8155, 29.13281
744.2976, 27.87238
744.7797, 27.13440
745.2618, 26.29590
745.7440, 24.76111
746.2261, 23.02731
746.7082, 21.68866
747.1903, 20.73199
747.6724, 19.71890
748.1545, 18.20099
748.6367, 16.79480
749.1188, 15.87079
749.6009, 15.48416
750.0830, 15.05203
750.5651, 14.58621
751.0472, 14.02280
751.5294, 13.30658
752.0115, 12.43207
752.4936, 11.59821
752.9757, 10.80261
753.4578, 9.978363
753.9399, 9.087036
754.4221, 8.149292
754.9042, 7.194275
755.3863, 6.204498
755.8684, 5.355316
756.3505, 4.683777
756.8326, 4.210083
757.3148, 4.000122
757.7969, 4.278656
758.2790, 4.206055
758.7611, 3.570190
759.2432, 2.859833
759.7253, 2.526703
760.2075, 2.572327
760.6896, 2.632446
761.1717, 2.721161
761.6538, 2.550751
762.1359, 1.506104
762.6180, 4.5410000E-02
763.1002, 0.9824220
763.5823, 1.360626
764.0644, 1.430237
764.5465, 1.179138
765.0286, 0.8127440
765.5107, 0.5477910
765.9929, 0.3291930
766.4750, 0.3467410
766.9571, 0.6751710
767.4392, 1.163940
767.9213, 1.700928
768.4034, 2.297485
768.8856, 2.582031
769.3677, 2.421906
769.8498, 2.154968
770.3319, 2.286041
770.8140, 2.632874
771.2961, 2.788452
771.7783, 2.467194
772.2604, 2.237793
772.7425, 2.577301
773.2246, 3.145752
773.7067, 3.423615
774.1888, 2.923920
774.6710, 2.830383
775.1531, 3.608093
775.6352, 4.526581
776.1173, 3.996338
776.5994, 1.965424
777.0815, 0.4890140
777.5637, 0.1173710
778.0458, 0.3924560
778.5279, 1.067169
779.0100, 1.860352
779.4921, 2.125275
779.9742, 0.9924010
780.4564, 2.2095000E-02
780.9385, 0.1241460
781.4206, 0.3511660
781.9027, 0.6991580
782.3848, 0.9313350
782.8669, 0.8894040
783.3491, 0.3625790
783.8312, 0.3221740
784.3133, 0.1595760
784.7954, 0.8186340
785.2775, 1.286987
785.7596, 0.5725100
786.2418, 0.5609440
786.7239, 1.116150
787.2060, 1.246704
787.6881, 1.336060
788.1702, 1.714447
788.6523, 1.909912
789.1345, 1.478180
789.6166, 0.7150880
790.0987, 0.4940490
790.5808, 1.079071
791.0629, 1.710999
791.5450, 2.253082
792.0272, 2.699646
792.5093, 2.991547
792.9914, 3.140961
793.4735, 3.271606
793.9556, 3.411285
794.4377, 3.583282
794.9199, 3.850098
795.4020, 4.174591
795.8841, 4.452454
796.3662, 4.625885
796.8483, 4.766937
797.3304, 4.847198
797.8126, 4.913055
798.2947, 5.112823
798.7768, 5.482330
799.2589, 5.903259
799.7410, 6.393005
800.2231, 6.869934
800.7053, 7.039185
801.1874, 6.964233
801.6695, 7.001953
802.1516, 7.524139
802.6337, 8.059692
803.1158, 7.965881
803.5980, 7.535706
804.0801, 7.569000
804.5622, 8.760773
805.0443, 9.936859
805.5264, 10.77725
806.0085, 11.37979
806.4907, 12.05670
806.9728, 12.81793
807.4549, 13.61642
807.9370, 14.49765
808.4191, 15.34692
808.9012, 15.83014
809.3834, 16.05359
809.8655, 16.39761
810.3476, 17.00577
810.8297, 17.83945
811.3118, 19.12442
811.7939, 20.63235
812.2761, 21.65308
812.7582, 21.43741
813.2403, 21.65350
813.7224, 22.73721
814.2045, 24.41574
814.6866, 25.96606
815.1688, 27.36557
815.6509, 28.58707
816.1330, 29.52972
816.6151, 30.38412
817.0972, 31.53973
817.5793, 32.83029
818.0615, 33.85883
818.5436, 34.04919
819.0257, 34.35590
819.5078, 35.23746
819.9899, 36.47348
820.4720, 37.45078
820.9542, 38.04553
821.4363, 38.71558
821.9184, 39.60458
822.4005, 40.62491
822.8826, 41.49936
823.3647, 42.27652
823.8469, 43.23682
824.3290, 44.71902
824.8111, 46.05823
825.2932, 46.34103
825.7753, 46.10446
826.2574, 46.38818
826.7396, 48.27237
827.2217, 49.80191
827.7038, 50.38907
828.1859, 50.56192
828.6681, 51.55728
829.1502, 53.59421
829.6323, 54.86664
830.1144, 54.69067
830.5966, 54.06497
831.0787, 54.62009
831.5608, 55.99036
832.0429, 57.34177
832.5250, 58.35379
833.0071, 59.14243
833.4893, 59.87384
833.9714, 60.50580
834.4535, 60.89258
834.9356, 60.49521
835.4177, 60.76947
835.8998, 61.98706
836.3820, 63.58344
836.8641, 64.87946
837.3462, 65.89551
837.8283, 66.60886
838.3104, 66.87668
838.7925, 67.14221
839.2747, 67.92755
839.7568, 68.96957
840.2389, 69.92349
840.7210, 70.79306
841.2031, 71.46921
841.6852, 71.54172
842.1674, 71.64539
842.6495, 72.50388
843.1316, 74.38080
843.6137, 75.74863
844.0958, 76.45319
844.5779, 76.93738
845.0601, 77.79886
845.5422, 78.83264
846.0243, 79.58182
846.5064, 79.90143
846.9885, 80.27689
847.4706, 81.08197
847.9528, 82.00049
848.4349, 82.74615
848.9170, 83.12796
849.3991, 83.90417
849.8812, 85.44009
850.3633, 86.63065
850.8455, 86.42697
851.3276, 84.99106
851.8097, 83.42630
852.2918, 81.77789
852.7739, 80.02081
853.2560, 78.18817
853.7382, 76.18900
854.2203, 73.72598
854.7024, 70.68912
855.1845, 68.28253
855.6666, 67.29532
856.1487, 66.45850
856.6309, 65.33752
857.1130, 63.94656
857.5951, 61.59958
858.0772, 58.21338
858.5593, 54.74332
859.0414, 51.59149
859.5236, 48.83023
860.0057, 46.71396
860.4878, 45.17804
860.9699, 43.78589
861.4520, 42.31360
861.9341, 40.94510
862.4163, 39.70093
862.8984, 38.59668
863.3805, 37.87738
863.8626, 37.61713
864.3447, 37.48840
864.8268, 37.43637
865.3090, 37.36835
865.7911, 36.67230
866.2732, 35.64270
866.7553, 35.52408
867.2374, 38.27002
867.7195, 40.83383
868.2017, 41.11182
868.6838, 39.74951
869.1659, 38.56564
869.6480, 37.67883
870.1301, 37.09375
870.6122, 37.00317
871.0944, 37.02856
871.5765, 36.33865
872.0586, 34.99539
872.5407, 33.42834
873.0228, 31.72092
873.5049, 29.95853
873.9871, 28.08347
874.4692, 26.24130
874.9513, 24.63748
875.4334, 23.52582
875.9155, 22.40622
876.3976, 21.29504
876.8798, 20.10013
877.3619, 18.62848
877.8440, 16.85840
878.3261, 15.31445
878.8082, 14.08011
879.2903, 12.90134
879.7725, 11.36346
880.2546, 9.736359
880.7367, 8.469208
881.2188, 7.729553
881.7009, 6.890594
882.1830, 5.485901
882.6652, 4.097015
883.1473, 3.202698
883.6294, 2.937805
884.1115, 2.109222
884.5936, 0.5371090
885.0757, 0.7039180
885.5579, 0.5086060
886.0400, 0.5112300
886.5221, 1.281403
887.0042, 1.730255
887.4863, 1.725830
887.9684, 0.7373960
888.4506, 0.3068240
888.9327, 0.9560240
889.4148, 1.197876
889.8969, 1.019501
890.3790, 0.2537230
890.8611, 0.4092410
891.3433, 0.5909120
891.8254, 0.5304570
892.3075, 0.8061520
892.7896, 1.398621
893.2717, 2.223969
893.7538, 3.394440
894.2360, 4.638184
894.7181, 5.857086
895.2002, 7.008240
895.6823, 7.923340
896.1644, 8.240417
896.6465, 9.071564
897.1287, 10.69791
897.6108, 12.76733
898.0929, 14.74631
898.5750, 16.60666
899.0571, 18.12244
899.5392, 19.07144
900.0214, 20.19553
900.5035, 22.38065
900.9856, 24.95325
901.4677, 27.14911
901.9498, 28.35056
902.4319, 29.95892
902.9141, 32.12674
903.3962, 34.50992
903.8783, 36.87003
904.3604, 39.19470
904.8425, 41.46939
905.3246, 43.72186
905.8068, 45.80991
906.2889, 47.59323
906.7710, 49.20139
907.2531, 50.69843
907.7352, 52.06851
908.2173, 53.66879
908.6995, 55.87137
909.1816, 57.88150
909.6637, 59.43286
910.1458, 60.49353
910.6279, 60.68344
911.1100, 60.02814
911.5922, 59.03561
912.0743, 57.74115
912.5564, 56.43268
913.0385, 55.35126
913.5206, 54.49976
914.0027, 53.84015
914.4849, 54.09979
914.9670, 53.57135
915.4491, 51.73416
915.9312, 49.10263
916.4133, 46.67902
916.8954, 44.45038
917.3776, 42.37912
917.8597, 40.54117
918.3418, 38.54004
918.8239, 35.75742
919.3060, 32.59991
919.7881, 29.59702
920.2703, 26.64874
920.7524, 24.35818
921.2345, 23.16251
921.7166, 22.24496
922.1987, 20.95740
922.6808, 19.28528
923.1630, 17.57684
923.6451, 15.82446
924.1272, 14.19641
924.6093, 12.90018
925.0914, 11.76355
925.5735, 10.49304
926.0557, 9.094025
926.5378, 8.115173
927.0199, 8.182251
927.5020, 8.179626
927.9841, 7.613770
928.4662, 6.636749
928.9484, 6.108948
929.4305, 6.024841
929.9126, 6.322296
930.3947, 7.281708
930.8768, 8.283020
931.3589, 8.318085
931.8411, 7.854523
932.3232, 7.925507
932.8053, 9.310181
933.2874, 10.67172
933.7695, 11.74097
934.2516, 12.73315
934.7338, 14.03925
935.2159, 15.66507
935.6980, 16.87192
936.1801, 17.45120
936.6622, 18.09659
937.1443, 19.58768
937.6265, 21.51639
938.1086, 23.44147
938.5907, 25.33817
939.0728, 27.00400
939.5549, 28.02783
940.0370, 29.30832
940.5192, 31.22278
941.0013, 33.73450
941.4834, 37.66885
941.9655, 43.05435
942.4476, 47.33481
942.9297, 47.91946
943.4119, 47.18219
943.8940, 47.20328
944.3761, 47.93814
944.8582, 48.84399
945.3403, 49.73264
945.8224, 51.02121
946.3046, 52.93820
946.7867, 55.08276
947.2688, 56.62512
947.7509, 57.60809
948.2330, 58.21942
948.7151, 58.46500
949.1973, 58.52942
949.6794, 58.67023
950.1615, 58.69110
950.6436, 58.30225
951.1257, 56.96429
951.6078, 56.31192
952.0900, 56.86896
952.5721, 57.28418
953.0542, 56.26398
953.5363, 53.98801
954.0184, 51.72388
954.5005, 49.57990
954.9827, 47.51312
955.4648, 45.47859
955.9469, 43.45163
956.4290, 41.29884
956.9111, 39.09094
957.3932, 37.56253
957.8754, 37.08832
958.3575, 36.25494
958.8396, 34.55730
959.3217, 32.36929
959.8038, 30.37531
960.2859, 28.61302
960.7681, 27.38452
961.2502, 27.16724
961.7323, 26.94243
962.2144, 26.12303
962.6965, 24.94447
963.1786, 23.71881
963.6608, 22.51410
964.1429, 21.10851
964.6250, 19.39000
965.1071, 17.87244
965.5892, 17.29582
966.0714, 17.26439
966.5535, 16.84265
967.0356, 15.97522
967.5177, 15.12247
967.9998, 14.64743
968.4819, 14.12065
968.9641, 13.18640
969.4462, 11.94545
969.9283, 11.08794
970.4104, 10.62549
970.8925, 10.48698
971.3746, 10.78038
971.8568, 11.17958
972.3389, 11.24219
972.8210, 11.01044
973.3031, 10.57524
973.7852, 9.542908
974.2673, 8.895401
974.7495, 9.064621
975.2316, 9.470337
975.7137, 9.491547
976.1958, 9.109329
976.6779, 8.836304
977.1600, 8.725281
977.6422, 8.553513
978.1243, 7.922363
978.6064, 7.247025
979.0885, 7.107376
979.5706, 7.561127
980.0527, 7.572220
980.5349, 6.574799
981.0170, 5.729019
981.4991, 5.453644
981.9812, 5.610092
982.4633, 5.859039
982.9454, 6.147278
983.4276, 6.147873
983.9097, 5.573151
984.3918, 4.872879
984.8739, 4.201538
985.3560, 3.658646
985.8381, 3.441788
986.3203, 3.834320
986.8024, 3.881668
987.2845, 3.444290
987.7666, 2.930786
988.2487, 2.835602
988.7308, 2.987778
989.2130, 2.893585
989.6951, 2.524612
990.1772, 2.183624
990.6593, 2.206619
991.1414, 2.133102
991.6235, 1.542786
992.1057, 0.5924530
992.5878, 0.2141420
993.0699, 0.4807740
993.5520, 0.7588040
994.0341, 0.8720400
994.5162, 0.7931980
994.9984, 0.3281100
995.4805, 0.3252110
995.9626, 0.7866210
996.4447, 0.7467040
996.9268, 0.8510280
997.4089, 1.423996
997.8911, 1.914688
998.3732, 1.628983
998.8553, 0.6089940
999.3374, 0.4361720
999.8195, 1.180389
1000.302, 1.877823
1000.784, 1.709778
1001.266, 1.265244
1001.748, 0.9182890
1002.230, 0.7220310
1002.712, 0.9088290
1003.194, 1.828110
1003.676, 2.347000
1004.159, 2.090668
1004.641, 1.391647
1005.123, 0.7976680
1005.605, 0.3299260
1006.087, 5.4993000E-02
1006.569, 2.7283000E-02
1007.051, 9.7640999E-02
1007.533, 0.2411650
1008.016, 0.4154660
1008.498, 0.5900420
1008.980, 0.7628940
1009.462, 0.9570620
1009.944, 1.202820
1010.426, 1.260666
1010.908, 0.6939090
1011.390, 2.6400001E-03
1011.872, 7.0739999E-02
1012.355, 0.3644870
1012.837, 0.6748960
1013.319, 0.4763640
1013.801, 0.4038700
1014.283, 0.7127530
1014.765, 1.102966
1015.247, 0.9345860
1015.729, 0.2913820
1016.211, 0.1692960
1016.694, 0.2783050
1017.176, 0.4016110
1017.658, 0.9785610
1018.140, 1.615875
1018.622, 1.915619
1019.104, 1.777740
1019.586, 1.808243
1020.068, 2.048798
1020.551, 2.330826
1021.033, 2.549255
1021.515, 2.759171
1021.997, 3.083389
1022.479, 3.501831
1022.961, 3.955154
1023.443, 4.653564
1023.925, 5.081451
1024.407, 4.850800
1024.890, 4.439423
1025.372, 4.444534
1025.854, 4.877197
1026.336, 5.357559
1026.818, 5.859451
1027.300, 6.299896
1027.782, 6.281830
1028.264, 6.398071
1028.746, 7.546326
1029.229, 9.765350
1029.711, 10.85458
1030.193, 10.02531
1030.675, 9.549286
1031.157, 10.24286
1031.639, 11.67911
1032.121, 13.19217
1032.603, 14.65163
1033.086, 15.55257
1033.568, 15.43089
1034.050, 15.43631
1034.532, 16.15744
1035.014, 17.19446
1035.496, 18.20158
1035.978, 19.16666
1036.460, 20.20227
1036.943, 21.30933
1037.425, 22.28479
1037.907, 22.65089
1038.389, 23.04016
1038.871, 24.22371
1039.353, 26.05518
1039.835, 27.85942
1040.317, 29.54053
1040.799, 31.08154
1041.281, 32.37952
1041.764, 33.71654
1042.246, 35.59230
1042.728, 37.89342
1043.210, 40.25909
1043.692, 42.68118
1044.174, 44.91434
1044.656, 46.42018
1045.138, 48.09346
1045.621, 50.59703
1046.103, 53.84492
1046.585, 56.82080
1047.067, 59.49481
1047.549, 62.11411
1048.031, 64.55487
1048.513, 67.27852
1048.995, 70.98557
1049.478, 75.26872
1049.960, 79.43994
1050.442, 82.85944
1050.924, 86.96323
1051.406, 92.12408
1051.888, 97.39597
1052.370, 101.8667
1052.852, 105.8051
1053.334, 110.0133
1053.817, 114.5355
1054.299, 119.4254
1054.781, 124.8365
1055.263, 130.4397
1055.745, 136.2412
1056.227, 142.1837
1056.709, 148.1482
1057.191, 154.0949
1057.673, 159.7216
1058.156, 164.9249
1058.638, 170.1284
1059.120, 175.8035
1059.602, 181.7546
1060.084, 187.7467
1060.566, 193.7147
1061.048, 199.9216
1061.530, 206.6843
1062.013, 213.1530
1062.495, 218.9231
1062.977, 224.1293
1063.459, 229.4066
1063.941, 234.4820
1064.423, 238.7823
1064.905, 242.9553
1065.387, 245.0670
1065.870, 243.5160
1066.352, 240.3518
1066.834, 237.3385
1067.316, 234.5304
1067.798, 230.3640
1068.280, 224.7269
1068.762, 218.2835
1069.244, 210.5065
1069.726, 202.9311
1070.208, 196.9202
1070.691, 192.2999
1071.173, 188.1586
1071.655, 184.1048
1072.137, 181.5585
1072.619, 180.9692
1073.101, 181.3735
1073.583, 181.4315
1074.065, 181.5748
1074.548, 182.9030
1075.030, 185.8662
1075.512, 187.4324
1075.994, 186.2715
1076.476, 184.2074
1076.958, 182.0186
1077.440, 179.4338
1077.922, 175.7277
1078.405, 170.7683
1078.887, 163.9007
1079.369, 154.5054
1079.851, 143.6637
1080.333, 131.3381
1080.815, 118.1292
1081.297, 104.8595
1081.779, 91.24112
1082.261, 78.85992
1082.744, 67.60463
1083.226, 57.70589
1083.708, 49.46225
1084.190, 42.50980
1084.672, 36.62450
1085.154, 31.71570
1085.636, 27.58070
1086.118, 24.28427
1086.601, 21.50406
1087.083, 19.18155
1087.565, 17.26863
1088.047, 15.78253
1088.529, 14.66231
1089.011, 13.83627
1089.493, 13.29733
1089.975, 12.65875
1090.458, 11.35049
1090.940, 10.43243
1091.422, 10.47002
1091.904, 11.06927
1092.386, 11.04601
1092.868, 10.46002
1093.350, 9.616898
1093.832, 8.430740
1094.314, 7.578629
1094.797, 8.035217
1095.279, 8.679230
1095.761, 8.300888
1096.243, 6.784988
1096.725, 6.301727
1097.207, 6.970078
1097.689, 7.322556
1098.171, 6.165726
1098.653, 4.662231
1099.136, 4.179230
1099.618, 4.325577
1100.100, 4.317169
1100.582, 3.739594
1101.064, 3.526810
1101.546, 3.812347
1102.028, 4.173157
1102.510, 4.217621
1102.993, 4.049942
1103.475, 3.830719
1103.957, 3.597565
1104.439, 3.494034
1104.921, 3.988419
1105.403, 4.032150
1105.885, 3.082779
1106.367, 1.883499
1106.849, 1.962921
1107.332, 3.031631
1107.814, 3.473907
1108.296, 3.006653
1108.778, 2.552872
1109.260, 2.903458
1109.742, 3.270157
1110.224, 3.090057
1110.706, 2.481583
1111.188, 2.042389
1111.671, 1.767548
1112.153, 1.526825
1112.635, 1.222183
1113.117, 1.066116
1113.599, 1.606216
1114.081, 2.226608
1114.563, 2.065598
1115.045, 0.7710720
1115.528, 0.1763920
1116.010, 0.4247590
1116.492, 0.7551120
1116.974, 0.7290040
1117.456, 0.5408480
1117.938, 0.4843750
1118.420, 0.5068660
1118.902, 0.5003360
1119.385, 0.3620300
1119.867, 0.2706450
1120.349, 8.8027999E-02
1120.831, 0.2304690
1121.313, 1.506241
1121.795, 3.329849
1122.277, 3.956711
1122.759, 3.462708
1123.241, 2.648544
1123.724, 1.586014
1124.206, 0.6107480
1124.688, 0.3342590
1125.170, 1.021149
1125.652, 0.9121090
1126.134, 0.1446990
1126.616, 0.2970430
1127.098, 0.2898100
1127.580, 0.2157750
1128.063, 0.3003850
1128.545, 0.4357910
1129.027, 0.6306920
1129.509, 0.8191530
1129.991, 0.6949920
1130.473, 0.2511750
1130.955, 6.4208999E-02
1131.437, 0.1414950
1131.920, 3.7246998E-02
1132.402, 0.3732600
1132.884, 0.8210750
1133.366, 1.038620
1133.848, 0.9948120
1134.330, 0.8425140
1134.812, 0.5485530
1135.294, 0.3190160
1135.776, 0.2786410
1136.259, 0.2901460
1136.741, 6.1478000E-02
1137.223, 0.2033230
1137.705, 0.1693120
1138.187, 0.4519040
1138.669, 0.8706360
1139.151, 1.038910
1139.633, 1.109207
1140.115, 1.159149
1140.598, 1.192993
1141.080, 1.252777
1141.562, 1.312546
1142.044, 1.290161
1142.526, 1.240860
1143.008, 0.9290620
1143.490, 0.1083070
1143.972, 0.5887450
1144.455, 0.3783570
1144.937, 0.4614410
1145.419, 1.073334
1145.901, 1.422195
1146.383, 1.567825
1146.865, 1.363068
1147.347, 1.187241
1147.829, 1.229187
1148.312, 1.296463
1148.794, 0.9714810
1149.276, 0.3489230
1149.758, 7.3807001E-02
1150.240, 0.2241670
1150.722, 0.4190060
1151.204, 0.3513640
1151.686, 0.3249510
1152.168, 0.5612340
1152.651, 0.9535220
1153.133, 1.202942
1153.615, 1.308456
1154.097, 1.347198
1154.579, 1.336655
1155.061, 1.282898
1155.543, 1.109604
1156.025, 0.9605410
1156.507, 1.020370
1156.990, 1.251053
1157.472, 1.214462
1157.954, 0.8863980
1158.436, 0.6952820
1158.918, 0.7824400
1159.400, 1.083359
1159.882, 1.932159
1160.364, 2.733490
1160.847, 2.593079
1161.329, 1.188705
1161.811, 0.7835390
1162.293, 1.569061
1162.775, 2.170609
1163.257, 1.677933
1163.739, 0.8725890
1164.221, 0.7326350
1164.703, 0.9759980
1165.186, 1.118317
1165.668, 0.8822630
1166.150, 1.043961
1166.632, 1.752213
1167.114, 2.313843
1167.596, 1.928818
1168.078, 1.278870
1168.560, 1.584305
1169.042, 2.449814
1169.525, 3.000534
1170.007, 2.868805
1170.489, 2.637970
1170.971, 2.279419
1171.453, 1.973129
1171.935, 1.866104
1172.417, 1.931366
1172.899, 2.316879
1173.382, 2.886810
1173.864, 2.982697
1174.346, 1.644363
1174.828, 0.9137120
1175.310, 1.266129
1175.792, 1.941635
1176.274, 1.888550
1176.756, 1.415604
1177.239, 1.327454
1177.721, 1.660095
1178.203, 1.822830
1178.685, 1.350021
1179.167, 1.048584
1179.649, 1.073944
1180.131, 1.281204
1180.613, 1.545288
1181.095, 1.847046
1181.578, 2.175156
1182.060, 2.539764
1182.542, 2.677216
1183.024, 2.137344
1183.506, 1.793182
1183.988, 2.097137
1184.470, 2.684830
1184.952, 2.735260
1185.434, 2.347610
1185.917, 1.755081
1186.399, 0.9015050
1186.881, 0.4565890
1187.363, 1.276031
1187.845, 1.994965
1188.327, 1.820221
1188.809, 1.085617
1189.291, 1.263840
1189.774, 2.099197
1190.256, 2.261169
1190.738, 0.9480130
1191.220, 1.5442000E-02
1191.702, 0.5610200
1192.184, 1.520660
1192.666, 2.250961
1193.148, 2.722977
1193.630, 2.632751
1194.113, 2.064606
1194.595, 1.488968
1195.077, 0.9920650
1195.559, 0.7370000
1196.041, 1.114471
1196.523, 1.508362
1197.005, 1.308838
1197.487, 0.5880430
1197.969, 0.7885280
1198.452, 1.768906
1198.934, 2.457321
1199.416, 1.679855
1199.898, 1.259491
1200.380, 2.522598
1200.862, 4.239609
1201.344, 5.391342
1201.826, 5.963562
1202.309, 5.010635
1202.791, 2.693604
1203.273, 0.9059300
1203.755, 1.399643
1204.237, 1.952682
1204.719, 1.123337
1205.201, 6.0927998E-02
1205.683, 0.2711490
1206.166, 0.4768220
1206.648, 0.6773990
1207.130, 0.3099060
1207.612, 2.5467001E-02
1208.094, 0.2753300
1208.576, 0.6876830
1209.058, 1.304245
1209.540, 1.818497
1210.022, 1.604584
1210.505, 0.7087710
1210.987, 0.6925660
1211.469, 1.641281
1211.951, 2.427505
1212.433, 2.287704
1212.915, 1.789185
1213.397, 0.9897770
1213.879, 0.1778260
1214.361, 9.9335000E-02
1214.844, 0.1236570
1215.326, 0.2724760
1215.808, 0.2886200
1216.290, 0.4273530
1216.772, 0.9266660
1217.254, 1.362213
1217.736, 1.362900
1218.218, 1.194855
1218.701, 1.512726
1219.183, 2.244919
1219.665, 2.676514
1220.147, 2.701843
1220.629, 2.394379
1221.111, 1.320007
1221.593, 0.4255370
1222.075, 0.2399140
1222.557, 0.5731510
1223.040, 1.169510
1223.522, 1.932373
1224.004, 2.032394
1224.486, 1.276169
1224.968, 0.4125670
1225.450, 0.5187070
1225.932, 0.9356690
1226.414, 0.3280180
1226.896, 0.8559270
1227.379, 1.124130
1227.861, 0.6380160
1228.343, 0.2616730
1228.825, 0.1788940
1229.307, 0.2496800
1229.789, 0.6107640
1230.271, 0.8617710
1230.753, 0.7416840
1231.236, 0.4023130
1231.718, 0.3969270
1232.200, 0.6332700
1232.682, 0.7177120
1233.164, 0.5001220
1233.646, 0.4134060
1234.128, 0.9936070
1234.610, 1.359207
1235.093, 1.021530
1235.575, 0.2297060
1236.057, 0.4104770
1236.539, 0.8184360
1237.021, 0.5931700
1237.503, 0.6290890
1237.985, 1.533524
1238.467, 1.474854
1238.949, 1.141678
1239.432, 0.7204900
1239.914, 0.3038020
1240.396, 0.2036130
1240.878, 0.3495330
1241.360, 0.5885930
1241.842, 1.000916
1242.324, 1.093063
1242.806, 0.5031130
1243.288, 5.1420000E-03
1243.771, 6.8049999E-03
1244.253, 0.3461460
1244.735, 1.098709
1245.217, 1.981613
1245.699, 2.374527
1246.181, 1.882675
1246.663, 1.439941
1247.145, 1.097610
1247.628, 0.9431300
1248.110, 1.071823
1248.592, 1.367752
1249.074, 1.697601
1249.556, 1.967392
1250.038, 2.008347
1250.520, 1.539368
1251.002, 1.460754
1251.484, 1.958328
1251.967, 2.343353
1252.449, 2.061600
1252.931, 1.593643
1253.413, 1.804123
1253.895, 2.345581
1254.377, 2.468750
1254.859, 1.732483
1255.341, 1.536713
1255.823, 2.006226
1256.306, 2.333771
1256.788, 1.888031
1257.270, 1.234924
1257.752, 1.063721
1258.234, 1.169571
1258.716, 1.180298
1259.198, 1.008591
1259.680, 1.036453
1260.163, 1.292175
1260.645, 1.533646
1261.127, 1.698013
1261.609, 1.690140
1262.091, 1.314850
1262.573, 0.8169100
1263.055, 0.4397280
1263.537, 3.9519998E-03
1264.020, 0.5257110
1264.502, 1.914520
1264.984, 2.844070
1265.466, 2.147888
1265.948, 1.289627
1266.430, 1.244766
1266.912, 1.529572
1267.394, 1.547211
1267.876, 1.303146
1268.359, 1.247971
1268.841, 1.240143
1269.323, 1.374619
1269.805, 1.806732
1270.287, 2.023422
1270.769, 1.571121
1271.251, 1.062119
1271.733, 1.108994
1272.215, 1.558060
1272.698, 1.112228
1273.180, 3.0273000E-02
1273.662, 0.6145320
1274.144, 8.8469997E-02
1274.626, 0.6791690
1275.108, 0.8213350
1275.590, 0.8394930
1276.072, 1.008316
1276.555, 1.252731
1277.037, 1.321274
1277.519, 1.236511
1278.001, 1.064224
1278.483, 0.7086640
1278.965, 0.4532780
1279.447, 0.3114170
1279.929, 0.2501830
1280.411, 0.2503660
1280.894, 0.3067320
1281.376, 0.4005280
1281.858, 0.5016480
1282.340, 0.5585940
1282.822, 0.7604370
1283.304, 0.6872250
1283.786, 0.2477570
1284.268, 9.8907001E-02
1284.750, 2.2826999E-02
1285.233, 0.3382720
1285.715, 0.4986880
1286.197, 0.6011510
1286.679, 0.8609920
1287.161, 1.345444
1287.643, 1.318558
1288.125, 1.197357
1288.607, 1.004669
1289.090, 0.7644350
1289.572, 0.6427920
1290.054, 0.8623500
1290.536, 1.181503
1291.018, 1.323349
1291.500, 1.300507
1291.982, 1.251373
1292.464, 1.136353
1292.947, 0.7736050
1293.429, 0.3664400
1293.911, 0.1239930
1294.393, 0.4313350
1294.875, 0.7724150
1295.357, 0.7126770
1295.839, 0.3695680
1296.321, 0.1797790
1296.803, 0.1251530
1297.286, 0.1677090
1297.768, 0.3912050
1298.250, 0.4858250
1298.732, 0.2460170
1299.214, 5.3860000E-03
1299.696, 2.4323000E-02
1300.178, 0.1063540
1300.660, 0.0000000E+00
##END=



