##NAMES=Virgilluethite
##RRUFFID=R220017
##IDEAL CHEMISTRY=Mo^6+^O_3_&#183;H_2_O
##LOCALITY=Cooke's Peak, Cookes Range, Luna County, New Mexico, USA
##OWNER=RRUFF
##SOURCE=Ron Gibbs
##DESCRIPTION=Aggregates of yellow-green lamellas. Type sample
##STATUS=The identification of this mineral is confirmed by single-crystal X-ray diffraction and chemical analysis.
##URL=rruff.info/R220017
##MEASURED CHEMISTRY=MoO_3_Â·H_2_O, which was calculated on the basis of 4 O apfu.
88.13672, 0.0000000E+00
88.61884, 10.81958
89.10095, 42.68677
89.58307, 97.04944
90.06519, 159.4550
90.54730, 218.2360
91.02942, 272.4519
91.51154, 318.9475
91.99365, 359.0533
92.47577, 393.7976
92.95789, 416.9060
93.44000, 420.5428
93.92212, 410.6907
94.40424, 400.9370
94.88635, 395.4535
95.36847, 393.4379
95.85059, 396.5717
96.33270, 397.9049
96.81482, 393.6705
97.29694, 381.2559
97.77905, 356.8606
98.26117, 320.3022
98.74329, 275.4564
99.22540, 229.2819
99.70752, 187.2263
100.1896, 149.2262
100.6718, 115.5392
101.1539, 87.15955
101.6360, 64.80444
102.1181, 43.84473
102.6002, 23.35205
103.0823, 3.677490
103.5645, 12.59644
104.0466, 25.26746
104.5287, 34.83203
105.0108, 41.43079
105.4929, 44.56445
105.9750, 45.68054
106.4572, 44.77039
106.9393, 41.61194
107.4214, 37.78760
107.9035, 34.13477
108.3856, 29.12769
108.8677, 21.51257
109.3499, 7.283325
109.8320, 6.280029
110.3141, 16.80127
110.7962, 22.37891
111.2783, 32.34167
111.7604, 49.04297
112.2426, 70.50146
112.7247, 93.11328
113.2068, 114.7853
113.6889, 138.8279
114.1710, 166.5374
114.6531, 199.6555
115.1353, 233.4546
115.6174, 267.2292
116.0995, 301.2610
116.5816, 336.7810
117.0637, 374.2178
117.5458, 413.0669
118.0280, 453.6812
118.5101, 496.3618
118.9922, 540.1055
119.4743, 585.1760
119.9564, 631.0945
120.4385, 674.5808
120.9207, 710.8069
121.4028, 744.4646
121.8849, 780.7322
122.3670, 824.5774
122.8491, 870.0813
123.3312, 912.1538
123.8134, 950.9399
124.2955, 986.3127
124.7776, 1015.879
125.2597, 1041.726
125.7418, 1068.186
126.2239, 1098.739
126.7061, 1130.786
127.1882, 1160.452
127.6703, 1188.397
128.1524, 1210.336
128.6345, 1219.649
129.1166, 1217.969
129.5988, 1212.960
130.0809, 1211.712
130.5630, 1210.430
131.0451, 1195.582
131.5272, 1165.351
132.0093, 1124.993
132.4915, 1080.246
132.9736, 1031.055
133.4557, 979.1633
133.9378, 925.5576
134.4199, 869.9929
134.9020, 812.4099
135.3842, 751.3379
135.8663, 689.6355
136.3484, 630.4038
136.8305, 573.2188
137.3126, 520.1743
137.7947, 473.6611
138.2769, 434.1492
138.7590, 396.1509
139.2411, 358.0376
139.7232, 321.4438
140.2053, 294.7893
140.6874, 280.0342
141.1696, 270.9670
141.6517, 263.7134
142.1338, 258.5920
142.6159, 254.8613
143.0980, 251.9587
143.5801, 250.3000
144.0623, 253.4158
144.5444, 261.8665
145.0265, 274.7632
145.5086, 291.3489
145.9907, 313.5051
146.4728, 336.5310
146.9550, 359.4382
147.4371, 381.8528
147.9192, 407.9275
148.4013, 439.4529
148.8834, 473.3474
149.3655, 507.2605
149.8477, 538.6279
150.3298, 572.2305
150.8119, 608.2258
151.2940, 646.2031
151.7761, 688.0078
152.2583, 736.3167
152.7404, 786.5325
153.2225, 834.3284
153.7046, 872.2964
154.1867, 913.7654
154.6688, 963.4995
155.1510, 1025.032
155.6331, 1084.683
156.1152, 1137.328
156.5973, 1187.261
157.0794, 1239.640
157.5615, 1298.672
158.0437, 1358.505
158.5258, 1416.220
159.0079, 1469.855
159.4900, 1526.661
159.9721, 1589.038
160.4542, 1655.763
160.9364, 1724.727
161.4185, 1799.124
161.9006, 1873.094
162.3827, 1942.698
162.8648, 2005.104
163.3469, 2068.864
163.8291, 2138.809
164.3112, 2212.759
164.7933, 2287.480
165.2754, 2358.105
165.7575, 2430.576
166.2396, 2510.362
166.7218, 2602.370
167.2039, 2694.696
167.6860, 2780.182
168.1681, 2859.245
168.6502, 2936.638
169.1323, 3011.745
169.6145, 3086.925
170.0966, 3164.484
170.5787, 3246.418
171.0608, 3328.702
171.5429, 3409.510
172.0250, 3489.040
172.5072, 3563.634
172.9893, 3633.674
173.4714, 3698.249
173.9535, 3756.050
174.4356, 3806.435
174.9177, 3850.057
175.3999, 3888.949
175.8820, 3923.105
176.3641, 3949.759
176.8462, 3970.542
177.3283, 3982.951
177.8104, 3981.889
178.2926, 3963.773
178.7747, 3933.593
179.2568, 3898.965
179.7389, 3859.975
180.2210, 3811.057
180.7031, 3748.452
181.1853, 3673.045
181.6674, 3587.547
182.1495, 3493.383
182.6316, 3389.723
183.1137, 3276.036
183.5958, 3151.248
184.0780, 3020.559
184.5601, 2885.245
185.0422, 2747.585
185.5243, 2605.861
186.0064, 2458.843
186.4885, 2308.461
186.9707, 2164.539
187.4528, 2026.188
187.9349, 1890.542
188.4170, 1752.766
188.8991, 1613.681
189.3812, 1479.784
189.8634, 1349.383
190.3455, 1225.259
190.8276, 1118.099
191.3097, 1028.566
191.7918, 947.2915
192.2739, 862.3162
192.7561, 772.7842
193.2382, 691.0879
193.7203, 620.8154
194.2024, 561.3435
194.6845, 508.0564
195.1666, 461.4849
195.6488, 420.0090
196.1309, 381.2183
196.6130, 344.3950
197.0951, 314.0281
197.5772, 292.3916
198.0593, 278.8799
198.5415, 266.8694
199.0236, 256.3479
199.5057, 247.6802
199.9878, 242.4717
200.4699, 241.4590
200.9520, 239.2456
201.4342, 232.7622
201.9163, 222.3257
202.3984, 218.2498
202.8805, 222.0869
203.3626, 229.4502
203.8447, 234.3613
204.3269, 236.1960
204.8090, 238.7129
205.2911, 242.7100
205.7732, 248.1216
206.2553, 256.2717
206.7374, 267.4905
207.2196, 280.6917
207.7017, 294.7527
208.1838, 309.9463
208.6659, 324.6030
209.1480, 337.4766
209.6301, 348.3147
210.1123, 361.2195
210.5944, 376.4377
211.0765, 393.3633
211.5586, 411.4644
212.0407, 431.2300
212.5228, 450.6658
213.0050, 468.2959
213.4871, 483.4675
213.9692, 503.1030
214.4513, 529.9868
214.9334, 558.2615
215.4155, 579.3899
215.8977, 590.4937
216.3798, 601.6304
216.8619, 616.6562
217.3440, 636.5789
217.8261, 651.7659
218.3082, 660.5725
218.7904, 666.2722
219.2725, 673.2512
219.7546, 681.8647
220.2367, 691.0222
220.7188, 699.5681
221.2009, 706.7053
221.6831, 720.0083
222.1652, 742.1458
222.6473, 768.0569
223.1294, 789.8098
223.6115, 803.7729
224.0936, 821.2485
224.5758, 845.9312
225.0579, 878.6238
225.5400, 912.8577
226.0221, 950.9263
226.5042, 988.5312
226.9863, 1019.479
227.4685, 1042.688
227.9506, 1061.569
228.4327, 1076.480
228.9148, 1087.112
229.3969, 1096.472
229.8790, 1106.234
230.3612, 1113.130
230.8433, 1112.865
231.3254, 1102.601
231.8075, 1089.891
232.2896, 1075.823
232.7717, 1060.158
233.2539, 1046.072
233.7360, 1035.260
234.2181, 1025.047
234.7002, 1011.737
235.1823, 992.0378
235.6644, 975.6296
236.1466, 965.2002
236.6287, 961.3188
237.1108, 958.0312
237.5929, 955.6575
238.0750, 953.9966
238.5571, 952.9050
239.0393, 952.5330
239.5214, 952.5784
240.0035, 952.5000
240.4856, 952.2029
240.9677, 955.1865
241.4498, 960.7341
241.9320, 970.0833
242.4141, 984.8279
242.8962, 1007.008
243.3783, 1030.989
243.8604, 1055.732
244.3425, 1081.178
244.8247, 1108.544
245.3068, 1138.384
245.7889, 1168.416
246.2710, 1197.147
246.7531, 1223.974
247.2352, 1251.149
247.7174, 1278.707
248.1995, 1306.465
248.6816, 1335.585
249.1637, 1367.532
249.6458, 1399.238
250.1279, 1427.656
250.6101, 1450.779
251.0922, 1475.429
251.5743, 1503.435
252.0564, 1534.583
252.5385, 1564.855
253.0206, 1594.055
253.5028, 1622.630
253.9849, 1650.181
254.4670, 1675.690
254.9491, 1702.687
255.4312, 1732.829
255.9133, 1764.793
256.3955, 1792.335
256.8776, 1813.607
257.3597, 1832.707
257.8418, 1852.062
258.3239, 1872.243
258.8061, 1891.026
259.2882, 1909.457
259.7703, 1926.653
260.2524, 1939.269
260.7345, 1946.969
261.2166, 1949.894
261.6988, 1947.995
262.1809, 1941.193
262.6630, 1931.367
263.1451, 1918.587
263.6272, 1902.895
264.1093, 1884.427
264.5915, 1861.707
265.0736, 1839.607
265.5557, 1821.699
266.0378, 1811.766
266.5199, 1791.952
267.0020, 1758.487
267.4842, 1718.052
267.9663, 1685.569
268.4484, 1662.758
268.9305, 1643.019
269.4126, 1624.216
269.8947, 1605.930
270.3769, 1588.460
270.8590, 1571.734
271.3411, 1555.449
271.8232, 1539.576
272.3053, 1523.958
272.7874, 1509.113
273.2696, 1495.770
273.7517, 1484.134
274.2338, 1468.423
274.7159, 1447.583
275.1980, 1424.399
275.6801, 1403.844
276.1623, 1386.802
276.6444, 1367.227
277.1265, 1342.812
277.6086, 1313.470
278.0907, 1285.798
278.5728, 1260.931
279.0550, 1234.180
279.5371, 1199.953
280.0192, 1157.952
280.5013, 1112.970
280.9834, 1065.378
281.4655, 1015.835
281.9477, 967.1689
282.4298, 919.7878
282.9119, 873.8899
283.3940, 830.3704
283.8761, 789.1626
284.3582, 747.8394
284.8404, 705.6428
285.3225, 663.0437
285.8046, 621.2294
286.2867, 580.6300
286.7688, 540.9457
287.2509, 501.0078
287.7331, 461.2810
288.2152, 426.5269
288.6973, 398.9614
289.1794, 374.6848
289.6615, 345.0084
290.1436, 309.6454
290.6258, 275.9783
291.1079, 249.8567
291.5900, 229.5804
292.0721, 207.1548
292.5542, 181.2018
293.0363, 154.8522
293.5185, 133.5216
294.0006, 116.5751
294.4827, 100.9792
294.9648, 84.72241
295.4469, 67.96741
295.9290, 51.23633
296.4112, 34.12451
296.8933, 18.20410
297.3754, 5.671021
297.8575, 3.693115
298.3396, 11.18652
298.8217, 15.63098
299.3039, 18.99097
299.7860, 24.49207
300.2681, 32.35632
300.7502, 41.19019
301.2323, 51.05371
301.7144, 60.97083
302.1966, 67.63733
302.6787, 67.40100
303.1608, 64.91394
303.6429, 66.68372
304.1250, 72.40173
304.6071, 78.16333
305.0893, 81.09375
305.5714, 81.98450
306.0535, 81.68628
306.5356, 80.69739
307.0177, 78.56836
307.4998, 73.41052
307.9820, 66.01514
308.4641, 60.33398
308.9462, 60.15198
309.4283, 62.50610
309.9104, 64.25732
310.3925, 64.84497
310.8747, 64.10645
311.3568, 61.07410
311.8389, 56.38147
312.3210, 51.78369
312.8031, 48.63171
313.2852, 45.66870
313.7674, 42.02795
314.2495, 37.51135
314.7316, 32.24585
315.2137, 24.66882
315.6958, 16.50293
316.1779, 10.70349
316.6601, 12.22839
317.1422, 13.39160
317.6243, 9.413086
318.1064, 1.000732
318.5885, 10.95337
319.0706, 16.42810
319.5528, 20.76331
320.0349, 27.75256
320.5170, 41.06506
320.9991, 54.63440
321.4812, 66.79919
321.9633, 77.49292
322.4455, 87.06030
322.9276, 93.91565
323.4097, 100.6007
323.8918, 109.0189
324.3739, 120.7681
324.8560, 132.7841
325.3382, 144.8884
325.8203, 157.0043
326.3024, 168.5732
326.7845, 179.1700
327.2666, 189.5137
327.7487, 199.9905
328.2309, 211.5522
328.7130, 221.8757
329.1951, 229.9194
329.6772, 236.7601
330.1593, 245.1801
330.6414, 257.0502
331.1236, 268.3269
331.6057, 277.6626
332.0878, 284.6960
332.5699, 291.0695
333.0520, 297.3431
333.5341, 302.6028
334.0163, 305.2783
334.4984, 304.0939
334.9805, 302.9833
335.4626, 302.9389
335.9447, 303.9774
336.4268, 305.5457
336.9090, 309.1996
337.3911, 310.9194
337.8732, 305.9588
338.3553, 292.5302
338.8374, 279.5389
339.3195, 268.1584
339.8017, 258.4420
340.2838, 250.0369
340.7659, 243.0817
341.2480, 236.7793
341.7301, 230.1083
342.2122, 223.0481
342.6944, 217.4019
343.1765, 213.6978
343.6586, 211.0076
344.1407, 207.3929
344.6228, 202.8657
345.1049, 199.1237
345.5871, 197.5960
346.0692, 197.8007
346.5513, 197.6042
347.0334, 196.7739
347.5155, 196.4525
347.9977, 198.5028
348.4798, 202.5490
348.9619, 206.8138
349.4440, 210.3454
349.9261, 213.6021
350.4082, 217.6154
350.8904, 222.4249
351.3725, 227.6676
351.8546, 233.4080
352.3367, 239.1789
352.8188, 243.8921
353.3009, 246.2339
353.7831, 248.6510
354.2652, 254.5466
354.7473, 263.2206
355.2294, 271.4303
355.7115, 275.5294
356.1936, 278.4617
356.6758, 284.1169
357.1579, 294.4042
357.6400, 304.1260
358.1221, 308.8768
358.6042, 310.2463
359.0863, 311.5621
359.5685, 313.8181
360.0506, 317.0638
360.5327, 321.4730
361.0148, 327.0674
361.4969, 334.2825
361.9790, 345.5009
362.4612, 357.3710
362.9433, 366.5745
363.4254, 368.7837
363.9075, 371.8309
364.3896, 378.9614
364.8717, 389.8049
365.3539, 399.5716
365.8360, 406.1476
366.3181, 412.1674
366.8002, 419.0745
367.2823, 429.4848
367.7644, 437.3116
368.2466, 441.8607
368.7287, 443.6942
369.2108, 444.2903
369.6929, 444.3108
370.1750, 442.6010
370.6571, 438.7091
371.1393, 432.4575
371.6214, 424.5370
372.1035, 414.5632
372.5856, 403.3164
373.0677, 392.0477
373.5498, 381.1011
374.0320, 369.1927
374.5141, 355.4398
374.9962, 340.0542
375.4783, 324.8107
375.9604, 309.8802
376.4425, 296.2405
376.9247, 284.7526
377.4068, 275.7403
377.8889, 266.7125
378.3710, 257.4260
378.8531, 248.3933
379.3352, 240.7762
379.8174, 234.6403
380.2995, 228.9686
380.7816, 223.1447
381.2637, 217.1826
381.7458, 211.9240
382.2279, 207.3574
382.7101, 203.2143
383.1922, 199.0606
383.6743, 194.8425
384.1564, 190.7021
384.6385, 186.5008
385.1206, 182.4106
385.6028, 178.9417
386.0849, 176.0481
386.5670, 172.8373
387.0491, 167.7524
387.5312, 162.0215
388.0133, 157.9058
388.4955, 157.1648
388.9776, 156.0666
389.4597, 149.9015
389.9418, 140.5001
390.4239, 133.0781
390.9060, 132.3860
391.3882, 133.4608
391.8703, 132.4070
392.3524, 128.4060
392.8345, 124.0757
393.3166, 120.2946
393.7987, 116.9905
394.2809, 114.1544
394.7630, 110.8547
395.2451, 108.9048
395.7272, 109.7159
396.2093, 113.0834
396.6914, 115.3000
397.1736, 115.7546
397.6557, 114.7401
398.1378, 112.3860
398.6199, 107.2697
399.1020, 102.6689
399.5841, 99.00848
400.0663, 95.92200
400.5484, 92.49237
401.0305, 88.27576
401.5126, 84.20135
401.9947, 80.42676
402.4768, 76.88214
402.9590, 74.22668
403.4411, 73.30444
403.9232, 72.43457
404.4053, 69.41180
404.8874, 63.40503
405.3695, 57.99146
405.8517, 53.66199
406.3338, 50.54907
406.8159, 49.41348
407.2980, 50.73636
407.7801, 51.66251
408.2622, 49.49451
408.7444, 44.54379
409.2265, 41.53128
409.7086, 41.18369
410.1907, 42.11539
410.6728, 42.41840
411.1549, 42.08923
411.6371, 41.36520
412.1192, 39.85477
412.6013, 38.22937
413.0834, 38.15985
413.5655, 39.59647
414.0476, 40.89743
414.5298, 39.92014
415.0119, 38.08276
415.4940, 37.79681
415.9761, 40.60165
416.4582, 43.88379
416.9403, 45.03000
417.4225, 44.79813
417.9046, 45.35495
418.3867, 48.50110
418.8688, 52.40228
419.3509, 55.85052
419.8330, 58.70651
420.3152, 61.28625
420.7973, 62.75613
421.2794, 64.38486
421.7615, 67.62674
422.2436, 75.22153
422.7257, 81.94293
423.2079, 85.60574
423.6900, 86.53336
424.1721, 89.41312
424.6542, 97.11163
425.1363, 104.9409
425.6184, 110.5921
426.1006, 111.5741
426.5827, 114.7568
427.0648, 120.8834
427.5469, 128.8209
428.0290, 136.7001
428.5111, 144.9164
428.9933, 152.2206
429.4754, 157.5321
429.9575, 160.9811
430.4396, 166.6015
430.9217, 175.3140
431.4038, 183.5856
431.8860, 187.6202
432.3681, 187.4688
432.8502, 188.0927
433.3323, 190.5351
433.8144, 193.6168
434.2965, 195.2331
434.7787, 195.4026
435.2608, 194.7579
435.7429, 193.2798
436.2250, 191.2825
436.7071, 189.3945
437.1892, 187.6720
437.6714, 186.3932
438.1535, 185.7841
438.6356, 185.6995
439.1177, 185.9236
439.5998, 186.3334
440.0819, 187.0762
440.5641, 188.6481
441.0462, 190.8026
441.5283, 192.5963
442.0104, 193.2024
442.4925, 193.4652
442.9746, 193.9383
443.4568, 194.7428
443.9389, 195.3956
444.4210, 195.9967
444.9031, 196.2798
445.3852, 195.9307
445.8673, 193.2712
446.3495, 191.7293
446.8316, 193.0029
447.3137, 196.7391
447.7958, 198.0614
448.2779, 195.2534
448.7600, 191.9982
449.2422, 190.1832
449.7243, 190.4604
450.2064, 189.9829
450.6885, 188.9399
451.1706, 187.0034
451.6527, 183.2077
452.1349, 176.9910
452.6170, 171.8259
453.0991, 169.3050
453.5812, 168.7206
454.0633, 165.7675
454.5454, 160.0535
455.0276, 154.8596
455.5097, 153.8149
455.9918, 155.9726
456.4739, 156.5299
456.9560, 154.7145
457.4381, 151.3499
457.9203, 146.6285
458.4024, 141.1422
458.8845, 136.7337
459.3666, 135.2651
459.8488, 134.7885
460.3309, 133.3001
460.8130, 130.7921
461.2951, 127.7015
461.7772, 123.6639
462.2593, 119.3962
462.7415, 115.7704
463.2236, 113.6965
463.7057, 111.0393
464.1878, 105.9702
464.6699, 99.89105
465.1520, 95.44519
465.6342, 95.14917
466.1163, 94.80841
466.5984, 92.73938
467.0805, 88.58694
467.5626, 85.66632
468.0447, 85.54703
468.5269, 85.47470
469.0090, 83.44806
469.4911, 78.01169
469.9732, 73.55432
470.4553, 70.54584
470.9374, 68.53864
471.4196, 66.75671
471.9017, 65.47205
472.3838, 63.28259
472.8659, 59.15198
473.3480, 53.38989
473.8301, 49.23853
474.3123, 46.82257
474.7944, 45.10547
475.2765, 43.48779
475.7586, 41.85669
476.2407, 39.62427
476.7228, 36.53894
477.2050, 33.14508
477.6871, 29.93182
478.1692, 26.95154
478.6513, 24.42676
479.1334, 22.63550
479.6155, 21.26630
480.0977, 19.98047
480.5798, 18.76038
481.0619, 17.96344
481.5440, 18.81268
482.0261, 19.62128
482.5082, 18.77014
482.9904, 14.13824
483.4725, 10.39325
483.9546, 10.05597
484.4367, 11.44922
484.9188, 10.95776
485.4009, 5.323792
485.8831, 0.5672610
486.3652, 1.411011
486.8473, 0.4160160
487.3294, 0.2396240
487.8115, 0.4614870
488.2936, 0.4558720
488.7758, 0.5653080
489.2579, 1.132629
489.7400, 0.2397460
490.2221, 2.877747
490.7042, 6.773010
491.1863, 8.530518
491.6685, 8.052124
492.1506, 7.109375
492.6327, 6.309509
493.1148, 5.598816
493.5969, 4.813538
494.0790, 3.904358
494.5612, 3.701721
495.0433, 5.705750
495.5254, 8.713623
496.0075, 10.28107
496.4896, 9.736877
496.9717, 8.473267
497.4539, 7.369080
497.9360, 6.517517
498.4181, 6.239380
498.9002, 7.149231
499.3823, 8.194031
499.8644, 8.953369
500.3466, 9.373840
500.8287, 9.358521
501.3108, 8.406738
501.7929, 7.340820
502.2750, 6.643799
502.7571, 6.402405
503.2393, 6.344055
503.7214, 6.501343
504.2035, 6.820618
504.6856, 7.122437
505.1677, 7.085144
505.6498, 7.810669
506.1320, 10.04370
506.6141, 13.21002
507.0962, 14.00500
507.5783, 11.95941
508.0604, 9.546021
508.5425, 8.037964
509.0247, 7.430298
509.5068, 7.907898
509.9889, 9.697021
510.4710, 11.57147
510.9531, 12.07318
511.4352, 11.49078
511.9174, 10.65814
512.3995, 9.565491
512.8816, 8.679626
513.3637, 8.650818
513.8458, 9.198486
514.3279, 9.485840
514.8101, 8.844604
515.2922, 7.941101
515.7743, 7.246155
516.2564, 6.817932
516.7385, 6.284668
517.2206, 5.549988
517.7028, 4.658997
518.1849, 3.674744
518.6670, 3.488342
519.1491, 2.094604
519.6312, 1.800476
520.1133, 6.709106
520.5955, 9.516907
521.0776, 8.928650
521.5597, 8.451355
522.0418, 8.885803
522.5239, 10.26166
523.0060, 13.15936
523.4882, 18.01929
523.9703, 22.98071
524.4524, 26.93909
524.9345, 29.78906
525.4166, 30.64655
525.8987, 29.07141
526.3809, 27.00317
526.8630, 26.83832
527.3451, 28.27490
527.8272, 30.37952
528.3093, 33.53900
528.7914, 36.69653
529.2736, 38.43207
529.7557, 39.14777
530.2378, 40.27014
530.7199, 43.48260
531.2020, 46.82349
531.6841, 48.47723
532.1663, 47.74091
532.6484, 48.25214
533.1305, 52.18420
533.6126, 57.27185
534.0947, 61.49585
534.5768, 63.66064
535.0590, 66.17334
535.5411, 69.01111
536.0232, 72.30859
536.5053, 76.43835
536.9874, 81.80579
537.4695, 86.60107
537.9517, 89.53345
538.4338, 90.91479
538.9159, 94.70300
539.3980, 101.2712
539.8801, 107.9329
540.3622, 112.1560
540.8444, 114.2595
541.3265, 115.6150
541.8086, 116.0714
542.2907, 117.8196
542.7728, 125.1088
543.2549, 135.4117
543.7371, 143.1637
544.2192, 143.4885
544.7013, 143.0468
545.1834, 146.7438
545.6655, 153.7382
546.1476, 160.3557
546.6298, 163.4410
547.1119, 167.1931
547.5940, 174.0352
548.0761, 184.9766
548.5582, 195.3101
549.0403, 205.5402
549.5225, 214.9186
550.0046, 222.2699
550.4867, 225.6583
550.9688, 231.3021
551.4509, 240.4354
551.9330, 251.6072
552.4152, 261.1801
552.8973, 268.8002
553.3794, 276.7297
553.8615, 285.9705
554.3436, 296.3793
554.8257, 307.5411
555.3079, 319.2823
555.7900, 330.5286
556.2721, 338.9414
556.7542, 346.4877
557.2363, 356.7133
557.7184, 370.3710
558.2006, 384.7291
558.6827, 398.3890
559.1648, 411.3846
559.6469, 424.0376
560.1290, 435.4482
560.6111, 447.3455
561.0933, 459.4994
561.5754, 472.3807
562.0575, 487.1398
562.5396, 506.4620
563.0217, 525.0671
563.5038, 541.0249
563.9860, 554.1477
564.4681, 569.3739
564.9502, 587.2355
565.4323, 606.7239
565.9144, 626.8138
566.3965, 647.5546
566.8787, 669.0642
567.3608, 691.2498
567.8429, 713.6157
568.3250, 734.4158
568.8071, 754.2764
569.2892, 774.7297
569.7714, 795.7631
570.2535, 817.9677
570.7356, 841.6404
571.2177, 866.9451
571.6998, 892.9269
572.1819, 921.1169
572.6641, 949.1204
573.1462, 974.3472
573.6283, 996.8357
574.1104, 1021.354
574.5925, 1051.787
575.0746, 1083.306
575.5568, 1113.103
576.0389, 1137.623
576.5210, 1165.542
577.0031, 1199.291
577.4852, 1235.098
577.9673, 1267.508
578.4495, 1295.411
578.9316, 1325.303
579.4137, 1359.045
579.8958, 1395.107
580.3779, 1431.371
580.8600, 1467.685
581.3422, 1503.847
581.8243, 1538.920
582.3064, 1574.063
582.7885, 1611.011
583.2706, 1649.893
583.7527, 1689.311
584.2349, 1729.503
584.7170, 1769.491
585.1991, 1808.291
585.6812, 1846.400
586.1633, 1882.268
586.6454, 1909.976
587.1276, 1937.126
587.6097, 1972.539
588.0918, 2031.773
588.5739, 2082.636
589.0560, 2117.063
589.5381, 2140.746
590.0203, 2170.757
590.5024, 2210.790
590.9845, 2250.284
591.4666, 2284.700
591.9487, 2314.627
592.4308, 2345.557
592.9130, 2378.011
593.3951, 2409.839
593.8772, 2438.303
594.3593, 2464.129
594.8414, 2489.993
595.3235, 2516.098
595.8057, 2541.406
596.2878, 2565.090
596.7699, 2587.347
597.2520, 2607.998
597.7341, 2627.315
598.2162, 2644.008
598.6984, 2658.206
599.1805, 2669.173
599.6626, 2676.175
600.1447, 2676.139
600.6268, 2675.816
601.1089, 2677.518
601.5911, 2680.405
602.0732, 2679.285
602.5553, 2674.746
603.0374, 2666.986
603.5195, 2655.296
604.0016, 2639.261
604.4838, 2621.985
604.9659, 2603.618
605.4480, 2584.347
605.9301, 2565.957
606.4122, 2546.979
606.8943, 2522.065
607.3765, 2489.185
607.8586, 2453.426
608.3407, 2420.318
608.8228, 2388.198
609.3049, 2354.761
609.7870, 2318.252
610.2692, 2280.490
610.7513, 2242.060
611.2334, 2202.956
611.7155, 2163.328
612.1976, 2123.829
612.6797, 2082.524
613.1619, 2037.902
613.6440, 1989.263
614.1261, 1944.987
614.6082, 1906.766
615.0903, 1868.816
615.5724, 1826.875
616.0546, 1781.087
616.5367, 1732.554
617.0188, 1680.807
617.5009, 1629.615
617.9830, 1584.425
618.4651, 1543.448
618.9473, 1501.305
619.4294, 1455.998
619.9115, 1410.709
620.3936, 1368.858
620.8757, 1328.858
621.3578, 1287.119
621.8400, 1238.035
622.3221, 1190.858
622.8042, 1151.274
623.2863, 1117.998
623.7684, 1083.203
624.2505, 1044.521
624.7327, 1005.864
625.2148, 968.6353
625.6969, 932.8101
626.1790, 898.6536
626.6611, 867.1106
627.1432, 835.5187
627.6254, 800.6581
628.1075, 763.0911
628.5896, 729.8862
629.0717, 702.4987
629.5538, 676.6528
630.0359, 647.2142
630.5181, 616.0133
631.0002, 586.2620
631.4823, 559.2640
631.9644, 533.5483
632.4465, 508.4902
632.9286, 483.8621
633.4108, 459.5723
633.8929, 434.8230
634.3750, 410.9012
634.8571, 387.9711
635.3392, 365.9006
635.8214, 344.7783
636.3035, 324.3625
636.7856, 304.9016
637.2677, 286.7129
637.7498, 269.8191
638.2319, 251.7524
638.7141, 232.0413
639.1962, 212.7693
639.6783, 195.5326
640.1604, 179.9536
640.6425, 165.0391
641.1246, 150.5824
641.6068, 136.9564
642.0889, 125.3632
642.5710, 114.5380
643.0531, 102.7317
643.5352, 87.86731
644.0173, 74.51038
644.4995, 65.89355
644.9816, 59.69775
645.4637, 51.63062
645.9458, 38.81555
646.4279, 26.88904
646.9100, 16.85620
647.3922, 8.303711
647.8743, 0.2188720
648.3564, 9.391602
648.8385, 16.53625
649.3206, 19.31213
649.8027, 19.10767
650.2849, 23.42236
650.7670, 32.12805
651.2491, 40.06531
651.7312, 42.06067
652.2133, 41.26147
652.6954, 42.04968
653.1776, 44.89136
653.6597, 48.73669
654.1418, 55.31909
654.6239, 61.33459
655.1060, 63.69434
655.5881, 60.12415
656.0703, 55.98474
656.5524, 50.70410
657.0345, 45.87805
657.5166, 44.10510
657.9987, 48.00171
658.4808, 47.28149
658.9630, 38.29663
659.4451, 26.15442
659.9272, 23.73267
660.4093, 30.61230
660.8914, 35.20215
661.3735, 31.98181
661.8557, 24.48389
662.3378, 17.95215
662.8199, 12.07288
663.3020, 5.635986
663.7841, 3.369629
664.2662, 12.24658
664.7484, 17.88867
665.2305, 20.15759
665.7126, 25.94482
666.1947, 40.72009
666.6768, 56.32849
667.1589, 68.06799
667.6411, 74.31653
668.1232, 83.01941
668.6053, 94.89038
669.0874, 107.8297
669.5695, 119.3900
670.0516, 129.6545
670.5338, 142.4545
671.0159, 158.6586
671.4980, 175.5609
671.9801, 189.4324
672.4622, 201.3403
672.9443, 213.3086
673.4265, 225.9287
673.9086, 239.1575
674.3907, 253.1565
674.8728, 267.9905
675.3549, 283.5072
675.8370, 300.8519
676.3192, 318.0620
676.8013, 333.2612
677.2834, 347.7687
677.7655, 366.4385
678.2476, 391.1937
678.7297, 415.2683
679.2119, 434.8688
679.6940, 451.3877
680.1761, 473.2268
680.6582, 500.3917
681.1403, 528.8124
681.6224, 556.5020
682.1046, 583.2405
682.5867, 607.1794
683.0688, 628.3967
683.5509, 650.6851
684.0330, 675.6707
684.5151, 703.5280
684.9973, 735.4634
685.4794, 774.2317
685.9615, 810.0092
686.4436, 839.3877
686.9257, 866.7366
687.4078, 894.7991
687.8900, 922.2461
688.3721, 955.8777
688.8542, 997.1157
689.3363, 1042.344
689.8184, 1085.792
690.3005, 1127.456
690.7827, 1168.666
691.2648, 1209.206
691.7469, 1250.019
692.2290, 1289.358
692.7111, 1329.741
693.1932, 1375.711
693.6754, 1432.070
694.1575, 1491.731
694.6396, 1551.611
695.1217, 1611.741
695.6038, 1674.057
696.0859, 1735.702
696.5681, 1802.020
697.0502, 1875.451
697.5323, 1955.275
698.0144, 2034.003
698.4965, 2110.937
698.9786, 2190.104
699.4608, 2273.585
699.9429, 2361.636
700.4250, 2452.713
700.9071, 2547.256
701.3892, 2646.387
701.8713, 2750.023
702.3535, 2859.280
702.8356, 2976.291
703.3177, 3102.457
703.7998, 3230.712
704.2819, 3359.663
704.7640, 3489.907
705.2462, 3621.894
705.7283, 3750.573
706.2104, 3888.487
706.6925, 4038.814
707.1746, 4194.458
707.6567, 4347.438
708.1389, 4496.528
708.6210, 4649.896
709.1031, 4810.774
709.5852, 4972.684
710.0673, 5127.783
710.5494, 5276.038
711.0316, 5421.632
711.5137, 5563.695
711.9958, 5704.085
712.4779, 5848.156
712.9600, 5992.817
713.4421, 6129.943
713.9243, 6259.069
714.4064, 6380.936
714.8885, 6496.360
715.3706, 6604.873
715.8527, 6701.226
716.3348, 6784.219
716.8170, 6860.245
717.2991, 6931.326
717.7812, 6995.949
718.2633, 7049.260
718.7454, 7091.609
719.2275, 7120.560
719.7097, 7133.592
720.1918, 7133.954
720.6739, 7125.080
721.1560, 7106.997
721.6381, 7078.759
722.1202, 7037.029
722.6024, 6987.031
723.0845, 6931.683
723.5666, 6871.333
724.0487, 6803.669
724.5308, 6728.116
725.0129, 6645.256
725.4951, 6553.644
725.9772, 6452.147
726.4593, 6355.684
726.9414, 6265.452
727.4235, 6171.967
727.9056, 6062.987
728.3878, 5945.313
728.8699, 5832.356
729.3520, 5725.396
729.8341, 5619.859
730.3162, 5512.432
730.7983, 5404.974
731.2805, 5297.835
731.7626, 5190.405
732.2447, 5085.181
732.7268, 4986.018
733.2089, 4886.754
733.6910, 4778.989
734.1732, 4659.765
734.6553, 4546.692
735.1374, 4443.889
735.6195, 4345.828
736.1016, 4246.035
736.5837, 4144.643
737.0659, 4042.303
737.5480, 3939.392
738.0301, 3834.728
738.5122, 3726.650
738.9943, 3617.149
739.4764, 3510.507
739.9586, 3409.995
740.4407, 3310.455
740.9228, 3209.912
741.4049, 3109.724
741.8870, 3012.346
742.3691, 2920.792
742.8513, 2829.671
743.3334, 2737.077
743.8155, 2644.522
744.2976, 2556.000
744.7797, 2470.896
745.2618, 2388.867
745.7440, 2309.678
746.2261, 2233.124
746.7082, 2156.101
747.1903, 2080.015
747.6724, 2008.328
748.1545, 1945.026
748.6367, 1884.038
749.1188, 1822.374
749.6009, 1759.365
750.0830, 1697.519
750.5651, 1634.986
751.0472, 1576.364
751.5294, 1525.288
752.0115, 1479.983
752.4936, 1432.126
752.9757, 1381.724
753.4578, 1331.932
753.9399, 1284.471
754.4221, 1239.724
754.9042, 1201.356
755.3863, 1169.005
755.8684, 1136.144
756.3505, 1095.980
756.8326, 1055.931
757.3148, 1021.574
757.7969, 994.8750
758.2790, 965.4885
758.7611, 930.9928
759.2432, 896.3512
759.7253, 864.4360
760.2075, 834.9666
760.6896, 809.0469
761.1717, 786.7454
761.6538, 764.8613
762.1359, 739.7299
762.6180, 712.8506
763.1002, 687.1232
763.5823, 663.0135
764.0644, 639.6011
764.5465, 614.4104
765.0286, 590.3302
765.5107, 570.8718
765.9929, 559.7731
766.4750, 544.8250
766.9571, 523.3394
767.4392, 500.5710
767.9213, 481.1339
768.4034, 465.0892
768.8856, 450.5800
769.3677, 437.9160
769.8498, 425.2599
770.3319, 410.3687
770.8140, 394.1421
771.2961, 377.6459
771.7783, 360.6564
772.2604, 344.6385
772.7425, 330.2186
773.2246, 317.3528
773.7067, 305.7792
774.1888, 297.4614
774.6710, 286.7969
775.1531, 271.9772
775.6352, 256.9501
776.1173, 247.3455
776.5994, 243.2467
777.0815, 237.6390
777.5637, 229.4226
778.0458, 219.3805
778.5279, 206.9901
779.0100, 193.7637
779.4921, 182.4453
779.9742, 174.6842
780.4564, 167.4631
780.9385, 159.8785
781.4206, 151.8022
781.9027, 142.9001
782.3848, 132.4049
782.8669, 122.6852
783.3491, 113.9318
783.8312, 105.9122
784.3133, 98.09949
784.7954, 90.60815
785.2775, 85.21692
785.7596, 83.10748
786.2418, 81.48767
786.7239, 76.95343
787.2060, 70.53009
787.6881, 63.72876
788.1702, 56.77948
788.6523, 50.45703
789.1345, 44.66278
789.6166, 39.93414
790.0987, 37.10229
790.5808, 38.17096
791.0629, 36.64471
791.5450, 30.82379
792.0272, 23.13171
792.5093, 18.80365
792.9914, 17.29028
793.4735, 15.23389
793.9556, 11.38660
794.4377, 6.934631
794.9199, 2.317566
795.4020, 1.931213
795.8841, 4.509338
796.3662, 4.346741
796.8483, 3.389343
797.3304, 1.104370
797.8126, 1.349915
798.2947, 2.139160
798.7768, 1.142395
799.2589, 1.473999
799.7410, 6.256042
800.2231, 11.69293
800.7053, 15.24280
801.1874, 17.00879
801.6695, 17.37897
802.1516, 15.16602
802.6337, 13.60333
803.1158, 16.86084
803.5980, 22.32227
804.0801, 25.72412
804.5622, 24.44574
805.0443, 22.55487
805.5264, 20.63239
806.0085, 18.56812
806.4907, 15.71185
806.9728, 11.62616
807.4549, 9.943665
807.9370, 12.08807
808.4191, 15.80261
808.9012, 17.26721
809.3834, 17.29523
809.8655, 18.16827
810.3476, 22.05365
810.8297, 25.12701
811.3118, 23.90186
811.7939, 20.61096
812.2761, 19.05762
812.7582, 22.50153
813.2403, 23.34406
813.7224, 19.44183
814.2045, 13.79089
814.6866, 12.57770
815.1688, 15.63031
815.6509, 17.20728
816.1330, 15.60254
816.6151, 12.67645
817.0972, 10.06213
817.5793, 7.963074
818.0615, 6.829102
818.5436, 7.549194
819.0257, 8.232361
819.5078, 8.211182
819.9899, 7.754639
820.4720, 7.401184
820.9542, 7.676819
821.4363, 6.253845
821.9184, 1.955627
822.4005, 2.543701
822.8826, 1.933960
823.3647, 2.503662
823.8469, 4.846130
824.3290, 3.327393
824.8111, 0.3069460
825.2932, 2.963867
825.7753, 6.172668
826.2574, 8.921631
826.7396, 11.92169
827.2217, 13.18115
827.7038, 11.16217
828.1859, 8.524170
828.6681, 8.757813
829.1502, 12.36877
829.6323, 14.41754
830.1144, 13.92914
830.5966, 12.97058
831.0787, 13.79578
831.5608, 15.97723
832.0429, 18.85492
832.5250, 22.66852
833.0071, 25.84729
833.4893, 26.95215
833.9714, 27.34192
834.4535, 28.49591
834.9356, 31.41339
835.4177, 32.93524
835.8998, 32.35333
836.3820, 31.72150
836.8641, 33.80151
837.3462, 38.04736
837.8283, 40.53308
838.3104, 40.73016
838.7925, 40.18707
839.2747, 39.85388
839.7568, 39.69598
840.2389, 39.59595
840.7210, 39.40332
841.2031, 39.71188
841.6852, 40.70599
842.1674, 42.17432
842.6495, 44.18829
843.1316, 46.93808
843.6137, 48.52615
844.0958, 48.67905
844.5779, 49.17343
845.0601, 52.77332
845.5422, 57.43243
846.0243, 59.05002
846.5064, 57.26068
846.9885, 55.25073
847.4706, 53.58728
847.9528, 53.16132
848.4349, 55.25189
848.9170, 60.38800
849.3991, 63.19116
849.8812, 62.79050
850.3633, 62.16782
850.8455, 63.12866
851.3276, 65.38834
851.8097, 67.69574
852.2918, 69.99673
852.7739, 71.68576
853.2560, 71.62592
853.7382, 71.24478
854.2203, 71.86359
854.7024, 73.45905
855.1845, 74.85968
855.6666, 75.04312
856.1487, 75.96774
856.6309, 78.75125
857.1130, 82.78357
857.5951, 84.43491
858.0772, 83.48883
858.5593, 82.47223
859.0414, 83.08249
859.5236, 84.20187
860.0057, 83.95685
860.4878, 82.83618
860.9699, 82.20627
861.4520, 84.38730
861.9341, 85.23773
862.4163, 82.36142
862.8984, 77.43954
863.3805, 74.58112
863.8626, 73.91592
864.3447, 75.05014
864.8268, 78.64389
865.3090, 82.73694
865.7911, 83.14105
866.2732, 80.77621
866.7553, 78.80048
867.2374, 78.39456
867.7195, 78.69751
868.2017, 79.69281
868.6838, 80.77884
869.1659, 81.06058
869.6480, 79.70816
870.1301, 79.50839
870.6122, 80.90643
871.0944, 82.57822
871.5765, 82.49448
872.0586, 81.11899
872.5407, 80.12735
873.0228, 79.59824
873.5049, 79.40891
873.9871, 80.10059
874.4692, 81.05542
874.9513, 81.39871
875.4334, 80.48886
875.9155, 79.95590
876.3976, 79.67447
876.8798, 79.84641
877.3619, 80.87305
877.8440, 82.81711
878.3261, 84.37289
878.8082, 85.47180
879.2903, 86.15024
879.7725, 85.58807
880.2546, 85.28900
880.7367, 87.61188
881.2188, 92.60202
881.7009, 95.50839
882.1830, 92.69513
882.6652, 89.85303
883.1473, 90.02756
883.6294, 93.02563
884.1115, 93.71912
884.5936, 91.68616
885.0757, 90.14883
885.5579, 91.19305
886.0400, 93.70343
886.5221, 96.41776
887.0042, 99.16199
887.4863, 100.8138
887.9684, 98.97125
888.4506, 97.72083
888.9327, 99.34222
889.4148, 103.0745
889.8969, 106.4836
890.3790, 109.8081
890.8611, 111.7452
891.3433, 111.3730
891.8254, 110.2627
892.3075, 111.4321
892.7896, 114.4259
893.2717, 117.7115
893.7538, 120.4813
894.2360, 123.8253
894.7181, 129.0995
895.2002, 135.0692
895.6823, 139.7349
896.1644, 141.9927
896.6465, 145.1955
897.1287, 149.7794
897.6108, 154.8486
898.0929, 159.2237
898.5750, 163.0730
899.0571, 166.9337
899.5392, 170.8789
900.0214, 175.2008
900.5035, 180.8078
900.9856, 186.4875
901.4677, 191.2040
901.9498, 194.4672
902.4319, 197.4611
902.9141, 199.8667
903.3962, 202.7149
903.8783, 206.7273
904.3604, 211.7621
904.8425, 216.9406
905.3246, 222.3554
905.8068, 228.4697
906.2889, 235.3210
906.7710, 243.3338
907.2531, 253.6393
907.7352, 265.8042
908.2173, 276.5543
908.6995, 282.2191
909.1816, 291.6737
909.6637, 307.8387
910.1458, 329.0097
910.6279, 349.2063
911.1100, 368.8871
911.5922, 392.3005
912.0743, 422.0830
912.5564, 455.2482
913.0385, 488.9990
913.5206, 524.1074
914.0027, 562.4903
914.4849, 603.9786
914.9670, 649.8957
915.4491, 699.8669
915.9312, 754.5079
916.4133, 814.2200
916.8954, 879.3611
917.3776, 951.2288
917.8597, 1030.474
918.3418, 1115.265
918.8239, 1203.398
919.3060, 1296.418
919.7881, 1395.113
920.2703, 1498.958
920.7524, 1614.486
921.2345, 1746.469
921.7166, 1884.254
922.1987, 2024.166
922.6808, 2165.747
923.1630, 2302.847
923.6451, 2435.897
924.1272, 2554.905
924.6093, 2661.572
925.0914, 2745.136
925.5735, 2796.592
926.0557, 2815.012
926.5378, 2800.129
927.0199, 2746.927
927.5020, 2662.818
927.9841, 2542.853
928.4662, 2396.127
928.9484, 2240.593
929.4305, 2076.329
929.9126, 1915.657
930.3947, 1762.059
930.8768, 1617.485
931.3589, 1486.955
931.8411, 1367.404
932.3232, 1256.482
932.8053, 1152.117
933.2874, 1060.090
933.7695, 983.0228
934.2516, 915.8340
934.7338, 856.2805
935.2159, 803.6386
935.6980, 752.3043
936.1801, 701.9305
936.6622, 654.9318
937.1443, 612.6513
937.6265, 574.9290
938.1086, 543.0962
938.5907, 516.9738
939.0728, 492.4589
939.5549, 469.8963
940.0370, 447.9710
940.5192, 426.0365
941.0013, 404.3961
941.4834, 385.1098
941.9655, 367.9629
942.4476, 352.3697
942.9297, 338.9699
943.4119, 325.9763
943.8940, 311.0917
944.3761, 295.6702
944.8582, 282.4897
945.3403, 274.0511
945.8224, 265.0648
946.3046, 254.8158
946.7867, 244.1893
947.2688, 234.5177
947.7509, 225.7001
948.2330, 217.3794
948.7151, 209.4789
949.1973, 202.7194
949.6794, 198.2433
950.1615, 194.5809
950.6436, 190.6218
951.1257, 186.3673
951.6078, 181.2639
952.0900, 174.4980
952.5721, 168.6077
953.0542, 165.7695
953.5363, 164.9347
954.0184, 161.3596
954.5005, 155.4490
954.9827, 149.4615
955.4648, 144.2338
955.9469, 139.7252
956.4290, 136.1983
956.9111, 133.4217
957.3932, 130.7716
957.8754, 128.5224
958.3575, 125.5677
958.8396, 121.5500
959.3217, 117.0172
959.8038, 113.3848
960.2859, 110.0435
960.7681, 105.1284
961.2502, 97.76773
961.7323, 90.35663
962.2144, 83.40610
962.6965, 77.59021
963.1786, 73.83521
963.6608, 72.69107
964.1429, 69.88495
964.6250, 65.13062
965.1071, 60.25351
965.5892, 56.42975
966.0714, 53.43127
966.5535, 50.82623
967.0356, 48.54733
967.5177, 46.19086
967.9998, 43.35815
968.4819, 40.67932
968.9641, 38.37140
969.4462, 36.35144
969.9283, 34.46024
970.4104, 32.71967
970.8925, 30.74551
971.3746, 28.27863
971.8568, 25.98032
972.3389, 24.89914
972.8210, 24.39890
973.3031, 23.48532
973.7852, 21.77252
974.2673, 20.10931
974.7495, 18.65656
975.2316, 17.25473
975.7137, 15.72021
976.1958, 14.04175
976.6779, 12.90308
977.1600, 12.28680
977.6422, 11.96628
978.1243, 12.61694
978.6064, 12.79437
979.0885, 10.47369
979.5706, 6.319885
980.0527, 3.560272
980.5349, 3.565918
981.0170, 3.499298
981.4991, 2.740295
981.9812, 1.676453
982.4633, 1.138672
982.9454, 1.008270
983.4276, 0.7702030
983.9097, 0.3167720
984.3918, 0.3842770
984.8739, 1.544067
985.3560, 2.869537
985.8381, 4.148499
986.3203, 5.521820
986.8024, 6.049164
987.2845, 5.424683
987.7666, 5.017303
988.2487, 6.515228
988.7308, 8.680878
989.2130, 8.395508
989.6951, 6.068146
990.1772, 3.903625
990.6593, 2.364594
991.1414, 1.839264
991.6235, 3.314880
992.1057, 5.622131
992.5878, 6.050537
993.0699, 4.325867
993.5520, 3.975708
994.0341, 6.066772
994.5162, 8.384583
994.9984, 8.366028
995.4805, 6.945923
995.9626, 5.074829
996.4447, 2.404907
996.9268, 1.604706
997.4089, 4.519196
997.8911, 7.297607
998.3732, 7.673950
998.8553, 5.953339
999.3374, 4.382935
999.8195, 2.967590
1000.302, 1.678619
1000.784, 0.1051330
1001.266, 0.9906310
1001.748, 0.8803710
1002.230, 9.4391003E-02
1002.712, 1.092377
1003.194, 2.323944
1003.676, 2.870331
1004.159, 2.523895
1004.641, 1.707886
1005.123, 0.6082460
1005.605, 0.4436950
1006.087, 0.3975520
1006.569, 1.074249
1007.051, 1.950012
1007.533, 0.7159120
1008.016, 0.8763430
1008.498, 1.893890
1008.980, 2.344543
1009.462, 2.424957
1009.944, 2.115875
1010.426, 1.678375
1010.908, 1.153656
1011.390, 0.6883540
1011.872, 0.3682560
1012.355, 0.2564390
1012.837, 0.4247130
1013.319, 1.281128
1013.801, 1.888733
1014.283, 2.201385
1014.765, 2.227142
1015.247, 1.754547
1015.729, 0.9370730
1016.211, 0.7611080
1016.694, 1.298706
1017.176, 1.957550
1017.658, 1.950745
1018.140, 2.253418
1018.622, 4.212372
1019.104, 7.429138
1019.586, 8.079132
1020.068, 5.312042
1020.551, 3.633911
1021.033, 4.886993
1021.515, 7.171997
1021.997, 7.210388
1022.479, 6.017151
1022.961, 5.527557
1023.443, 6.438324
1023.925, 7.812836
1024.407, 10.20334
1024.890, 12.20404
1025.372, 12.67599
1025.854, 11.62402
1026.336, 10.34955
1026.818, 8.861755
1027.300, 7.709763
1027.782, 7.275330
1028.264, 7.302811
1028.746, 7.661316
1029.229, 8.322205
1029.711, 9.229218
1030.193, 10.59340
1030.675, 11.60312
1031.157, 12.02113
1031.639, 12.25302
1032.121, 13.24344
1032.603, 14.44351
1033.086, 14.32983
1033.568, 12.43121
1034.050, 10.92235
1034.532, 11.30946
1035.014, 11.82259
1035.496, 11.35048
1035.978, 10.04594
1036.460, 9.668732
1036.943, 10.21378
1037.425, 10.67616
1037.907, 10.14415
1038.389, 9.909378
1038.871, 11.97556
1039.353, 14.99625
1039.835, 16.56288
1040.317, 15.37012
1040.799, 14.28723
1041.281, 13.28166
1041.764, 12.64609
1042.246, 12.93954
1042.728, 13.75272
1043.210, 13.91795
1043.692, 13.42502
1044.174, 13.07796
1044.656, 13.77063
1045.138, 14.25980
1045.621, 13.70328
1046.103, 12.54555
1046.585, 12.36845
1047.067, 13.33833
1047.549, 13.82080
1048.031, 13.19463
1048.513, 12.46243
1048.995, 12.92438
1049.478, 13.60126
1049.960, 13.31787
1050.442, 11.63535
1050.924, 10.63368
1051.406, 10.54640
1051.888, 10.22452
1052.370, 8.835388
1052.852, 7.015808
1053.334, 5.976959
1053.817, 5.733688
1054.299, 6.300079
1054.781, 8.698410
1055.263, 10.22966
1055.745, 9.412125
1056.227, 7.995316
1056.709, 8.040894
1057.191, 9.559479
1057.673, 10.73723
1058.156, 11.44792
1058.638, 11.60777
1059.120, 10.57951
1059.602, 9.249023
1060.084, 8.525757
1060.566, 8.376740
1061.048, 7.887512
1061.530, 6.827179
1062.013, 6.148438
1062.495, 6.052704
1062.977, 6.605438
1063.459, 8.668060
1063.941, 11.18440
1064.423, 12.00974
1064.905, 10.27844
1065.387, 8.584946
1065.870, 7.757751
1066.352, 7.052612
1066.834, 5.762863
1067.316, 4.174484
1067.798, 5.324371
1068.280, 8.766418
1068.762, 10.62067
1069.244, 6.557571
1069.726, 2.784103
1070.208, 4.573624
1070.691, 8.827774
1071.173, 10.47961
1071.655, 8.699066
1072.137, 6.808609
1072.619, 4.827972
1073.101, 3.356598
1073.583, 3.207031
1074.065, 3.751480
1074.548, 4.371063
1075.030, 4.989349
1075.512, 5.201157
1075.994, 4.115479
1076.476, 3.877853
1076.958, 5.207108
1077.440, 7.143555
1077.922, 7.910660
1078.405, 7.768417
1078.887, 7.700317
1079.369, 7.943680
1079.851, 7.746902
1080.333, 6.137177
1080.815, 4.471329
1081.297, 3.590469
1081.779, 3.446350
1082.261, 3.692535
1082.744, 4.319473
1083.226, 4.693832
1083.708, 4.210175
1084.190, 3.841629
1084.672, 4.904327
1085.154, 6.506561
1085.636, 7.309204
1086.118, 6.997467
1086.601, 6.235992
1087.083, 4.871246
1087.565, 3.625275
1088.047, 2.897293
1088.529, 2.742371
1089.011, 3.815659
1089.493, 5.712524
1089.975, 6.801514
1090.458, 5.853333
1090.940, 4.799896
1091.422, 3.797531
1091.904, 3.112030
1092.386, 3.241318
1092.868, 4.061493
1093.350, 5.322815
1093.832, 7.019135
1094.314, 7.880035
1094.797, 6.371017
1095.279, 4.496704
1095.761, 3.396225
1096.243, 2.930023
1096.725, 2.168243
1097.207, 1.082565
1097.689, 1.437439
1098.171, 4.377563
1098.653, 7.128189
1099.136, 6.178757
1099.618, 3.941833
1100.100, 3.380066
1100.582, 5.499466
1101.064, 5.894791
1101.546, 3.995071
1102.028, 2.426315
1102.510, 2.882797
1102.993, 4.335083
1103.475, 5.064880
1103.957, 5.276871
1104.439, 5.527252
1104.921, 6.629471
1105.403, 6.757629
1105.885, 5.276169
1106.367, 3.608322
1106.849, 3.244308
1107.332, 3.852570
1107.814, 4.011368
1108.296, 3.755707
1108.778, 3.795761
1109.260, 5.518448
1109.742, 6.436386
1110.224, 4.706528
1110.706, 2.087357
1111.188, 1.674118
1111.671, 3.304779
1112.153, 4.160248
1112.635, 3.809891
1113.117, 3.375504
1113.599, 4.128632
1114.081, 4.865814
1114.563, 4.517639
1115.045, 3.172836
1115.528, 1.687622
1116.010, 0.1571500
1116.492, 0.8449860
1116.974, 0.2617800
1117.456, 2.155502
1117.938, 4.352188
1118.420, 6.184631
1118.902, 6.590286
1119.385, 4.881485
1119.867, 3.787201
1120.349, 3.512543
1120.831, 3.570465
1121.313, 3.913864
1121.795, 4.255890
1122.277, 3.723816
1122.759, 2.734512
1123.241, 2.303238
1123.724, 3.516464
1124.206, 4.051041
1124.688, 3.214081
1125.170, 2.185806
1125.652, 2.056854
1126.134, 2.619522
1126.616, 2.516846
1127.098, 1.911743
1127.580, 1.888153
1128.063, 3.890259
1128.545, 5.664017
1129.027, 6.470703
1129.509, 6.354172
1129.991, 4.882690
1130.473, 2.108383
1130.955, 0.3975830
1131.437, 3.3295002E-02
1131.920, 7.5240999E-02
1132.402, 0.5634920
1132.884, 0.7632750
1133.366, 8.5129000E-02
1133.848, 1.648331
1134.330, 2.889282
1134.812, 3.876801
1135.294, 3.732971
1135.776, 1.952499
1136.259, 0.5111390
1136.741, 2.420685
1137.223, 5.067825
1137.705, 5.540619
1138.187, 3.370316
1138.669, 1.944366
1139.151, 1.305817
1139.633, 1.463730
1140.115, 2.688629
1140.598, 4.176376
1141.080, 4.811661
1141.562, 4.872101
1142.044, 4.785461
1142.526, 4.641724
1143.008, 4.422882
1143.490, 4.288773
1143.972, 3.714966
1144.455, 2.140610
1144.937, 0.2379150
1145.419, 0.4638370
1145.901, 0.1700740
1146.383, 0.5800780
1146.865, 2.261627
1147.347, 3.242584
1147.829, 2.990540
1148.312, 2.469650
1148.794, 2.562607
1149.276, 3.053680
1149.758, 2.770920
1150.240, 1.850754
1150.722, 1.038940
1151.204, 0.5254820
1151.686, 0.4207920
1152.168, 0.8383180
1152.651, 1.615601
1153.133, 2.797134
1153.615, 4.196152
1154.097, 5.140762
1154.579, 5.596512
1155.061, 5.384109
1155.543, 3.635254
1156.025, 1.988846
1156.507, 1.354004
1156.990, 1.442276
1157.472, 1.980804
1157.954, 2.972534
1158.436, 3.346100
1158.918, 2.927765
1159.400, 2.152573
1159.882, 0.8504940
1160.364, 0.2175900
1160.847, 0.4954070
1161.329, 1.4496000E-02
1161.811, 1.349792
1162.293, 3.765976
1162.775, 4.882736
1163.257, 3.867935
1163.739, 2.442001
1164.221, 1.938904
1164.703, 2.173416
1165.186, 3.281647
1165.668, 5.292038
1166.150, 6.418655
1166.632, 6.698868
1167.114, 5.689819
1167.596, 2.601624
1168.078, 0.5379640
1168.560, 0.9871370
1169.042, 9.6146002E-02
1169.525, 1.211182
1170.007, 2.045380
1170.489, 3.295258
1170.971, 5.230087
1171.453, 6.530457
1171.935, 6.127960
1172.417, 5.174850
1172.899, 5.779724
1173.382, 7.025070
1173.864, 7.366913
1174.346, 5.785553
1174.828, 4.552170
1175.310, 3.558014
1175.792, 3.094711
1176.274, 3.693115
1176.756, 4.767395
1177.239, 5.273270
1177.721, 5.329376
1178.203, 5.248566
1178.685, 4.772141
1179.167, 4.777115
1179.649, 5.599579
1180.131, 6.484741
1180.613, 6.433609
1181.095, 5.488983
1181.578, 4.199158
1182.060, 2.838669
1182.542, 2.486130
1183.024, 4.881317
1183.506, 6.337906
1183.988, 6.080093
1184.470, 5.229706
1184.952, 4.986542
1185.434, 5.208679
1185.917, 5.742310
1186.399, 6.478638
1186.881, 6.721451
1187.363, 5.707458
1187.845, 4.714447
1188.327, 3.830551
1188.809, 3.360672
1189.291, 4.256363
1189.774, 5.911926
1190.256, 6.253693
1190.738, 5.085190
1191.220, 4.180328
1191.702, 4.609756
1192.184, 4.941559
1192.666, 4.689560
1193.148, 4.138260
1193.630, 3.704346
1194.113, 3.454849
1194.595, 3.744415
1195.077, 4.672806
1195.559, 5.503021
1196.041, 6.059509
1196.523, 6.227356
1197.005, 5.977020
1197.487, 5.318466
1197.969, 3.862213
1198.452, 1.989349
1198.934, 1.262863
1199.416, 2.341476
1199.898, 2.983978
1200.380, 0.9275820
1200.862, 0.3645780
1201.344, 1.329895
1201.826, 4.734528
1202.309, 4.851807
1202.791, 2.458267
1203.273, 0.6605830
1203.755, 0.5226140
1204.237, 0.7599330
1204.719, 1.053284
1205.201, 1.300888
1205.683, 1.416840
1206.166, 1.443512
1206.648, 1.640244
1207.130, 1.933044
1207.612, 1.984573
1208.094, 1.556793
1208.576, 1.126907
1209.058, 1.022491
1209.540, 0.8319550
1210.022, 2.9633000E-02
1210.505, 1.110153
1210.987, 0.4310610
1211.469, 1.639313
1211.951, 3.038773
1212.433, 2.252502
1212.915, 1.790176
1213.397, 2.893021
1213.879, 4.031784
1214.361, 3.847778
1214.844, 2.683884
1215.326, 3.515839
1215.808, 5.848297
1216.290, 7.206360
1216.772, 5.000931
1217.254, 3.483719
1217.736, 4.604599
1218.218, 6.153687
1218.701, 6.099228
1219.183, 4.785904
1219.665, 4.434097
1220.147, 4.875412
1220.629, 5.054825
1221.111, 4.204300
1221.593, 3.340378
1222.075, 2.543976
1222.557, 2.094360
1223.040, 2.605286
1223.522, 3.752731
1224.004, 3.697815
1224.486, 2.599762
1224.968, 1.704269
1225.450, 1.949783
1225.932, 1.972931
1226.414, 1.308319
1226.896, 0.5928040
1227.379, 0.3483120
1227.861, 0.5623470
1228.343, 1.603043
1228.825, 3.233261
1229.307, 3.867798
1229.789, 1.219513
1230.271, 0.2893520
1230.753, 0.6596370
1231.236, 2.513016
1231.718, 3.536209
1232.200, 3.805923
1232.682, 3.197083
1233.164, 1.854019
1233.646, 0.8575590
1234.128, 0.9942320
1234.610, 1.068161
1235.093, 0.7707520
1235.575, 0.4721370
1236.057, 1.104004
1236.539, 2.016830
1237.021, 0.8662570
1237.503, 2.102554
1237.985, 3.114212
1238.467, 1.472778
1238.949, 4.391098
1239.432, 4.075378
1239.914, 2.506973
1240.396, 2.199020
1240.878, 2.673126
1241.360, 2.984772
1241.842, 3.095169
1242.324, 3.848663
1242.806, 6.449814
1243.288, 7.350403
1243.771, 5.453522
1244.253, 2.959503
1244.735, 2.934875
1245.217, 4.176270
1245.699, 4.993286
1246.181, 5.227203
1246.663, 5.242081
1247.145, 4.884689
1247.628, 5.037109
1248.110, 6.100555
1248.592, 6.977875
1249.074, 5.568039
1249.556, 3.644333
1250.038, 3.695633
1250.520, 5.779572
1251.002, 6.234604
1251.484, 4.552795
1251.967, 3.504074
1252.449, 3.749847
1252.931, 4.587173
1253.413, 5.832092
1253.895, 6.810349
1254.377, 6.688660
1254.859, 5.472473
1255.341, 4.068039
1255.823, 2.198822
1256.306, 1.870712
1256.788, 3.788666
1257.270, 5.716080
1257.752, 5.364243
1258.234, 4.355682
1258.716, 4.161926
1259.198, 4.610657
1259.680, 4.543823
1260.163, 3.954941
1260.645, 3.869278
1261.127, 4.641739
1261.609, 5.148071
1262.091, 3.771210
1262.573, 2.601318
1263.055, 3.371613
1263.537, 5.375320
1264.020, 6.013748
1264.502, 5.423599
1264.984, 4.500198
1265.466, 3.272736
1265.948, 2.477921
1266.430, 3.472198
1266.912, 4.346329
1267.394, 3.912888
1267.876, 2.883270
1268.359, 3.695404
1268.841, 5.630554
1269.323, 5.131363
1269.805, 1.352448
1270.287, 1.126648
1270.769, 0.5950320
1271.251, 0.6478580
1271.733, 2.048416
1272.215, 3.437088
1272.698, 4.697205
1273.180, 5.585754
1273.662, 5.198730
1274.144, 3.139160
1274.626, 2.170593
1275.108, 3.206619
1275.590, 4.508789
1276.072, 5.717834
1276.555, 6.507172
1277.037, 5.910812
1277.519, 4.713150
1278.001, 4.244080
1278.483, 4.779938
1278.965, 4.478088
1279.447, 2.816589
1279.929, 2.116348
1280.411, 3.405716
1280.894, 5.005661
1281.376, 4.370590
1281.858, 3.202957
1282.340, 3.891022
1282.822, 6.474838
1283.304, 7.200882
1283.786, 5.903595
1284.268, 4.431473
1284.750, 3.142548
1285.233, 2.211517
1285.715, 1.289261
1286.197, 0.8689420
1286.679, 1.388138
1287.161, 2.371521
1287.643, 3.308578
1288.125, 4.176682
1288.607, 5.066742
1289.090, 6.099609
1289.572, 6.251114
1290.054, 3.436035
1290.536, 1.170380
1291.018, 1.707413
1291.500, 3.830795
1291.982, 4.364853
1292.464, 3.598267
1292.947, 2.367752
1293.429, 0.6585240
1293.911, 0.3486790
1294.393, 0.5352780
1294.875, 1.344330
1295.357, 1.340668
1295.839, 1.172623
1296.321, 2.902649
1296.803, 5.307495
1297.286, 5.590469
1297.768, 2.495880
1298.250, 0.8066410
1298.732, 0.2025300
1299.214, 6.5765001E-02
1299.696, 0.5570370
1300.178, 0.4274290
1300.660, 0.0000000E+00
##END=



