##NAMES=Virgilluethite
##RRUFFID=R220017
##IDEAL CHEMISTRY=Mo^6+^O_3_&#183;H_2_O
##LOCALITY=Cooke's Peak, Cookes Range, Luna County, New Mexico, USA
##OWNER=RRUFF
##SOURCE=Ron Gibbs
##DESCRIPTION=Aggregates of yellow-green lamellas. Type sample
##STATUS=The identification of this mineral is confirmed by single-crystal X-ray diffraction and chemical analysis.
##URL=rruff.info/R220017
8.758203e+001, 7.260690e+002
8.806415e+001, 6.993815e+002
8.854626e+001, 6.946661e+002
8.902838e+001, 7.193208e+002
8.951050e+001, 7.528420e+002
8.999261e+001, 7.903702e+002
9.047473e+001, 8.305055e+002
9.095685e+001, 8.696034e+002
9.143896e+001, 9.040610e+002
9.192108e+001, 9.337574e+002
9.240320e+001, 9.633622e+002
9.288531e+001, 9.833848e+002
9.336743e+001, 9.843229e+002
9.384955e+001, 9.672142e+002
9.433167e+001, 9.460423e+002
9.481378e+001, 9.209163e+002
9.529590e+001, 8.985812e+002
9.577802e+001, 8.788783e+002
9.626013e+001, 8.607573e+002
9.674225e+001, 8.429127e+002
9.722437e+001, 8.251945e+002
9.770648e+001, 8.099349e+002
9.818860e+001, 7.976400e+002
9.867072e+001, 7.871895e+002
9.915283e+001, 7.780795e+002
9.963495e+001, 7.701023e+002
1.001171e+002, 7.631639e+002
1.005992e+002, 7.573699e+002
1.010813e+002, 7.530618e+002
1.015634e+002, 7.487108e+002
1.020455e+002, 7.432444e+002
1.025277e+002, 7.377740e+002
1.030098e+002, 7.330514e+002
1.034919e+002, 7.293471e+002
1.039740e+002, 7.265578e+002
1.044561e+002, 7.245410e+002
1.049382e+002, 7.235934e+002
1.054204e+002, 7.229545e+002
1.059025e+002, 7.227672e+002
1.063846e+002, 7.227706e+002
1.068667e+002, 7.224508e+002
1.073488e+002, 7.213507e+002
1.078309e+002, 7.196822e+002
1.083131e+002, 7.191996e+002
1.087952e+002, 7.207083e+002
1.092773e+002, 7.224659e+002
1.097594e+002, 7.234232e+002
1.102415e+002, 7.235786e+002
1.107236e+002, 7.236356e+002
1.112058e+002, 7.240468e+002
1.116879e+002, 7.247901e+002
1.121700e+002, 7.258125e+002
1.126521e+002, 7.272615e+002
1.131342e+002, 7.289470e+002
1.136163e+002, 7.305708e+002
1.140985e+002, 7.321217e+002
1.145806e+002, 7.335955e+002
1.150627e+002, 7.347477e+002
1.155448e+002, 7.357838e+002
1.160269e+002, 7.372479e+002
1.165090e+002, 7.399712e+002
1.169912e+002, 7.439046e+002
1.174733e+002, 7.466340e+002
1.179554e+002, 7.465755e+002
1.184375e+002, 7.464977e+002
1.189196e+002, 7.476617e+002
1.194017e+002, 7.499684e+002
1.198839e+002, 7.524808e+002
1.203660e+002, 7.542465e+002
1.208481e+002, 7.553651e+002
1.213302e+002, 7.552308e+002
1.218123e+002, 7.526134e+002
1.222944e+002, 7.498143e+002
1.227766e+002, 7.487912e+002
1.232587e+002, 7.499130e+002
1.237408e+002, 7.515674e+002
1.242229e+002, 7.507237e+002
1.247050e+002, 7.455546e+002
1.251871e+002, 7.399016e+002
1.256693e+002, 7.333981e+002
1.261514e+002, 7.265290e+002
1.266335e+002, 7.200138e+002
1.271156e+002, 7.141790e+002
1.275977e+002, 7.087306e+002
1.280798e+002, 7.027400e+002
1.285620e+002, 6.960412e+002
1.290441e+002, 6.891807e+002
1.295262e+002, 6.824424e+002
1.300083e+002, 6.757399e+002
1.304904e+002, 6.687338e+002
1.309725e+002, 6.609054e+002
1.314547e+002, 6.528723e+002
1.319368e+002, 6.460253e+002
1.324189e+002, 6.413434e+002
1.329010e+002, 6.367772e+002
1.333831e+002, 6.296951e+002
1.338652e+002, 6.194677e+002
1.343474e+002, 6.102032e+002
1.348295e+002, 6.047868e+002
1.353116e+002, 6.013138e+002
1.357937e+002, 5.978828e+002
1.362758e+002, 5.936844e+002
1.367579e+002, 5.891353e+002
1.372401e+002, 5.852301e+002
1.377222e+002, 5.816287e+002
1.382043e+002, 5.794075e+002
1.386864e+002, 5.797418e+002
1.391685e+002, 5.813358e+002
1.396507e+002, 5.821974e+002
1.401328e+002, 5.807531e+002
1.406149e+002, 5.771129e+002
1.410970e+002, 5.749716e+002
1.415791e+002, 5.754731e+002
1.420612e+002, 5.765016e+002
1.425434e+002, 5.777299e+002
1.430255e+002, 5.790582e+002
1.435076e+002, 5.804946e+002
1.439897e+002, 5.820966e+002
1.444718e+002, 5.839858e+002
1.449539e+002, 5.852592e+002
1.454361e+002, 5.850575e+002
1.459182e+002, 5.850602e+002
1.464003e+002, 5.863940e+002
1.468824e+002, 5.890843e+002
1.473645e+002, 5.921879e+002
1.478466e+002, 5.946317e+002
1.483288e+002, 5.961793e+002
1.488109e+002, 5.978519e+002
1.492930e+002, 5.994563e+002
1.497751e+002, 6.012902e+002
1.502572e+002, 6.037399e+002
1.507393e+002, 6.069392e+002
1.512215e+002, 6.104722e+002
1.517036e+002, 6.136064e+002
1.521857e+002, 6.162880e+002
1.526678e+002, 6.196443e+002
1.531499e+002, 6.248268e+002
1.536320e+002, 6.309755e+002
1.541142e+002, 6.358060e+002
1.545963e+002, 6.382321e+002
1.550784e+002, 6.398797e+002
1.555605e+002, 6.424566e+002
1.560426e+002, 6.459363e+002
1.565247e+002, 6.498544e+002
1.570069e+002, 6.539860e+002
1.574890e+002, 6.583288e+002
1.579711e+002, 6.626591e+002
1.584532e+002, 6.664904e+002
1.589353e+002, 6.706712e+002
1.594174e+002, 6.762761e+002
1.598996e+002, 6.833826e+002
1.603817e+002, 6.901558e+002
1.608638e+002, 6.939559e+002
1.613459e+002, 6.934767e+002
1.618280e+002, 6.944368e+002
1.623102e+002, 6.986959e+002
1.627923e+002, 7.038576e+002
1.632744e+002, 7.083613e+002
1.637565e+002, 7.117733e+002
1.642386e+002, 7.146767e+002
1.647207e+002, 7.182946e+002
1.652029e+002, 7.234075e+002
1.656850e+002, 7.279172e+002
1.661671e+002, 7.316393e+002
1.666492e+002, 7.347700e+002
1.671313e+002, 7.372104e+002
1.676134e+002, 7.389136e+002
1.680956e+002, 7.404523e+002
1.685777e+002, 7.435137e+002
1.690598e+002, 7.500872e+002
1.695419e+002, 7.559847e+002
1.700240e+002, 7.613001e+002
1.705061e+002, 7.657032e+002
1.709883e+002, 7.685800e+002
1.714704e+002, 7.695092e+002
1.719525e+002, 7.689825e+002
1.724346e+002, 7.690461e+002
1.729167e+002, 7.706561e+002
1.733988e+002, 7.716898e+002
1.738810e+002, 7.713340e+002
1.743631e+002, 7.698896e+002
1.748452e+002, 7.681753e+002
1.753273e+002, 7.667471e+002
1.758094e+002, 7.652518e+002
1.762915e+002, 7.626631e+002
1.767737e+002, 7.581194e+002
1.772558e+002, 7.535228e+002
1.777379e+002, 7.500450e+002
1.782200e+002, 7.476259e+002
1.787021e+002, 7.454955e+002
1.791842e+002, 7.437034e+002
1.796664e+002, 7.417111e+002
1.801485e+002, 7.385358e+002
1.806306e+002, 7.336141e+002
1.811127e+002, 7.279584e+002
1.815948e+002, 7.229252e+002
1.820769e+002, 7.187597e+002
1.825591e+002, 7.137932e+002
1.830412e+002, 7.058164e+002
1.835233e+002, 6.969297e+002
1.840054e+002, 6.893844e+002
1.844875e+002, 6.843287e+002
1.849696e+002, 6.806003e+002
1.854518e+002, 6.760917e+002
1.859339e+002, 6.704692e+002
1.864160e+002, 6.647897e+002
1.868981e+002, 6.594310e+002
1.873802e+002, 6.542439e+002
1.878623e+002, 6.489241e+002
1.883445e+002, 6.431736e+002
1.888266e+002, 6.374105e+002
1.893087e+002, 6.332699e+002
1.897908e+002, 6.321683e+002
1.902729e+002, 6.307339e+002
1.907550e+002, 6.279224e+002
1.912372e+002, 6.243596e+002
1.917193e+002, 6.208482e+002
1.922014e+002, 6.178272e+002
1.926835e+002, 6.152955e+002
1.931656e+002, 6.132835e+002
1.936477e+002, 6.121962e+002
1.941299e+002, 6.113041e+002
1.946120e+002, 6.104086e+002
1.950941e+002, 6.096368e+002
1.955762e+002, 6.092631e+002
1.960583e+002, 6.095076e+002
1.965404e+002, 6.103224e+002
1.970226e+002, 6.108495e+002
1.975047e+002, 6.111186e+002
1.979868e+002, 6.110946e+002
1.984689e+002, 6.107250e+002
1.989510e+002, 6.100394e+002
1.994331e+002, 6.090396e+002
1.999153e+002, 6.076467e+002
2.003974e+002, 6.058895e+002
2.008795e+002, 6.048205e+002
2.013616e+002, 6.050131e+002
2.018437e+002, 6.051740e+002
2.023258e+002, 6.049672e+002
2.028080e+002, 6.042993e+002
2.032901e+002, 6.029110e+002
2.037722e+002, 6.003638e+002
2.042543e+002, 5.968184e+002
2.047364e+002, 5.943109e+002
2.052185e+002, 5.931583e+002
2.057007e+002, 5.926726e+002
2.061828e+002, 5.928417e+002
2.066649e+002, 5.935455e+002
2.071470e+002, 5.938937e+002
2.076291e+002, 5.932168e+002
2.081112e+002, 5.915994e+002
2.085934e+002, 5.898419e+002
2.090755e+002, 5.876136e+002
2.095576e+002, 5.855023e+002
2.100397e+002, 5.840402e+002
2.105218e+002, 5.832404e+002
2.110039e+002, 5.828137e+002
2.114861e+002, 5.827828e+002
2.119682e+002, 5.829764e+002
2.124503e+002, 5.830391e+002
2.129324e+002, 5.828372e+002
2.134145e+002, 5.825209e+002
2.138967e+002, 5.823105e+002
2.143788e+002, 5.822511e+002
2.148609e+002, 5.820643e+002
2.153430e+002, 5.817660e+002
2.158251e+002, 5.811895e+002
2.163072e+002, 5.799761e+002
2.167894e+002, 5.776627e+002
2.172715e+002, 5.749527e+002
2.177536e+002, 5.730289e+002
2.182357e+002, 5.720097e+002
2.187178e+002, 5.714844e+002
2.191999e+002, 5.717144e+002
2.196821e+002, 5.721600e+002
2.201642e+002, 5.722641e+002
2.206463e+002, 5.718862e+002
2.211284e+002, 5.709222e+002
2.216105e+002, 5.688902e+002
2.220926e+002, 5.648860e+002
2.225748e+002, 5.616868e+002
2.230569e+002, 5.605578e+002
2.235390e+002, 5.604188e+002
2.240211e+002, 5.600400e+002
2.245032e+002, 5.588047e+002
2.249853e+002, 5.571403e+002
2.254675e+002, 5.562903e+002
2.259496e+002, 5.570485e+002
2.264317e+002, 5.573781e+002
2.269138e+002, 5.571672e+002
2.273959e+002, 5.562637e+002
2.278780e+002, 5.542329e+002
2.283602e+002, 5.507677e+002
2.288423e+002, 5.465574e+002
2.293244e+002, 5.439568e+002
2.298065e+002, 5.453993e+002
2.302886e+002, 5.450620e+002
2.307707e+002, 5.406521e+002
2.312529e+002, 5.347230e+002
2.317350e+002, 5.302416e+002
2.322171e+002, 5.286475e+002
2.326992e+002, 5.290224e+002
2.331813e+002, 5.284142e+002
2.336634e+002, 5.253314e+002
2.341456e+002, 5.229906e+002
2.346277e+002, 5.221543e+002
2.351098e+002, 5.219850e+002
2.355919e+002, 5.215477e+002
2.360740e+002, 5.204166e+002
2.365561e+002, 5.187676e+002
2.370383e+002, 5.171112e+002
2.375204e+002, 5.151921e+002
2.380025e+002, 5.136039e+002
2.384846e+002, 5.120761e+002
2.389667e+002, 5.110018e+002
2.394488e+002, 5.111548e+002
2.399310e+002, 5.128983e+002
2.404131e+002, 5.153924e+002
2.408952e+002, 5.164762e+002
2.413773e+002, 5.148584e+002
2.418594e+002, 5.136205e+002
2.423415e+002, 5.132313e+002
2.428237e+002, 5.133170e+002
2.433058e+002, 5.133058e+002
2.437879e+002, 5.129549e+002
2.442700e+002, 5.126663e+002
2.447521e+002, 5.133875e+002
2.452342e+002, 5.155779e+002
2.457164e+002, 5.177571e+002
2.461985e+002, 5.201138e+002
2.466806e+002, 5.222162e+002
2.471627e+002, 5.233267e+002
2.476448e+002, 5.231326e+002
2.481269e+002, 5.223020e+002
2.486091e+002, 5.220715e+002
2.490912e+002, 5.227477e+002
2.495733e+002, 5.228757e+002
2.500554e+002, 5.214507e+002
2.505375e+002, 5.195000e+002
2.510196e+002, 5.188198e+002
2.515018e+002, 5.200815e+002
2.519839e+002, 5.217882e+002
2.524660e+002, 5.215907e+002
2.529481e+002, 5.194711e+002
2.534302e+002, 5.172965e+002
2.539123e+002, 5.150596e+002
2.543945e+002, 5.131842e+002
2.548766e+002, 5.126259e+002
2.553587e+002, 5.138723e+002
2.558408e+002, 5.153566e+002
2.563229e+002, 5.151469e+002
2.568051e+002, 5.134844e+002
2.572872e+002, 5.113038e+002
2.577693e+002, 5.082591e+002
2.582514e+002, 5.050085e+002
2.587335e+002, 5.027013e+002
2.592156e+002, 5.016417e+002
2.596978e+002, 5.009893e+002
2.601799e+002, 5.000906e+002
2.606620e+002, 4.989716e+002
2.611441e+002, 4.976456e+002
2.616262e+002, 4.961241e+002
2.621083e+002, 4.943855e+002
2.625905e+002, 4.922486e+002
2.630726e+002, 4.895661e+002
2.635547e+002, 4.870142e+002
2.640368e+002, 4.853009e+002
2.645189e+002, 4.841237e+002
2.650010e+002, 4.829586e+002
2.654832e+002, 4.818527e+002
2.659653e+002, 4.805882e+002
2.664474e+002, 4.786251e+002
2.669295e+002, 4.757159e+002
2.674116e+002, 4.730652e+002
2.678937e+002, 4.719736e+002
2.683759e+002, 4.715240e+002
2.688580e+002, 4.703760e+002
2.693401e+002, 4.677308e+002
2.698222e+002, 4.645629e+002
2.703043e+002, 4.622980e+002
2.707864e+002, 4.610623e+002
2.712686e+002, 4.601911e+002
2.717507e+002, 4.597392e+002
2.722328e+002, 4.593463e+002
2.727149e+002, 4.586037e+002
2.731970e+002, 4.573444e+002
2.736791e+002, 4.558097e+002
2.741613e+002, 4.544309e+002
2.746434e+002, 4.533167e+002
2.751255e+002, 4.517275e+002
2.756076e+002, 4.483015e+002
2.760897e+002, 4.447990e+002
2.765718e+002, 4.429460e+002
2.770540e+002, 4.433326e+002
2.775361e+002, 4.440985e+002
2.780182e+002, 4.428596e+002
2.785003e+002, 4.392960e+002
2.789824e+002, 4.359788e+002
2.794645e+002, 4.340780e+002
2.799467e+002, 4.323183e+002
2.804288e+002, 4.296781e+002
2.809109e+002, 4.260255e+002
2.813930e+002, 4.223948e+002
2.818751e+002, 4.198198e+002
2.823572e+002, 4.183542e+002
2.828394e+002, 4.173459e+002
2.833215e+002, 4.174765e+002
2.838036e+002, 4.174185e+002
2.842857e+002, 4.163503e+002
2.847678e+002, 4.142957e+002
2.852499e+002, 4.118447e+002
2.857321e+002, 4.093772e+002
2.862142e+002, 4.068937e+002
2.866963e+002, 4.046829e+002
2.871784e+002, 4.027850e+002
2.876605e+002, 4.011836e+002
2.881426e+002, 3.999865e+002
2.886248e+002, 3.990901e+002
2.891069e+002, 3.982220e+002
2.895890e+002, 3.973038e+002
2.900711e+002, 3.962943e+002
2.905532e+002, 3.946817e+002
2.910353e+002, 3.917948e+002
2.915175e+002, 3.891037e+002
2.919996e+002, 3.870235e+002
2.924817e+002, 3.855394e+002
2.929638e+002, 3.846841e+002
2.934459e+002, 3.847043e+002
2.939280e+002, 3.852866e+002
2.944102e+002, 3.849966e+002
2.948923e+002, 3.834307e+002
2.953744e+002, 3.815652e+002
2.958565e+002, 3.796707e+002
2.963386e+002, 3.777254e+002
2.968207e+002, 3.755574e+002
2.973029e+002, 3.729659e+002
2.977850e+002, 3.704622e+002
2.982671e+002, 3.694140e+002
2.987492e+002, 3.704166e+002
2.992313e+002, 3.717753e+002
2.997134e+002, 3.740383e+002
3.001956e+002, 3.759667e+002
3.006777e+002, 3.760233e+002
3.011598e+002, 3.736614e+002
3.016419e+002, 3.704532e+002
3.021240e+002, 3.692755e+002
3.026061e+002, 3.711120e+002
3.030883e+002, 3.721972e+002
3.035704e+002, 3.713914e+002
3.040525e+002, 3.700924e+002
3.045346e+002, 3.691399e+002
3.050167e+002, 3.687137e+002
3.054988e+002, 3.685563e+002
3.059810e+002, 3.682384e+002
3.064631e+002, 3.675588e+002
3.069452e+002, 3.676436e+002
3.074273e+002, 3.698120e+002
3.079094e+002, 3.717555e+002
3.083915e+002, 3.721357e+002
3.088737e+002, 3.711279e+002
3.093558e+002, 3.699565e+002
3.098379e+002, 3.699275e+002
3.103200e+002, 3.711360e+002
3.108021e+002, 3.714658e+002
3.112842e+002, 3.698509e+002
3.117664e+002, 3.683892e+002
3.122485e+002, 3.677783e+002
3.127306e+002, 3.679009e+002
3.132127e+002, 3.684234e+002
3.136948e+002, 3.692327e+002
3.141769e+002, 3.702368e+002
3.146591e+002, 3.709147e+002
3.151412e+002, 3.715163e+002
3.156233e+002, 3.713476e+002
3.161054e+002, 3.696455e+002
3.165875e+002, 3.673104e+002
3.170696e+002, 3.655254e+002
3.175518e+002, 3.648824e+002
3.180339e+002, 3.650409e+002
3.185160e+002, 3.651630e+002
3.189981e+002, 3.651572e+002
3.194802e+002, 3.653245e+002
3.199623e+002, 3.661504e+002
3.204445e+002, 3.669377e+002
3.209266e+002, 3.668760e+002
3.214087e+002, 3.657316e+002
3.218908e+002, 3.643213e+002
3.223729e+002, 3.639417e+002
3.228550e+002, 3.649008e+002
3.233372e+002, 3.658031e+002
3.238193e+002, 3.667044e+002
3.243014e+002, 3.673185e+002
3.247835e+002, 3.672339e+002
3.252656e+002, 3.665203e+002
3.257477e+002, 3.658648e+002
3.262299e+002, 3.662727e+002
3.267120e+002, 3.679446e+002
3.271941e+002, 3.684707e+002
3.276762e+002, 3.666462e+002
3.281583e+002, 3.646763e+002
3.286404e+002, 3.635133e+002
3.291226e+002, 3.630057e+002
3.296047e+002, 3.625485e+002
3.300868e+002, 3.616905e+002
3.305689e+002, 3.605048e+002
3.310510e+002, 3.594608e+002
3.315331e+002, 3.584143e+002
3.320153e+002, 3.577744e+002
3.324974e+002, 3.580598e+002
3.329795e+002, 3.587023e+002
3.334616e+002, 3.589169e+002
3.339437e+002, 3.583640e+002
3.344258e+002, 3.571337e+002
3.349080e+002, 3.552666e+002
3.353901e+002, 3.523619e+002
3.358722e+002, 3.498755e+002
3.363543e+002, 3.486575e+002
3.368365e+002, 3.477964e+002
3.373186e+002, 3.464193e+002
3.378007e+002, 3.442662e+002
3.382828e+002, 3.420179e+002
3.387649e+002, 3.405081e+002
3.392470e+002, 3.398095e+002
3.397292e+002, 3.393406e+002
3.402113e+002, 3.390638e+002
3.406934e+002, 3.389488e+002
3.411755e+002, 3.391495e+002
3.416576e+002, 3.396000e+002
3.421397e+002, 3.398062e+002
3.426219e+002, 3.391124e+002
3.431040e+002, 3.376382e+002
3.435861e+002, 3.367801e+002
3.440682e+002, 3.371474e+002
3.445503e+002, 3.374111e+002
3.450324e+002, 3.366557e+002
3.455146e+002, 3.351984e+002
3.459967e+002, 3.338427e+002
3.464788e+002, 3.331411e+002
3.469609e+002, 3.327877e+002
3.474430e+002, 3.319583e+002
3.479251e+002, 3.304164e+002
3.484073e+002, 3.290607e+002
3.488894e+002, 3.285496e+002
3.493715e+002, 3.284134e+002
3.498536e+002, 3.280672e+002
3.503357e+002, 3.272482e+002
3.508178e+002, 3.263923e+002
3.513000e+002, 3.261526e+002
3.517821e+002, 3.265763e+002
3.522642e+002, 3.267379e+002
3.527463e+002, 3.263641e+002
3.532284e+002, 3.255307e+002
3.537105e+002, 3.241258e+002
3.541927e+002, 3.220554e+002
3.546748e+002, 3.203611e+002
3.551569e+002, 3.201563e+002
3.556390e+002, 3.210455e+002
3.561211e+002, 3.210805e+002
3.566032e+002, 3.193601e+002
3.570854e+002, 3.176849e+002
3.575675e+002, 3.181599e+002
3.580496e+002, 3.203159e+002
3.585317e+002, 3.218354e+002
3.590138e+002, 3.213538e+002
3.594959e+002, 3.198612e+002
3.599781e+002, 3.190117e+002
3.604602e+002, 3.190038e+002
3.609423e+002, 3.188908e+002
3.614244e+002, 3.175911e+002
3.619065e+002, 3.157426e+002
3.623886e+002, 3.149529e+002
3.628708e+002, 3.159133e+002
3.633529e+002, 3.175059e+002
3.638350e+002, 3.192839e+002
3.643171e+002, 3.211066e+002
3.647992e+002, 3.218482e+002
3.652813e+002, 3.204252e+002
3.657635e+002, 3.182021e+002
3.662456e+002, 3.180479e+002
3.667277e+002, 3.206927e+002
3.672098e+002, 3.229653e+002
3.676919e+002, 3.234642e+002
3.681740e+002, 3.227355e+002
3.686562e+002, 3.217654e+002
3.691383e+002, 3.207856e+002
3.696204e+002, 3.196341e+002
3.701025e+002, 3.178902e+002
3.705846e+002, 3.154746e+002
3.710667e+002, 3.138375e+002
3.715489e+002, 3.136547e+002
3.720310e+002, 3.139967e+002
3.725131e+002, 3.142911e+002
3.729952e+002, 3.144177e+002
3.734773e+002, 3.139337e+002
3.739594e+002, 3.123017e+002
3.744416e+002, 3.096943e+002
3.749237e+002, 3.080904e+002
3.754058e+002, 3.083380e+002
3.758879e+002, 3.085656e+002
3.763700e+002, 3.080534e+002
3.768521e+002, 3.069732e+002
3.773343e+002, 3.056955e+002
3.778164e+002, 3.043746e+002
3.782985e+002, 3.029898e+002
3.787806e+002, 3.014679e+002
3.792627e+002, 2.994244e+002
3.797448e+002, 2.979009e+002
3.802270e+002, 2.973446e+002
3.807091e+002, 2.971343e+002
3.811912e+002, 2.965854e+002
3.816733e+002, 2.956074e+002
3.821554e+002, 2.947568e+002
3.826375e+002, 2.947593e+002
3.831197e+002, 2.959797e+002
3.836018e+002, 2.961282e+002
3.840839e+002, 2.945844e+002
3.845660e+002, 2.927815e+002
3.850481e+002, 2.914388e+002
3.855302e+002, 2.903789e+002
3.860124e+002, 2.889899e+002
3.864945e+002, 2.868278e+002
3.869766e+002, 2.840949e+002
3.874587e+002, 2.818456e+002
3.879408e+002, 2.804426e+002
3.884229e+002, 2.791327e+002
3.889051e+002, 2.778315e+002
3.893872e+002, 2.765937e+002
3.898693e+002, 2.755573e+002
3.903514e+002, 2.747476e+002
3.908335e+002, 2.739185e+002
3.913156e+002, 2.726476e+002
3.917978e+002, 2.707299e+002
3.922799e+002, 2.689219e+002
3.927620e+002, 2.668884e+002
3.932441e+002, 2.652413e+002
3.937262e+002, 2.644978e+002
3.942083e+002, 2.644840e+002
3.946905e+002, 2.645434e+002
3.951726e+002, 2.641369e+002
3.956547e+002, 2.633181e+002
3.961368e+002, 2.626403e+002
3.966189e+002, 2.621806e+002
3.971010e+002, 2.617659e+002
3.975832e+002, 2.613291e+002
3.980653e+002, 2.609006e+002
3.985474e+002, 2.606299e+002
3.990295e+002, 2.606471e+002
3.995116e+002, 2.604965e+002
3.999937e+002, 2.592316e+002
4.004759e+002, 2.565630e+002
4.009580e+002, 2.542968e+002
4.014401e+002, 2.530746e+002
4.019222e+002, 2.522807e+002
4.024043e+002, 2.516812e+002
4.028864e+002, 2.512092e+002
4.033686e+002, 2.505132e+002
4.038507e+002, 2.491204e+002
4.043328e+002, 2.472366e+002
4.048149e+002, 2.457245e+002
4.052970e+002, 2.445932e+002
4.057791e+002, 2.439745e+002
4.062613e+002, 2.442146e+002
4.067434e+002, 2.449976e+002
4.072255e+002, 2.457430e+002
4.077076e+002, 2.464908e+002
4.081897e+002, 2.469236e+002
4.086718e+002, 2.465926e+002
4.091540e+002, 2.455168e+002
4.096361e+002, 2.441306e+002
4.101182e+002, 2.421941e+002
4.106003e+002, 2.404399e+002
4.110824e+002, 2.402042e+002
4.115645e+002, 2.418868e+002
4.120467e+002, 2.434124e+002
4.125288e+002, 2.438706e+002
4.130109e+002, 2.435807e+002
4.134930e+002, 2.429714e+002
4.139751e+002, 2.420865e+002
4.144572e+002, 2.412719e+002
4.149394e+002, 2.408966e+002
4.154215e+002, 2.409900e+002
4.159036e+002, 2.411744e+002
4.163857e+002, 2.417997e+002
4.168678e+002, 2.422005e+002
4.173499e+002, 2.418238e+002
4.178321e+002, 2.408159e+002
4.183142e+002, 2.396482e+002
4.187963e+002, 2.385111e+002
4.192784e+002, 2.375360e+002
4.197605e+002, 2.372135e+002
4.202426e+002, 2.379278e+002
4.207248e+002, 2.387366e+002
4.212069e+002, 2.399295e+002
4.216890e+002, 2.409717e+002
4.221711e+002, 2.411244e+002
4.226532e+002, 2.402991e+002
4.231353e+002, 2.392428e+002
4.236175e+002, 2.388497e+002
4.240996e+002, 2.392560e+002
4.245817e+002, 2.396524e+002
4.250638e+002, 2.400398e+002
4.255459e+002, 2.404184e+002
4.260280e+002, 2.406707e+002
4.265102e+002, 2.409234e+002
4.269923e+002, 2.414342e+002
4.274744e+002, 2.423664e+002
4.279565e+002, 2.436054e+002
4.284386e+002, 2.448490e+002
4.289207e+002, 2.467354e+002
4.294029e+002, 2.473904e+002
4.298850e+002, 2.456469e+002
4.303671e+002, 2.433925e+002
4.308492e+002, 2.421899e+002
4.313313e+002, 2.422634e+002
4.318134e+002, 2.426832e+002
4.322956e+002, 2.423790e+002
4.327777e+002, 2.413202e+002
4.332598e+002, 2.408596e+002
4.337419e+002, 2.419225e+002
4.342241e+002, 2.423724e+002
4.347062e+002, 2.409332e+002
4.351883e+002, 2.382739e+002
4.356704e+002, 2.356215e+002
4.361525e+002, 2.333513e+002
4.366346e+002, 2.315700e+002
4.371168e+002, 2.304807e+002
4.375989e+002, 2.301075e+002
4.380810e+002, 2.302399e+002
4.385631e+002, 2.314073e+002
4.390452e+002, 2.325783e+002
4.395273e+002, 2.325448e+002
4.400095e+002, 2.311916e+002
4.404916e+002, 2.295807e+002
4.409737e+002, 2.281004e+002
4.414558e+002, 2.267878e+002
4.419379e+002, 2.257740e+002
4.424200e+002, 2.251004e+002
4.429022e+002, 2.245430e+002
4.433843e+002, 2.239990e+002
4.438664e+002, 2.234244e+002
4.443485e+002, 2.226040e+002
4.448306e+002, 2.211856e+002
4.453127e+002, 2.198429e+002
4.457949e+002, 2.189085e+002
4.462770e+002, 2.183494e+002
4.467591e+002, 2.181933e+002
4.472412e+002, 2.185388e+002
4.477233e+002, 2.189234e+002
4.482054e+002, 2.184124e+002
4.486876e+002, 2.163961e+002
4.491697e+002, 2.148555e+002
4.496518e+002, 2.142847e+002
4.501339e+002, 2.139212e+002
4.506160e+002, 2.131031e+002
4.510981e+002, 2.118750e+002
4.515803e+002, 2.108354e+002
4.520624e+002, 2.105823e+002
4.525445e+002, 2.109837e+002
4.530266e+002, 2.102768e+002
4.535087e+002, 2.063354e+002
4.539908e+002, 2.037280e+002
4.544730e+002, 2.039913e+002
4.549551e+002, 2.055259e+002
4.554372e+002, 2.066617e+002
4.559193e+002, 2.068431e+002
4.564014e+002, 2.064424e+002
4.568835e+002, 2.059377e+002
4.573657e+002, 2.053321e+002
4.578478e+002, 2.045957e+002
4.583299e+002, 2.032580e+002
4.588120e+002, 2.022520e+002
4.592941e+002, 2.024390e+002
4.597762e+002, 2.032704e+002
4.602584e+002, 2.034021e+002
4.607405e+002, 2.018622e+002
4.612226e+002, 1.994442e+002
4.617047e+002, 1.977821e+002
4.621868e+002, 1.969606e+002
4.626689e+002, 1.964713e+002
4.631511e+002, 1.963890e+002
4.636332e+002, 1.964078e+002
4.641153e+002, 1.961745e+002
4.645974e+002, 1.956435e+002
4.650795e+002, 1.952180e+002
4.655616e+002, 1.954261e+002
4.660438e+002, 1.958724e+002
4.665259e+002, 1.955388e+002
4.670080e+002, 1.942017e+002
4.674901e+002, 1.927234e+002
4.679722e+002, 1.915176e+002
4.684543e+002, 1.907333e+002
4.689365e+002, 1.908333e+002
4.694186e+002, 1.932847e+002
4.699007e+002, 1.951545e+002
4.703828e+002, 1.943419e+002
4.708649e+002, 1.918591e+002
4.713470e+002, 1.898812e+002
4.718292e+002, 1.891783e+002
4.723113e+002, 1.891911e+002
4.727934e+002, 1.891216e+002
4.732755e+002, 1.890225e+002
4.737576e+002, 1.886266e+002
4.742397e+002, 1.875179e+002
4.747219e+002, 1.864871e+002
4.752040e+002, 1.861353e+002
4.756861e+002, 1.862881e+002
4.761682e+002, 1.864024e+002
4.766503e+002, 1.861497e+002
4.771324e+002, 1.855438e+002
4.776146e+002, 1.845962e+002
4.780967e+002, 1.827184e+002
4.785788e+002, 1.814610e+002
4.790609e+002, 1.810482e+002
4.795430e+002, 1.811795e+002
4.800251e+002, 1.819726e+002
4.805073e+002, 1.832370e+002
4.809894e+002, 1.841312e+002
4.814715e+002, 1.836820e+002
4.819536e+002, 1.820023e+002
4.824357e+002, 1.806120e+002
4.829178e+002, 1.795532e+002
4.834000e+002, 1.787199e+002
4.838821e+002, 1.779951e+002
4.843642e+002, 1.774654e+002
4.848463e+002, 1.773666e+002
4.853284e+002, 1.779107e+002
4.858105e+002, 1.783672e+002
4.862927e+002, 1.778162e+002
4.867748e+002, 1.764491e+002
4.872569e+002, 1.755321e+002
4.877390e+002, 1.755052e+002
4.882211e+002, 1.756293e+002
4.887032e+002, 1.747761e+002
4.891854e+002, 1.731894e+002
4.896675e+002, 1.725450e+002
4.901496e+002, 1.741028e+002
4.906317e+002, 1.759543e+002
4.911138e+002, 1.766400e+002
4.915959e+002, 1.762868e+002
4.920781e+002, 1.754252e+002
4.925602e+002, 1.741861e+002
4.930423e+002, 1.729266e+002
4.935244e+002, 1.724752e+002
4.940065e+002, 1.735320e+002
4.944886e+002, 1.740641e+002
4.949708e+002, 1.737883e+002
4.954529e+002, 1.731288e+002
4.959350e+002, 1.720262e+002
4.964171e+002, 1.707507e+002
4.968992e+002, 1.701391e+002
4.973813e+002, 1.709535e+002
4.978635e+002, 1.728582e+002
4.983456e+002, 1.737095e+002
4.988277e+002, 1.723157e+002
4.993098e+002, 1.716480e+002
4.997919e+002, 1.729809e+002
5.002740e+002, 1.746350e+002
5.007562e+002, 1.749641e+002
5.012383e+002, 1.737665e+002
5.017204e+002, 1.723221e+002
5.022025e+002, 1.720354e+002
5.026846e+002, 1.727765e+002
5.031667e+002, 1.728937e+002
5.036489e+002, 1.718778e+002
5.041310e+002, 1.711864e+002
5.046131e+002, 1.720208e+002
5.050952e+002, 1.735412e+002
5.055773e+002, 1.745379e+002
5.060594e+002, 1.746644e+002
5.065416e+002, 1.744150e+002
5.070237e+002, 1.740950e+002
5.075058e+002, 1.737168e+002
5.079879e+002, 1.733123e+002
5.084700e+002, 1.728780e+002
5.089521e+002, 1.724535e+002
5.094343e+002, 1.720357e+002
5.099164e+002, 1.716327e+002
5.103985e+002, 1.714564e+002
5.108806e+002, 1.714814e+002
5.113627e+002, 1.717720e+002
5.118448e+002, 1.726117e+002
5.123270e+002, 1.737311e+002
5.128091e+002, 1.744932e+002
5.132912e+002, 1.746098e+002
5.137733e+002, 1.744537e+002
5.142554e+002, 1.747213e+002
5.147375e+002, 1.756544e+002
5.152197e+002, 1.764611e+002
5.157018e+002, 1.773994e+002
5.161839e+002, 1.779935e+002
5.166660e+002, 1.779962e+002
5.171481e+002, 1.774483e+002
5.176302e+002, 1.763216e+002
5.181124e+002, 1.744343e+002
5.185945e+002, 1.724532e+002
5.190766e+002, 1.723356e+002
5.195587e+002, 1.747586e+002
5.200408e+002, 1.768117e+002
5.205229e+002, 1.778597e+002
5.210051e+002, 1.783107e+002
5.214872e+002, 1.779316e+002
5.219693e+002, 1.769617e+002
5.224514e+002, 1.766949e+002
5.229335e+002, 1.787704e+002
5.234156e+002, 1.817455e+002
5.238978e+002, 1.827323e+002
5.243799e+002, 1.816181e+002
5.248620e+002, 1.802257e+002
5.253441e+002, 1.792965e+002
5.258262e+002, 1.787451e+002
5.263083e+002, 1.783521e+002
5.267905e+002, 1.780640e+002
5.272726e+002, 1.780833e+002
5.277547e+002, 1.789316e+002
5.282368e+002, 1.798564e+002
5.287189e+002, 1.797342e+002
5.292010e+002, 1.786369e+002
5.296832e+002, 1.779012e+002
5.301653e+002, 1.786241e+002
5.306474e+002, 1.805223e+002
5.311295e+002, 1.816900e+002
5.316116e+002, 1.818438e+002
5.320938e+002, 1.815533e+002
5.325759e+002, 1.798246e+002
5.330580e+002, 1.783130e+002
5.335401e+002, 1.789649e+002
5.340222e+002, 1.817425e+002
5.345043e+002, 1.845500e+002
5.349865e+002, 1.852033e+002
5.354686e+002, 1.839522e+002
5.359507e+002, 1.838160e+002
5.364328e+002, 1.855933e+002
5.369149e+002, 1.869825e+002
5.373970e+002, 1.867591e+002
5.378792e+002, 1.859392e+002
5.383613e+002, 1.855580e+002
5.388434e+002, 1.858369e+002
5.393255e+002, 1.863198e+002
5.398076e+002, 1.865688e+002
5.402897e+002, 1.867675e+002
5.407719e+002, 1.876487e+002
5.412540e+002, 1.894633e+002
5.417361e+002, 1.907786e+002
5.422182e+002, 1.900626e+002
5.427003e+002, 1.879741e+002
5.431824e+002, 1.877141e+002
5.436646e+002, 1.911725e+002
5.441467e+002, 1.939542e+002
5.446288e+002, 1.938993e+002
5.451109e+002, 1.925815e+002
5.455930e+002, 1.920604e+002
5.460751e+002, 1.927755e+002
5.465573e+002, 1.939676e+002
5.470394e+002, 1.949213e+002
5.475215e+002, 1.956336e+002
5.480036e+002, 1.960627e+002
5.484857e+002, 1.954951e+002
5.489678e+002, 1.954736e+002
5.494500e+002, 1.967396e+002
5.499321e+002, 1.984586e+002
5.504142e+002, 1.997089e+002
5.508963e+002, 2.002587e+002
5.513784e+002, 2.005663e+002
5.518605e+002, 2.010708e+002
5.523427e+002, 2.017683e+002
5.528248e+002, 2.026503e+002
5.533069e+002, 2.038650e+002
5.537890e+002, 2.049578e+002
5.542711e+002, 2.055033e+002
5.547532e+002, 2.058048e+002
5.552354e+002, 2.063443e+002
5.557175e+002, 2.073572e+002
5.561996e+002, 2.081906e+002
5.566817e+002, 2.081025e+002
5.571638e+002, 2.076055e+002
5.576459e+002, 2.078245e+002
5.581281e+002, 2.089727e+002
5.586102e+002, 2.103384e+002
5.590923e+002, 2.112443e+002
5.595744e+002, 2.117434e+002
5.600565e+002, 2.129178e+002
5.605386e+002, 2.156833e+002
5.610208e+002, 2.178736e+002
5.615029e+002, 2.186752e+002
5.619850e+002, 2.188087e+002
5.624671e+002, 2.188340e+002
5.629492e+002, 2.190152e+002
5.634313e+002, 2.198292e+002
5.639135e+002, 2.220212e+002
5.643956e+002, 2.255521e+002
5.648777e+002, 2.278420e+002
5.653598e+002, 2.281113e+002
5.658419e+002, 2.283454e+002
5.663240e+002, 2.289146e+002
5.668062e+002, 2.298911e+002
5.672883e+002, 2.315779e+002
5.677704e+002, 2.340501e+002
5.682525e+002, 2.363114e+002
5.687346e+002, 2.373217e+002
5.692167e+002, 2.375395e+002
5.696989e+002, 2.385768e+002
5.701810e+002, 2.408020e+002
5.706631e+002, 2.418129e+002
5.711452e+002, 2.389425e+002
5.716273e+002, 2.340653e+002
5.721094e+002, 2.336729e+002
5.725916e+002, 2.406145e+002
5.730737e+002, 2.465563e+002
5.735558e+002, 2.485730e+002
5.740379e+002, 2.488872e+002
5.745200e+002, 2.495964e+002
5.750021e+002, 2.510438e+002
5.754843e+002, 2.527608e+002
5.759664e+002, 2.543513e+002
5.764485e+002, 2.558897e+002
5.769306e+002, 2.578825e+002
5.774127e+002, 2.607116e+002
5.778948e+002, 2.633790e+002
5.783770e+002, 2.659449e+002
5.788591e+002, 2.681580e+002
5.793412e+002, 2.697203e+002
5.798233e+002, 2.706768e+002
5.803054e+002, 2.714713e+002
5.807875e+002, 2.723448e+002
5.812697e+002, 2.733056e+002
5.817518e+002, 2.744507e+002
5.822339e+002, 2.758288e+002
5.827161e+002, 2.769362e+002
5.831982e+002, 2.773972e+002
5.836803e+002, 2.776420e+002
5.841624e+002, 2.782221e+002
5.846445e+002, 2.791015e+002
5.851266e+002, 2.805123e+002
5.856088e+002, 2.829944e+002
5.860909e+002, 2.856699e+002
5.865730e+002, 2.876357e+002
5.870551e+002, 2.890706e+002
5.875372e+002, 2.908769e+002
5.880193e+002, 2.935566e+002
5.885015e+002, 2.965515e+002
5.889836e+002, 2.986165e+002
5.894657e+002, 2.994993e+002
5.899478e+002, 2.999648e+002
5.904299e+002, 2.995291e+002
5.909120e+002, 2.991946e+002
5.913942e+002, 2.992824e+002
5.918763e+002, 2.998668e+002
5.923584e+002, 3.011330e+002
5.928405e+002, 3.033129e+002
5.933226e+002, 3.056543e+002
5.938047e+002, 3.070507e+002
5.942869e+002, 3.075131e+002
5.947690e+002, 3.074149e+002
5.952511e+002, 3.063448e+002
5.957332e+002, 3.055684e+002
5.962153e+002, 3.066136e+002
5.966974e+002, 3.089419e+002
5.971796e+002, 3.107555e+002
5.976617e+002, 3.117257e+002
5.981438e+002, 3.121990e+002
5.986259e+002, 3.120891e+002
5.991080e+002, 3.116854e+002
5.995901e+002, 3.114420e+002
6.000723e+002, 3.114843e+002
6.005544e+002, 3.118098e+002
6.010365e+002, 3.124776e+002
6.015186e+002, 3.135066e+002
6.020007e+002, 3.141913e+002
6.024828e+002, 3.147632e+002
6.029650e+002, 3.146709e+002
6.034471e+002, 3.136054e+002
6.039292e+002, 3.119686e+002
6.044113e+002, 3.099337e+002
6.048934e+002, 3.076410e+002
6.053755e+002, 3.055899e+002
6.058577e+002, 3.040943e+002
6.063398e+002, 3.031910e+002
6.068219e+002, 3.033200e+002
6.073040e+002, 3.047751e+002
6.077861e+002, 3.055298e+002
6.082682e+002, 3.043647e+002
6.087504e+002, 3.021724e+002
6.092325e+002, 3.004242e+002
6.097146e+002, 2.990975e+002
6.101967e+002, 2.982462e+002
6.106788e+002, 2.986814e+002
6.111609e+002, 2.989837e+002
6.116431e+002, 2.975054e+002
6.121252e+002, 2.946876e+002
6.126073e+002, 2.921845e+002
6.130894e+002, 2.908489e+002
6.135715e+002, 2.904332e+002
6.140536e+002, 2.905576e+002
6.145358e+002, 2.918741e+002
6.150179e+002, 2.921125e+002
6.155000e+002, 2.909927e+002
6.159821e+002, 2.890664e+002
6.164642e+002, 2.857633e+002
6.169464e+002, 2.819514e+002
6.174285e+002, 2.791439e+002
6.179106e+002, 2.779441e+002
6.183927e+002, 2.778191e+002
6.188748e+002, 2.786635e+002
6.193569e+002, 2.801971e+002
6.198391e+002, 2.808895e+002
6.203212e+002, 2.804173e+002
6.208033e+002, 2.794091e+002
6.212854e+002, 2.782844e+002
6.217675e+002, 2.770288e+002
6.222496e+002, 2.756266e+002
6.227318e+002, 2.740060e+002
6.232139e+002, 2.723317e+002
6.236960e+002, 2.702714e+002
6.241781e+002, 2.684077e+002
6.246602e+002, 2.675410e+002
6.251423e+002, 2.676287e+002
6.256245e+002, 2.678936e+002
6.261066e+002, 2.677018e+002
6.265887e+002, 2.671964e+002
6.270708e+002, 2.671477e+002
6.275529e+002, 2.680738e+002
6.280350e+002, 2.681952e+002
6.285172e+002, 2.658171e+002
6.289993e+002, 2.635443e+002
6.294814e+002, 2.635272e+002
6.299635e+002, 2.653607e+002
6.304456e+002, 2.665788e+002
6.309277e+002, 2.657733e+002
6.314099e+002, 2.641031e+002
6.318920e+002, 2.626148e+002
6.323741e+002, 2.613352e+002
6.328562e+002, 2.603746e+002
6.333383e+002, 2.597730e+002
6.338204e+002, 2.594841e+002
6.343026e+002, 2.595099e+002
6.347847e+002, 2.599055e+002
6.352668e+002, 2.600967e+002
6.357489e+002, 2.602387e+002
6.362310e+002, 2.600237e+002
6.367131e+002, 2.590031e+002
6.371953e+002, 2.577567e+002
6.376774e+002, 2.570782e+002
6.381595e+002, 2.570641e+002
6.386416e+002, 2.569813e+002
6.391237e+002, 2.558452e+002
6.396058e+002, 2.540142e+002
6.400880e+002, 2.535177e+002
6.405701e+002, 2.547457e+002
6.410522e+002, 2.557545e+002
6.415343e+002, 2.557544e+002
6.420164e+002, 2.551743e+002
6.424985e+002, 2.544492e+002
6.429807e+002, 2.535308e+002
6.434628e+002, 2.531909e+002
6.439449e+002, 2.545648e+002
6.444270e+002, 2.558251e+002
6.449091e+002, 2.548445e+002
6.453912e+002, 2.525249e+002
6.458734e+002, 2.515253e+002
6.463555e+002, 2.529292e+002
6.468376e+002, 2.552838e+002
6.473197e+002, 2.562658e+002
6.478018e+002, 2.555089e+002
6.482839e+002, 2.555027e+002
6.487661e+002, 2.572731e+002
6.492482e+002, 2.585332e+002
6.497303e+002, 2.581438e+002
6.502124e+002, 2.570849e+002
6.506945e+002, 2.565309e+002
6.511766e+002, 2.567473e+002
6.516588e+002, 2.573515e+002
6.521409e+002, 2.582082e+002
6.526230e+002, 2.592051e+002
6.531051e+002, 2.601542e+002
6.535872e+002, 2.610390e+002
6.540693e+002, 2.617620e+002
6.545515e+002, 2.622433e+002
6.550336e+002, 2.625753e+002
6.555157e+002, 2.629720e+002
6.559978e+002, 2.635820e+002
6.564799e+002, 2.638803e+002
6.569620e+002, 2.636463e+002
6.574442e+002, 2.633124e+002
6.579263e+002, 2.628055e+002
6.584084e+002, 2.624388e+002
6.588905e+002, 2.628012e+002
6.593726e+002, 2.641260e+002
6.598547e+002, 2.658083e+002
6.603369e+002, 2.671299e+002
6.608190e+002, 2.680965e+002
6.613011e+002, 2.688340e+002
6.617832e+002, 2.693731e+002
6.622653e+002, 2.695906e+002
6.627474e+002, 2.691046e+002
6.632296e+002, 2.683825e+002
6.637117e+002, 2.683362e+002
6.641938e+002, 2.691040e+002
6.646759e+002, 2.701333e+002
6.651580e+002, 2.715516e+002
6.656401e+002, 2.729357e+002
6.661223e+002, 2.737141e+002
6.666044e+002, 2.740855e+002
6.670865e+002, 2.748148e+002
6.675686e+002, 2.763197e+002
6.680507e+002, 2.780600e+002
6.685328e+002, 2.787484e+002
6.690150e+002, 2.777628e+002
6.694971e+002, 2.785255e+002
6.699792e+002, 2.830918e+002
6.704613e+002, 2.868476e+002
6.709434e+002, 2.873915e+002
6.714255e+002, 2.860961e+002
6.719077e+002, 2.848273e+002
6.723898e+002, 2.838285e+002
6.728719e+002, 2.836472e+002
6.733540e+002, 2.852044e+002
6.738361e+002, 2.875351e+002
6.743182e+002, 2.889957e+002
6.748004e+002, 2.895901e+002
6.752825e+002, 2.906000e+002
6.757646e+002, 2.928732e+002
6.762467e+002, 2.956205e+002
6.767288e+002, 2.969213e+002
6.772109e+002, 2.955360e+002
6.776931e+002, 2.956321e+002
6.781752e+002, 2.979204e+002
6.786573e+002, 3.008093e+002
6.791394e+002, 3.040521e+002
6.796215e+002, 3.073005e+002
6.801036e+002, 3.100334e+002
6.805858e+002, 3.120482e+002
6.810679e+002, 3.137715e+002
6.815500e+002, 3.157366e+002
6.820321e+002, 3.177023e+002
6.825142e+002, 3.186513e+002
6.829963e+002, 3.184162e+002
6.834785e+002, 3.190438e+002
6.839606e+002, 3.220043e+002
6.844427e+002, 3.261593e+002
6.849248e+002, 3.288511e+002
6.854069e+002, 3.293419e+002
6.858890e+002, 3.300521e+002
6.863712e+002, 3.306514e+002
6.868533e+002, 3.318636e+002
6.873354e+002, 3.343382e+002
6.878175e+002, 3.376479e+002
6.882996e+002, 3.411810e+002
6.887817e+002, 3.446995e+002
6.892639e+002, 3.478918e+002
6.897460e+002, 3.498386e+002
6.902281e+002, 3.509135e+002
6.907102e+002, 3.539967e+002
6.911923e+002, 3.597474e+002
6.916744e+002, 3.649247e+002
6.921566e+002, 3.675263e+002
6.926387e+002, 3.688245e+002
6.931208e+002, 3.712214e+002
6.936029e+002, 3.748359e+002
6.940850e+002, 3.788220e+002
6.945671e+002, 3.834583e+002
6.950493e+002, 3.880193e+002
6.955314e+002, 3.915043e+002
6.960135e+002, 3.946742e+002
6.964956e+002, 3.990808e+002
6.969777e+002, 4.052525e+002
6.974598e+002, 4.123575e+002
6.979420e+002, 4.194289e+002
6.984241e+002, 4.264647e+002
6.989062e+002, 4.336271e+002
6.993883e+002, 4.413532e+002
6.998704e+002, 4.478765e+002
7.003525e+002, 4.509491e+002
7.008347e+002, 4.533926e+002
7.013168e+002, 4.593454e+002
7.017989e+002, 4.691329e+002
7.022810e+002, 4.782520e+002
7.027631e+002, 4.841461e+002
7.032452e+002, 4.901751e+002
7.037274e+002, 4.994586e+002
7.042095e+002, 5.104965e+002
7.046916e+002, 5.199636e+002
7.051737e+002, 5.268360e+002
7.056558e+002, 5.330140e+002
7.061379e+002, 5.405341e+002
7.066201e+002, 5.493688e+002
7.071022e+002, 5.592389e+002
7.075843e+002, 5.709504e+002
7.080664e+002, 5.818489e+002
7.085485e+002, 5.902866e+002
7.090306e+002, 5.981171e+002
7.095128e+002, 6.069193e+002
7.099949e+002, 6.167368e+002
7.104770e+002, 6.267837e+002
7.109591e+002, 6.372523e+002
7.114412e+002, 6.474655e+002
7.119233e+002, 6.566833e+002
7.124055e+002, 6.653326e+002
7.128876e+002, 6.741573e+002
7.133697e+002, 6.833009e+002
7.138518e+002, 6.925236e+002
7.143339e+002, 7.017095e+002
7.148160e+002, 7.106688e+002
7.152982e+002, 7.176790e+002
7.157803e+002, 7.219760e+002
7.162624e+002, 7.261609e+002
7.167445e+002, 7.318087e+002
7.172266e+002, 7.365505e+002
7.177087e+002, 7.374023e+002
7.181909e+002, 7.356272e+002
7.186730e+002, 7.365793e+002
7.191551e+002, 7.441959e+002
7.196372e+002, 7.519202e+002
7.201193e+002, 7.552849e+002
7.206014e+002, 7.557660e+002
7.210836e+002, 7.557167e+002
7.215657e+002, 7.555655e+002
7.220478e+002, 7.548151e+002
7.225299e+002, 7.530818e+002
7.230120e+002, 7.504805e+002
7.234941e+002, 7.476091e+002
7.239763e+002, 7.449445e+002
7.244584e+002, 7.406152e+002
7.249405e+002, 7.330314e+002
7.254226e+002, 7.252054e+002
7.259047e+002, 7.179314e+002
7.263868e+002, 7.117507e+002
7.268690e+002, 7.081307e+002
7.273511e+002, 7.087474e+002
7.278332e+002, 7.081422e+002
7.283153e+002, 7.024546e+002
7.287974e+002, 6.939904e+002
7.292795e+002, 6.849786e+002
7.297617e+002, 6.760654e+002
7.302438e+002, 6.687902e+002
7.307259e+002, 6.641329e+002
7.312080e+002, 6.602533e+002
7.316901e+002, 6.529454e+002
7.321722e+002, 6.408413e+002
7.326544e+002, 6.312391e+002
7.331365e+002, 6.253824e+002
7.336186e+002, 6.203003e+002
7.341007e+002, 6.158205e+002
7.345828e+002, 6.108778e+002
7.350649e+002, 6.038033e+002
7.355471e+002, 5.942194e+002
7.360292e+002, 5.846162e+002
7.365113e+002, 5.759974e+002
7.369934e+002, 5.680731e+002
7.374755e+002, 5.608514e+002
7.379576e+002, 5.540311e+002
7.384398e+002, 5.467675e+002
7.389219e+002, 5.387469e+002
7.394040e+002, 5.308282e+002
7.398861e+002, 5.241725e+002
7.403682e+002, 5.187252e+002
7.408503e+002, 5.125972e+002
7.413325e+002, 5.049639e+002
7.418146e+002, 4.983882e+002
7.422967e+002, 4.948757e+002
7.427788e+002, 4.917340e+002
7.432609e+002, 4.866162e+002
7.437430e+002, 4.796642e+002
7.442252e+002, 4.727704e+002
7.447073e+002, 4.664611e+002
7.451894e+002, 4.603880e+002
7.456715e+002, 4.542611e+002
7.461536e+002, 4.483036e+002
7.466357e+002, 4.432208e+002
7.471179e+002, 4.389210e+002
7.476000e+002, 4.342231e+002
7.480821e+002, 4.280442e+002
7.485642e+002, 4.209926e+002
7.490463e+002, 4.149299e+002
7.495284e+002, 4.098871e+002
7.500106e+002, 4.056927e+002
7.504927e+002, 4.028768e+002
7.509748e+002, 4.001247e+002
7.514569e+002, 3.962599e+002
7.519390e+002, 3.918385e+002
7.524211e+002, 3.880801e+002
7.529033e+002, 3.852833e+002
7.533854e+002, 3.827044e+002
7.538675e+002, 3.805383e+002
7.543496e+002, 3.781007e+002
7.548317e+002, 3.743987e+002
7.553138e+002, 3.698567e+002
7.557960e+002, 3.656461e+002
7.562781e+002, 3.622967e+002
7.567602e+002, 3.597185e+002
7.572423e+002, 3.579788e+002
7.577244e+002, 3.570514e+002
7.582065e+002, 3.558983e+002
7.586887e+002, 3.546998e+002
7.591708e+002, 3.525191e+002
7.596529e+002, 3.480727e+002
7.601350e+002, 3.432003e+002
7.606171e+002, 3.409633e+002
7.610992e+002, 3.415375e+002
7.615814e+002, 3.415081e+002
7.620635e+002, 3.400406e+002
7.625456e+002, 3.383660e+002
7.630277e+002, 3.371378e+002
7.635098e+002, 3.359838e+002
7.639919e+002, 3.342344e+002
7.644741e+002, 3.318983e+002
7.649562e+002, 3.297505e+002
7.654383e+002, 3.284741e+002
7.659204e+002, 3.277020e+002
7.664025e+002, 3.265673e+002
7.668846e+002, 3.250961e+002
7.673668e+002, 3.239668e+002
7.678489e+002, 3.233591e+002
7.683310e+002, 3.230242e+002
7.688131e+002, 3.229875e+002
7.692952e+002, 3.230531e+002
7.697773e+002, 3.220934e+002
7.702595e+002, 3.186236e+002
7.707416e+002, 3.163344e+002
7.712237e+002, 3.165827e+002
7.717058e+002, 3.170081e+002
7.721879e+002, 3.158593e+002
7.726700e+002, 3.137839e+002
7.731522e+002, 3.124333e+002
7.736343e+002, 3.124839e+002
7.741164e+002, 3.125572e+002
7.745985e+002, 3.112098e+002
7.750806e+002, 3.089575e+002
7.755627e+002, 3.066359e+002
7.760449e+002, 3.043905e+002
7.765270e+002, 3.032674e+002
7.770091e+002, 3.038510e+002
7.774912e+002, 3.051932e+002
7.779733e+002, 3.059384e+002
7.784554e+002, 3.060804e+002
7.789376e+002, 3.057189e+002
7.794197e+002, 3.043352e+002
7.799019e+002, 3.031529e+002
7.803840e+002, 3.024716e+002
7.808661e+002, 3.020493e+002
7.813482e+002, 3.016979e+002
7.818303e+002, 3.014003e+002
7.823124e+002, 3.011951e+002
7.827946e+002, 3.009938e+002
7.832767e+002, 3.010124e+002
7.837588e+002, 3.018689e+002
7.842409e+002, 3.029074e+002
7.847230e+002, 3.026786e+002
7.852051e+002, 3.011631e+002
7.856873e+002, 2.998542e+002
7.861694e+002, 2.998452e+002
7.866515e+002, 3.005300e+002
7.871336e+002, 3.002964e+002
7.876157e+002, 2.989527e+002
7.880978e+002, 2.977630e+002
7.885800e+002, 2.967840e+002
7.890621e+002, 2.960269e+002
7.895442e+002, 2.957254e+002
7.900263e+002, 2.955595e+002
7.905084e+002, 2.949744e+002
7.909905e+002, 2.938675e+002
7.914727e+002, 2.927913e+002
7.919548e+002, 2.916601e+002
7.924369e+002, 2.908318e+002
7.929190e+002, 2.907418e+002
7.934011e+002, 2.910254e+002
7.938832e+002, 2.911506e+002
7.943654e+002, 2.909531e+002
7.948475e+002, 2.904649e+002
7.953296e+002, 2.896438e+002
7.958117e+002, 2.886005e+002
7.962938e+002, 2.873010e+002
7.967759e+002, 2.857718e+002
7.972581e+002, 2.859780e+002
7.977402e+002, 2.888539e+002
7.982223e+002, 2.916752e+002
7.987044e+002, 2.920047e+002
7.991865e+002, 2.902360e+002
7.996686e+002, 2.887326e+002
8.001508e+002, 2.871203e+002
8.006329e+002, 2.863373e+002
8.011150e+002, 2.870600e+002
8.015971e+002, 2.879667e+002
8.020792e+002, 2.886952e+002
8.025613e+002, 2.889595e+002
8.030435e+002, 2.881763e+002
8.035256e+002, 2.860989e+002
8.040077e+002, 2.840890e+002
8.044898e+002, 2.834103e+002
8.049719e+002, 2.832667e+002
8.054540e+002, 2.821962e+002
8.059362e+002, 2.805367e+002
8.064183e+002, 2.800639e+002
8.069004e+002, 2.814018e+002
8.073825e+002, 2.829992e+002
8.078646e+002, 2.830161e+002
8.083467e+002, 2.815844e+002
8.088289e+002, 2.803350e+002
8.093110e+002, 2.792120e+002
8.097931e+002, 2.784271e+002
8.102752e+002, 2.781283e+002
8.107573e+002, 2.780766e+002
8.112394e+002, 2.784625e+002
8.117216e+002, 2.789640e+002
8.122037e+002, 2.784069e+002
8.126858e+002, 2.757328e+002
8.131679e+002, 2.736407e+002
8.136500e+002, 2.736326e+002
8.141321e+002, 2.740837e+002
8.146143e+002, 2.734475e+002
8.150964e+002, 2.720901e+002
8.155785e+002, 2.711962e+002
8.160606e+002, 2.712435e+002
8.165427e+002, 2.716354e+002
8.170248e+002, 2.719336e+002
8.175070e+002, 2.720040e+002
8.179891e+002, 2.710580e+002
8.184712e+002, 2.690892e+002
8.189533e+002, 2.679672e+002
8.194354e+002, 2.685337e+002
8.199175e+002, 2.694791e+002
8.203997e+002, 2.692561e+002
8.208818e+002, 2.678883e+002
8.213639e+002, 2.667955e+002
8.218460e+002, 2.658609e+002
8.223281e+002, 2.653993e+002
8.228102e+002, 2.662813e+002
8.232924e+002, 2.668607e+002
8.237745e+002, 2.656269e+002
8.242566e+002, 2.632645e+002
8.247387e+002, 2.616418e+002
8.252208e+002, 2.614388e+002
8.257029e+002, 2.615241e+002
8.261851e+002, 2.615711e+002
8.266672e+002, 2.612889e+002
8.271493e+002, 2.597217e+002
8.276314e+002, 2.575046e+002
8.281135e+002, 2.569632e+002
8.285956e+002, 2.589087e+002
8.290778e+002, 2.610038e+002
8.295599e+002, 2.600441e+002
8.300420e+002, 2.566575e+002
8.305241e+002, 2.552638e+002
8.310062e+002, 2.561833e+002
8.314883e+002, 2.570912e+002
8.319705e+002, 2.574825e+002
8.324526e+002, 2.574083e+002
8.329347e+002, 2.567566e+002
8.334168e+002, 2.556113e+002
8.338989e+002, 2.548078e+002
8.343810e+002, 2.548560e+002
8.348632e+002, 2.544671e+002
8.353453e+002, 2.528931e+002
8.358274e+002, 2.514577e+002
8.363095e+002, 2.513243e+002
8.367916e+002, 2.518483e+002
8.372737e+002, 2.516129e+002
8.377559e+002, 2.501545e+002
8.382380e+002, 2.487467e+002
8.387201e+002, 2.484288e+002
8.392022e+002, 2.486303e+002
8.396843e+002, 2.488049e+002
8.401664e+002, 2.488154e+002
8.406486e+002, 2.481972e+002
8.411307e+002, 2.468523e+002
8.416128e+002, 2.454960e+002
8.420949e+002, 2.448111e+002
8.425770e+002, 2.447415e+002
8.430591e+002, 2.452159e+002
8.435413e+002, 2.464720e+002
8.440234e+002, 2.469944e+002
8.445055e+002, 2.462626e+002
8.449876e+002, 2.452969e+002
8.454697e+002, 2.448888e+002
8.459518e+002, 2.447397e+002
8.464340e+002, 2.439166e+002
8.469161e+002, 2.419637e+002
8.473982e+002, 2.405923e+002
8.478803e+002, 2.406487e+002
8.483624e+002, 2.406006e+002
8.488445e+002, 2.394642e+002
8.493267e+002, 2.378617e+002
8.498088e+002, 2.366037e+002
8.502909e+002, 2.358573e+002
8.507730e+002, 2.354432e+002
8.512551e+002, 2.355038e+002
8.517372e+002, 2.355741e+002
8.522194e+002, 2.350991e+002
8.527015e+002, 2.341896e+002
8.531836e+002, 2.325501e+002
8.536657e+002, 2.303981e+002
8.541478e+002, 2.301611e+002
8.546299e+002, 2.337777e+002
8.551121e+002, 2.389399e+002
8.555942e+002, 2.402242e+002
8.560763e+002, 2.371046e+002
8.565584e+002, 2.342116e+002
8.570405e+002, 2.313507e+002
8.575226e+002, 2.296401e+002
8.580048e+002, 2.300050e+002
8.584869e+002, 2.313820e+002
8.589690e+002, 2.324720e+002
8.594511e+002, 2.333118e+002
8.599332e+002, 2.333140e+002
8.604153e+002, 2.317361e+002
8.608975e+002, 2.302494e+002
8.613796e+002, 2.295617e+002
8.618617e+002, 2.289515e+002
8.623438e+002, 2.273786e+002
8.628259e+002, 2.253097e+002
8.633080e+002, 2.243439e+002
8.637902e+002, 2.253219e+002
8.642723e+002, 2.267741e+002
8.647544e+002, 2.279497e+002
8.652365e+002, 2.285603e+002
8.657186e+002, 2.277320e+002
8.662007e+002, 2.258569e+002
8.666829e+002, 2.246820e+002
8.671650e+002, 2.248353e+002
8.676471e+002, 2.249252e+002
8.681292e+002, 2.230109e+002
8.686113e+002, 2.196743e+002
8.690934e+002, 2.186241e+002
8.695756e+002, 2.201976e+002
8.700577e+002, 2.216652e+002
8.705398e+002, 2.225602e+002
8.710219e+002, 2.229553e+002
8.715040e+002, 2.228766e+002
8.719861e+002, 2.223506e+002
8.724683e+002, 2.214378e+002
8.729504e+002, 2.197183e+002
8.734325e+002, 2.184037e+002
8.739146e+002, 2.173988e+002
8.743967e+002, 2.169202e+002
8.748788e+002, 2.177247e+002
8.753610e+002, 2.187507e+002
8.758431e+002, 2.184473e+002
8.763252e+002, 2.167081e+002
8.768073e+002, 2.152231e+002
8.772894e+002, 2.150762e+002
8.777715e+002, 2.151795e+002
8.782537e+002, 2.146749e+002
8.787358e+002, 2.138883e+002
8.792179e+002, 2.131481e+002
8.797000e+002, 2.126103e+002
8.801821e+002, 2.127151e+002
8.806642e+002, 2.137788e+002
8.811464e+002, 2.149100e+002
8.816285e+002, 2.144267e+002
8.821106e+002, 2.127169e+002
8.825927e+002, 2.122263e+002
8.830748e+002, 2.131085e+002
8.835569e+002, 2.134389e+002
8.840391e+002, 2.124615e+002
8.845212e+002, 2.107214e+002
8.850033e+002, 2.086449e+002
8.854854e+002, 2.063123e+002
8.859675e+002, 2.051700e+002
8.864496e+002, 2.060125e+002
8.869318e+002, 2.064734e+002
8.874139e+002, 2.057215e+002
8.878960e+002, 2.050919e+002
8.883781e+002, 2.058422e+002
8.888602e+002, 2.071025e+002
8.893423e+002, 2.069494e+002
8.898245e+002, 2.047239e+002
8.903066e+002, 2.031441e+002
8.907887e+002, 2.036079e+002
8.912708e+002, 2.042278e+002
8.917529e+002, 2.039087e+002
8.922350e+002, 2.030476e+002
8.927172e+002, 2.018759e+002
8.931993e+002, 2.007092e+002
8.936814e+002, 2.006149e+002
8.941635e+002, 2.027856e+002
8.946456e+002, 2.051708e+002
8.951277e+002, 2.046738e+002
8.956099e+002, 2.026774e+002
8.960920e+002, 2.027999e+002
8.965741e+002, 2.049477e+002
8.970562e+002, 2.057341e+002
8.975383e+002, 2.034787e+002
8.980204e+002, 2.005658e+002
8.985026e+002, 2.006695e+002
8.989847e+002, 2.034881e+002
8.994668e+002, 2.051317e+002
8.999489e+002, 2.055061e+002
9.004310e+002, 2.051501e+002
9.009131e+002, 2.038187e+002
9.013953e+002, 2.027041e+002
9.018774e+002, 2.031433e+002
9.023595e+002, 2.046051e+002
9.028416e+002, 2.046265e+002
9.033237e+002, 2.019608e+002
9.038058e+002, 2.001268e+002
9.042880e+002, 1.996861e+002
9.047701e+002, 1.994019e+002
9.052522e+002, 1.984417e+002
9.057343e+002, 1.975619e+002
9.062164e+002, 1.980716e+002
9.066985e+002, 1.999617e+002
9.071807e+002, 2.010751e+002
9.076628e+002, 1.996030e+002
9.081449e+002, 1.983872e+002
9.086270e+002, 1.993758e+002
9.091091e+002, 2.011829e+002
9.095912e+002, 2.023974e+002
9.100734e+002, 2.029320e+002
9.105555e+002, 2.030199e+002
9.110376e+002, 2.027233e+002
9.115197e+002, 2.029392e+002
9.120018e+002, 2.050887e+002
9.124839e+002, 2.082321e+002
9.129661e+002, 2.102597e+002
9.134482e+002, 2.114014e+002
9.139303e+002, 2.129686e+002
9.144124e+002, 2.153392e+002
9.148945e+002, 2.182270e+002
9.153766e+002, 2.214275e+002
9.158588e+002, 2.248674e+002
9.163409e+002, 2.282758e+002
9.168230e+002, 2.315881e+002
9.173051e+002, 2.354572e+002
9.177872e+002, 2.398292e+002
9.182693e+002, 2.450657e+002
9.187515e+002, 2.513173e+002
9.192336e+002, 2.585394e+002
9.197157e+002, 2.667633e+002
9.201978e+002, 2.761544e+002
9.206799e+002, 2.851971e+002
9.211620e+002, 2.931177e+002
9.216442e+002, 3.017608e+002
9.221263e+002, 3.129016e+002
9.226084e+002, 3.233661e+002
9.230905e+002, 3.312294e+002
9.235726e+002, 3.367202e+002
9.240547e+002, 3.407046e+002
9.245369e+002, 3.433960e+002
9.250190e+002, 3.441853e+002
9.255011e+002, 3.431059e+002
9.259832e+002, 3.397983e+002
9.264653e+002, 3.334953e+002
9.269474e+002, 3.250596e+002
9.274296e+002, 3.148746e+002
9.279117e+002, 3.036555e+002
9.283938e+002, 2.936456e+002
9.288759e+002, 2.865499e+002
9.293580e+002, 2.802365e+002
9.298401e+002, 2.718950e+002
9.303223e+002, 2.628887e+002
9.308044e+002, 2.559712e+002
9.312865e+002, 2.510099e+002
9.317686e+002, 2.461009e+002
9.322507e+002, 2.405230e+002
9.327328e+002, 2.356148e+002
9.332150e+002, 2.331578e+002
9.336971e+002, 2.324717e+002
9.341792e+002, 2.306951e+002
9.346613e+002, 2.278354e+002
9.351434e+002, 2.262618e+002
9.356255e+002, 2.266429e+002
9.361077e+002, 2.267495e+002
9.365898e+002, 2.250689e+002
9.370719e+002, 2.222381e+002
9.375540e+002, 2.195670e+002
9.380361e+002, 2.169928e+002
9.385182e+002, 2.149519e+002
9.390004e+002, 2.132789e+002
9.394825e+002, 2.124974e+002
9.399646e+002, 2.134011e+002
9.404467e+002, 2.146086e+002
9.409288e+002, 2.146846e+002
9.414109e+002, 2.139418e+002
9.418931e+002, 2.138038e+002
9.423752e+002, 2.151574e+002
9.428573e+002, 2.155653e+002
9.433394e+002, 2.136212e+002
9.438215e+002, 2.119046e+002
9.443036e+002, 2.122195e+002
9.447858e+002, 2.132736e+002
9.452679e+002, 2.132744e+002
9.457500e+002, 2.120595e+002
9.462321e+002, 2.107833e+002
9.467142e+002, 2.098296e+002
9.471964e+002, 2.090856e+002
9.476785e+002, 2.086751e+002
9.481606e+002, 2.082934e+002
9.486427e+002, 2.077093e+002
9.491248e+002, 2.068349e+002
9.496069e+002, 2.054295e+002
9.500891e+002, 2.034380e+002
9.505712e+002, 2.015082e+002
9.510533e+002, 2.001665e+002
9.515354e+002, 1.993089e+002
9.520175e+002, 1.990394e+002
9.524996e+002, 1.990749e+002
9.529818e+002, 1.985386e+002
9.534639e+002, 1.973298e+002
9.539460e+002, 1.960275e+002
9.544281e+002, 1.949876e+002
9.549102e+002, 1.940982e+002
9.553923e+002, 1.932032e+002
9.558745e+002, 1.922935e+002
9.563566e+002, 1.912692e+002
9.568387e+002, 1.901140e+002
9.573208e+002, 1.892545e+002
9.578029e+002, 1.888905e+002
9.582850e+002, 1.884753e+002
9.587672e+002, 1.875403e+002
9.592493e+002, 1.861048e+002
9.597314e+002, 1.841728e+002
9.602135e+002, 1.815212e+002
9.606956e+002, 1.791566e+002
9.611777e+002, 1.771394e+002
9.616599e+002, 1.753847e+002
9.621420e+002, 1.739484e+002
9.626241e+002, 1.726770e+002
9.631062e+002, 1.713169e+002
9.635883e+002, 1.698720e+002
9.640704e+002, 1.688188e+002
9.645526e+002, 1.688977e+002
9.650347e+002, 1.682522e+002
9.655168e+002, 1.661513e+002
9.659989e+002, 1.638943e+002
9.664810e+002, 1.619534e+002
9.669631e+002, 1.604146e+002
9.674453e+002, 1.595014e+002
9.679274e+002, 1.592592e+002
9.684095e+002, 1.587259e+002
9.688916e+002, 1.573940e+002
9.693737e+002, 1.560078e+002
9.698558e+002, 1.550390e+002
9.703380e+002, 1.540463e+002
9.708201e+002, 1.522713e+002
9.713022e+002, 1.501691e+002
9.717843e+002, 1.489729e+002
9.722664e+002, 1.491354e+002
9.727485e+002, 1.495094e+002
9.732307e+002, 1.494688e+002
9.737128e+002, 1.491519e+002
9.741949e+002, 1.489402e+002
9.746770e+002, 1.484405e+002
9.751591e+002, 1.465053e+002
9.756412e+002, 1.434337e+002
9.761234e+002, 1.411224e+002
9.766055e+002, 1.406136e+002
9.770876e+002, 1.411668e+002
9.775698e+002, 1.425777e+002
9.780519e+002, 1.441118e+002
9.785340e+002, 1.439625e+002
9.790161e+002, 1.424023e+002
9.794982e+002, 1.406941e+002
9.799803e+002, 1.392150e+002
9.804625e+002, 1.381196e+002
9.809446e+002, 1.376006e+002
9.814267e+002, 1.372939e+002
9.819088e+002, 1.362363e+002
9.823909e+002, 1.345572e+002
9.828730e+002, 1.336609e+002
9.833552e+002, 1.336566e+002
9.838373e+002, 1.332676e+002
9.843194e+002, 1.319456e+002
9.848015e+002, 1.306355e+002
9.852836e+002, 1.303827e+002
9.857657e+002, 1.309527e+002
9.862479e+002, 1.312090e+002
9.867300e+002, 1.311601e+002
9.872121e+002, 1.306648e+002
9.876942e+002, 1.294458e+002
9.881763e+002, 1.286033e+002
9.886584e+002, 1.288745e+002
9.891406e+002, 1.294145e+002
9.896227e+002, 1.289642e+002
9.901048e+002, 1.275367e+002
9.905869e+002, 1.269746e+002
9.910690e+002, 1.280689e+002
9.915511e+002, 1.284689e+002
9.920333e+002, 1.273519e+002
9.925154e+002, 1.262311e+002
9.929975e+002, 1.262090e+002
9.934796e+002, 1.265294e+002
9.939617e+002, 1.258190e+002
9.944438e+002, 1.239077e+002
9.949260e+002, 1.227780e+002
9.954081e+002, 1.233521e+002
9.958902e+002, 1.236061e+002
9.963723e+002, 1.223660e+002
9.968544e+002, 1.214049e+002
9.973365e+002, 1.223249e+002
9.978187e+002, 1.242734e+002
9.983008e+002, 1.257344e+002
9.987829e+002, 1.265467e+002
9.992650e+002, 1.260980e+002
9.997471e+002, 1.227669e+002
1.000229e+003, 1.199037e+002
1.000711e+003, 1.190985e+002
1.001193e+003, 1.194463e+002
1.001676e+003, 1.207313e+002
1.002158e+003, 1.222572e+002
1.002640e+003, 1.224599e+002
1.003122e+003, 1.207348e+002
1.003604e+003, 1.191965e+002
1.004086e+003, 1.191658e+002
1.004568e+003, 1.196551e+002
1.005050e+003, 1.204248e+002
1.005533e+003, 1.208832e+002
1.006015e+003, 1.196985e+002
1.006497e+003, 1.174106e+002
1.006979e+003, 1.163835e+002
1.007461e+003, 1.177910e+002
1.007943e+003, 1.193136e+002
1.008425e+003, 1.185413e+002
1.008907e+003, 1.170066e+002
1.009389e+003, 1.165566e+002
1.009872e+003, 1.169581e+002
1.010354e+003, 1.179189e+002
1.010836e+003, 1.191249e+002
1.011318e+003, 1.195250e+002
1.011800e+003, 1.184100e+002
1.012282e+003, 1.171148e+002
1.012764e+003, 1.175660e+002
1.013246e+003, 1.189372e+002
1.013729e+003, 1.195407e+002
1.014211e+003, 1.194122e+002
1.014693e+003, 1.188033e+002
1.015175e+003, 1.178306e+002
1.015657e+003, 1.167644e+002
1.016139e+003, 1.157431e+002
1.016621e+003, 1.150325e+002
1.017103e+003, 1.155401e+002
1.017585e+003, 1.167798e+002
1.018068e+003, 1.160416e+002
1.018550e+003, 1.135554e+002
1.019032e+003, 1.126121e+002
1.019514e+003, 1.141415e+002
1.019996e+003, 1.160492e+002
1.020478e+003, 1.166786e+002
1.020960e+003, 1.164075e+002
1.021442e+003, 1.160512e+002
1.021924e+003, 1.156075e+002
1.022407e+003, 1.149003e+002
1.022889e+003, 1.138977e+002
1.023371e+003, 1.130783e+002
1.023853e+003, 1.125544e+002
1.024335e+003, 1.125600e+002
1.024817e+003, 1.134705e+002
1.025299e+003, 1.147713e+002
1.025781e+003, 1.147464e+002
1.026264e+003, 1.132105e+002
1.026746e+003, 1.117861e+002
1.027228e+003, 1.103919e+002
1.027710e+003, 1.097598e+002
1.028192e+003, 1.102963e+002
1.028674e+003, 1.112778e+002
1.029156e+003, 1.121758e+002
1.029638e+003, 1.128330e+002
1.030120e+003, 1.124263e+002
1.030603e+003, 1.103063e+002
1.031085e+003, 1.097012e+002
1.031567e+003, 1.114712e+002
1.032049e+003, 1.127119e+002
1.032531e+003, 1.121421e+002
1.033013e+003, 1.111465e+002
1.033495e+003, 1.111816e+002
1.033977e+003, 1.119695e+002
1.034459e+003, 1.120651e+002
1.034942e+003, 1.109411e+002
1.035424e+003, 1.104045e+002
1.035906e+003, 1.109140e+002
1.036388e+003, 1.112422e+002
1.036870e+003, 1.109681e+002
1.037352e+003, 1.103232e+002
1.037834e+003, 1.090766e+002
1.038316e+003, 1.075594e+002
1.038799e+003, 1.078019e+002
1.039281e+003, 1.115741e+002
1.039763e+003, 1.136574e+002
1.040245e+003, 1.129449e+002
1.040727e+003, 1.119793e+002
1.041209e+003, 1.115602e+002
1.041691e+003, 1.112596e+002
1.042173e+003, 1.104203e+002
1.042656e+003, 1.092726e+002
1.043138e+003, 1.091307e+002
1.043620e+003, 1.112022e+002
1.044102e+003, 1.119450e+002
1.044584e+003, 1.098332e+002
1.045066e+003, 1.079991e+002
1.045548e+003, 1.076936e+002
1.046030e+003, 1.081036e+002
1.046512e+003, 1.087500e+002
1.046995e+003, 1.094268e+002
1.047477e+003, 1.093943e+002
1.047959e+003, 1.082898e+002
1.048441e+003, 1.071312e+002
1.048923e+003, 1.056799e+002
1.049405e+003, 1.046835e+002
1.049887e+003, 1.046321e+002
1.050369e+003, 1.050439e+002
1.050851e+003, 1.055201e+002
1.051334e+003, 1.060220e+002
1.051816e+003, 1.066091e+002
1.052298e+003, 1.075511e+002
1.052780e+003, 1.078600e+002
1.053262e+003, 1.064764e+002
1.053744e+003, 1.054203e+002
1.054226e+003, 1.061058e+002
1.054708e+003, 1.071974e+002
1.055191e+003, 1.072785e+002
1.055673e+003, 1.065135e+002
1.056155e+003, 1.058698e+002
1.056637e+003, 1.055438e+002
1.057119e+003, 1.053709e+002
1.057601e+003, 1.052568e+002
1.058083e+003, 1.053370e+002
1.058565e+003, 1.059594e+002
1.059047e+003, 1.065890e+002
1.059530e+003, 1.065264e+002
1.060012e+003, 1.060056e+002
1.060494e+003, 1.059322e+002
1.060976e+003, 1.066722e+002
1.061458e+003, 1.071444e+002
1.061940e+003, 1.065859e+002
1.062422e+003, 1.061248e+002
1.062904e+003, 1.067810e+002
1.063386e+003, 1.074839e+002
1.063869e+003, 1.068252e+002
1.064351e+003, 1.053180e+002
1.064833e+003, 1.046832e+002
1.065315e+003, 1.054904e+002
1.065797e+003, 1.060814e+002
1.066279e+003, 1.057921e+002
1.066761e+003, 1.051092e+002
1.067243e+003, 1.037151e+002
1.067726e+003, 1.025267e+002
1.068208e+003, 1.028731e+002
1.068690e+003, 1.040634e+002
1.069172e+003, 1.041894e+002
1.069654e+003, 1.027054e+002
1.070136e+003, 1.015878e+002
1.070618e+003, 1.023828e+002
1.071100e+003, 1.029033e+002
1.071583e+003, 1.011978e+002
1.072065e+003, 9.936343e+001
1.072547e+003, 9.968485e+001
1.073029e+003, 1.013787e+002
1.073511e+003, 1.025646e+002
1.073993e+003, 1.028072e+002
1.074475e+003, 1.026585e+002
1.074957e+003, 1.021806e+002
1.075439e+003, 1.015991e+002
1.075922e+003, 1.008499e+002
1.076404e+003, 1.002045e+002
1.076886e+003, 9.993044e+001
1.077368e+003, 9.992790e+001
1.077850e+003, 1.000380e+002
1.078332e+003, 1.002110e+002
1.078814e+003, 1.002941e+002
1.079296e+003, 9.994786e+001
1.079779e+003, 9.988279e+001
1.080261e+003, 1.007790e+002
1.080743e+003, 1.017661e+002
1.081225e+003, 1.021801e+002
1.081707e+003, 1.021621e+002
1.082189e+003, 1.019329e+002
1.082671e+003, 1.015752e+002
1.083153e+003, 1.012976e+002
1.083635e+003, 1.012599e+002
1.084118e+003, 1.011682e+002
1.084600e+003, 1.007164e+002
1.085082e+003, 1.003428e+002
1.085564e+003, 1.003552e+002
1.086046e+003, 1.006560e+002
1.086528e+003, 1.011751e+002
1.087010e+003, 1.018374e+002
1.087492e+003, 1.023940e+002
1.087974e+003, 1.027073e+002
1.088457e+003, 1.030667e+002
1.088939e+003, 1.038582e+002
1.089421e+003, 1.044394e+002
1.089903e+003, 1.044638e+002
1.090385e+003, 1.040183e+002
1.090867e+003, 1.030511e+002
1.091349e+003, 1.017317e+002
1.091831e+003, 1.005360e+002
1.092314e+003, 9.960073e+001
1.092796e+003, 9.876581e+001
1.093278e+003, 9.761655e+001
1.093760e+003, 9.699004e+001
1.094242e+003, 9.772747e+001
1.094724e+003, 9.884889e+001
1.095206e+003, 9.936601e+001
1.095688e+003, 9.946671e+001
1.096171e+003, 9.997434e+001
1.096653e+003, 1.011768e+002
1.097135e+003, 1.017481e+002
1.097617e+003, 1.005083e+002
1.098099e+003, 9.960008e+001
1.098581e+003, 1.005603e+002
1.099063e+003, 1.015223e+002
1.099545e+003, 1.005385e+002
1.100027e+003, 9.862580e+001
1.100510e+003, 9.800691e+001
1.100992e+003, 9.901498e+001
1.101474e+003, 9.952920e+001
1.101956e+003, 9.873260e+001
1.102438e+003, 9.786843e+001
1.102920e+003, 9.709608e+001
1.103402e+003, 9.652834e+001
1.103884e+003, 9.618066e+001
1.104366e+003, 9.610752e+001
1.104849e+003, 9.676147e+001
1.105331e+003, 9.801389e+001
1.105813e+003, 9.797790e+001
1.106295e+003, 9.467805e+001
1.106777e+003, 9.275725e+001
1.107259e+003, 9.370274e+001
1.107741e+003, 9.511525e+001
1.108223e+003, 9.634020e+001
1.108706e+003, 9.717998e+001
1.109188e+003, 9.727285e+001
1.109670e+003, 9.678654e+001
1.110152e+003, 9.661582e+001
1.110634e+003, 9.709887e+001
1.111116e+003, 9.724896e+001
1.111598e+003, 9.653438e+001
1.112080e+003, 9.612261e+001
1.112563e+003, 9.697611e+001
1.113045e+003, 9.767552e+001
1.113527e+003, 9.668037e+001
1.114009e+003, 9.476305e+001
1.114491e+003, 9.407543e+001
1.114973e+003, 9.500972e+001
1.115455e+003, 9.547869e+001
1.115937e+003, 9.501529e+001
1.116419e+003, 9.493233e+001
1.116901e+003, 9.598195e+001
1.117384e+003, 9.671051e+001
1.117866e+003, 9.602982e+001
1.118348e+003, 9.466822e+001
1.118830e+003, 9.378096e+001
1.119312e+003, 9.336871e+001
1.119794e+003, 9.341428e+001
1.120276e+003, 9.411832e+001
1.120758e+003, 9.477644e+001
1.121241e+003, 9.542489e+001
1.121723e+003, 9.574829e+001
1.122205e+003, 9.540727e+001
1.122687e+003, 9.505502e+001
1.123169e+003, 9.563287e+001
1.123651e+003, 9.683974e+001
1.124133e+003, 9.678581e+001
1.124615e+003, 9.507066e+001
1.125098e+003, 9.404723e+001
1.125580e+003, 9.389394e+001
1.126062e+003, 9.413547e+001
1.126544e+003, 9.479008e+001
1.127026e+003, 9.516650e+001
1.127508e+003, 9.460992e+001
1.127990e+003, 9.351166e+001
1.128472e+003, 9.281987e+001
1.128954e+003, 9.254170e+001
1.129437e+003, 9.238704e+001
1.129919e+003, 9.234993e+001
1.130401e+003, 9.250262e+001
1.130883e+003, 9.285369e+001
1.131365e+003, 9.361586e+001
1.131847e+003, 9.501077e+001
1.132329e+003, 9.623298e+001
1.132811e+003, 9.585349e+001
1.133293e+003, 9.435583e+001
1.133776e+003, 9.423226e+001
1.134258e+003, 9.527983e+001
1.134740e+003, 9.564861e+001
1.135222e+003, 9.513727e+001
1.135704e+003, 9.417485e+001
1.136186e+003, 9.294482e+001
1.136668e+003, 9.174480e+001
1.137150e+003, 9.078325e+001
1.137633e+003, 9.026118e+001
1.138115e+003, 9.084812e+001
1.138597e+003, 9.215871e+001
1.139079e+003, 9.309798e+001
1.139561e+003, 9.362017e+001
1.140043e+003, 9.394225e+001
1.140525e+003, 9.408434e+001
1.141007e+003, 9.367228e+001
1.141490e+003, 9.238130e+001
1.141972e+003, 9.111401e+001
1.142454e+003, 9.119248e+001
1.142936e+003, 9.182883e+001
1.143418e+003, 9.170671e+001
1.143900e+003, 9.115302e+001
1.144382e+003, 9.100056e+001
1.144864e+003, 9.118236e+001
1.145346e+003, 9.084651e+001
1.145828e+003, 8.968968e+001
1.146311e+003, 8.891615e+001
1.146793e+003, 8.983112e+001
1.147275e+003, 9.111172e+001
1.147757e+003, 9.176631e+001
1.148239e+003, 9.191311e+001
1.148721e+003, 9.133384e+001
1.149203e+003, 9.049582e+001
1.149685e+003, 9.035651e+001
1.150168e+003, 9.098712e+001
1.150650e+003, 9.135095e+001
1.151132e+003, 9.071555e+001
1.151614e+003, 9.037883e+001
1.152096e+003, 9.167801e+001
1.152578e+003, 9.276189e+001
1.153060e+003, 9.195228e+001
1.153542e+003, 9.051602e+001
1.154025e+003, 9.000678e+001
1.154507e+003, 9.028112e+001
1.154989e+003, 9.030367e+001
1.155471e+003, 8.979810e+001
1.155953e+003, 8.939123e+001
1.156435e+003, 8.917547e+001
1.156917e+003, 8.915247e+001
1.157399e+003, 8.929213e+001
1.157881e+003, 8.965706e+001
1.158364e+003, 9.083427e+001
1.158846e+003, 9.200742e+001
1.159328e+003, 9.139981e+001
1.159810e+003, 8.890137e+001
1.160292e+003, 8.807239e+001
1.160774e+003, 9.086235e+001
1.161256e+003, 9.177968e+001
1.161738e+003, 8.931660e+001
1.162220e+003, 8.702943e+001
1.162703e+003, 8.604778e+001
1.163185e+003, 8.599480e+001
1.163667e+003, 8.666884e+001
1.164149e+003, 8.791005e+001
1.164631e+003, 8.931699e+001
1.165113e+003, 9.112291e+001
1.165595e+003, 9.146718e+001
1.166077e+003, 8.988323e+001
1.166560e+003, 8.897539e+001
1.167042e+003, 8.944511e+001
1.167524e+003, 8.989802e+001
1.168006e+003, 8.950846e+001
1.168488e+003, 8.864179e+001
1.168970e+003, 8.774039e+001
1.169452e+003, 8.690899e+001
1.169934e+003, 8.690932e+001
1.170417e+003, 8.764542e+001
1.170899e+003, 8.754936e+001
1.171381e+003, 8.655289e+001
1.171863e+003, 8.610236e+001
1.172345e+003, 8.666455e+001
1.172827e+003, 8.720031e+001
1.173309e+003, 8.680924e+001
1.173791e+003, 8.617030e+001
1.174273e+003, 8.649465e+001
1.174755e+003, 8.739903e+001
1.175238e+003, 8.825705e+001
1.175720e+003, 8.884126e+001
1.176202e+003, 8.830714e+001
1.176684e+003, 8.684660e+001
1.177166e+003, 8.578880e+001
1.177648e+003, 8.570342e+001
1.178130e+003, 8.612659e+001
1.178612e+003, 8.696060e+001
1.179095e+003, 8.776354e+001
1.179577e+003, 8.811967e+001
1.180059e+003, 8.817183e+001
1.180541e+003, 8.807619e+001
1.181023e+003, 8.782227e+001
1.181505e+003, 8.709370e+001
1.181987e+003, 8.605061e+001
1.182469e+003, 8.587784e+001
1.182952e+003, 8.755348e+001
1.183434e+003, 8.870555e+001
1.183916e+003, 8.779484e+001
1.184398e+003, 8.665601e+001
1.184880e+003, 8.642420e+001
1.185362e+003, 8.634441e+001
1.185844e+003, 8.526436e+001
1.186326e+003, 8.381728e+001
1.186808e+003, 8.386803e+001
1.187291e+003, 8.588147e+001
1.187773e+003, 8.678850e+001
1.188255e+003, 8.504802e+001
1.188737e+003, 8.415240e+001
1.189219e+003, 8.517908e+001
1.189701e+003, 8.610204e+001
1.190183e+003, 8.588545e+001
1.190665e+003, 8.538312e+001
1.191147e+003, 8.557097e+001
1.191630e+003, 8.623429e+001
1.192112e+003, 8.652219e+001
1.192594e+003, 8.653384e+001
1.193076e+003, 8.540054e+001
1.193558e+003, 8.264378e+001
1.194040e+003, 8.138317e+001
1.194522e+003, 8.255403e+001
1.195004e+003, 8.388723e+001
1.195487e+003, 8.400601e+001
1.195969e+003, 8.370876e+001
1.196451e+003, 8.419942e+001
1.196933e+003, 8.513875e+001
1.197415e+003, 8.510358e+001
1.197897e+003, 8.429743e+001
1.198379e+003, 8.385262e+001
1.198861e+003, 8.382903e+001
1.199344e+003, 8.393736e+001
1.199826e+003, 8.408566e+001
1.200308e+003, 8.431735e+001
1.200790e+003, 8.467381e+001
1.201272e+003, 8.505754e+001
1.201754e+003, 8.559869e+001
1.202236e+003, 8.589161e+001
1.202718e+003, 8.497715e+001
1.203200e+003, 8.361488e+001
1.203682e+003, 8.299886e+001
1.204165e+003, 8.318228e+001
1.204647e+003, 8.403715e+001
1.205129e+003, 8.542493e+001
1.205611e+003, 8.620721e+001
1.206093e+003, 8.544362e+001
1.206575e+003, 8.448949e+001
1.207057e+003, 8.377250e+001
1.207539e+003, 8.340062e+001
1.208022e+003, 8.370811e+001
1.208504e+003, 8.420406e+001
1.208986e+003, 8.428341e+001
1.209468e+003, 8.403192e+001
1.209950e+003, 8.395815e+001
1.210432e+003, 8.425322e+001
1.210914e+003, 8.415680e+001
1.211396e+003, 8.308094e+001
1.211879e+003, 8.244950e+001
1.212361e+003, 8.265948e+001
1.212843e+003, 8.303329e+001
1.213325e+003, 8.323296e+001
1.213807e+003, 8.346227e+001
1.214289e+003, 8.413779e+001
1.214771e+003, 8.498030e+001
1.215253e+003, 8.436021e+001
1.215735e+003, 8.196391e+001
1.216218e+003, 8.120641e+001
1.216700e+003, 8.229665e+001
1.217182e+003, 8.333506e+001
1.217664e+003, 8.390710e+001
1.218146e+003, 8.348458e+001
1.218628e+003, 8.165311e+001
1.219110e+003, 7.996703e+001
1.219592e+003, 8.079897e+001
1.220074e+003, 8.284560e+001
1.220557e+003, 8.287381e+001
1.221039e+003, 8.163557e+001
1.221521e+003, 8.095837e+001
1.222003e+003, 8.091478e+001
1.222485e+003, 8.114851e+001
1.222967e+003, 8.155653e+001
1.223449e+003, 8.233653e+001
1.223931e+003, 8.376863e+001
1.224414e+003, 8.447601e+001
1.224896e+003, 8.273534e+001
1.225378e+003, 8.055727e+001
1.225860e+003, 7.948252e+001
1.226342e+003, 7.891409e+001
1.226824e+003, 7.792108e+001
1.227306e+003, 7.700874e+001
1.227788e+003, 7.769667e+001
1.228271e+003, 7.998323e+001
1.228753e+003, 8.094415e+001
1.229235e+003, 7.850105e+001
1.229717e+003, 7.737476e+001
1.230199e+003, 7.995647e+001
1.230681e+003, 8.150216e+001
1.231163e+003, 7.964061e+001
1.231645e+003, 7.738438e+001
1.232127e+003, 7.681959e+001
1.232609e+003, 7.745616e+001
1.233092e+003, 7.851860e+001
1.233574e+003, 7.998131e+001
1.234056e+003, 8.047876e+001
1.234538e+003, 7.989667e+001
1.235020e+003, 7.914154e+001
1.235502e+003, 7.823658e+001
1.235984e+003, 7.827442e+001
1.236466e+003, 7.966524e+001
1.236949e+003, 8.098027e+001
1.237431e+003, 8.109233e+001
1.237913e+003, 8.056786e+001
1.238395e+003, 8.028312e+001
1.238877e+003, 8.007185e+001
1.239359e+003, 7.933063e+001
1.239841e+003, 7.841147e+001
1.240323e+003, 7.824369e+001
1.240806e+003, 7.870823e+001
1.241288e+003, 7.914749e+001
1.241770e+003, 7.933775e+001
1.242252e+003, 7.929205e+001
1.242734e+003, 7.906699e+001
1.243216e+003, 7.847435e+001
1.243698e+003, 7.657634e+001
1.244180e+003, 7.522102e+001
1.244662e+003, 7.644152e+001
1.245145e+003, 7.821344e+001
1.245627e+003, 7.818897e+001
1.246109e+003, 7.710389e+001
1.246591e+003, 7.712733e+001
1.247073e+003, 7.856425e+001
1.247555e+003, 7.905234e+001
1.248037e+003, 7.741319e+001
1.248519e+003, 7.687120e+001
1.249001e+003, 7.824847e+001
1.249484e+003, 7.932393e+001
1.249966e+003, 7.938602e+001
1.250448e+003, 7.892023e+001
1.250930e+003, 7.825768e+001
1.251412e+003, 7.741633e+001
1.251894e+003, 7.633186e+001
1.252376e+003, 7.510726e+001
1.252858e+003, 7.458742e+001
1.253341e+003, 7.471816e+001
1.253823e+003, 7.495296e+001
1.254305e+003, 7.528801e+001
1.254787e+003, 7.637005e+001
1.255269e+003, 7.826070e+001
1.255751e+003, 7.960397e+001
1.256233e+003, 7.945920e+001
1.256715e+003, 7.874430e+001
1.257198e+003, 7.824410e+001
1.257680e+003, 7.789520e+001
1.258162e+003, 7.759343e+001
1.258644e+003, 7.742352e+001
1.259126e+003, 7.774759e+001
1.259608e+003, 7.819223e+001
1.260090e+003, 7.782445e+001
1.260572e+003, 7.662712e+001
1.261054e+003, 7.587828e+001
1.261536e+003, 7.601576e+001
1.262019e+003, 7.639555e+001
1.262501e+003, 7.738777e+001
1.262983e+003, 7.790231e+001
1.263465e+003, 7.723106e+001
1.263947e+003, 7.646742e+001
1.264429e+003, 7.627064e+001
1.264911e+003, 7.639639e+001
1.265393e+003, 7.651991e+001
1.265876e+003, 7.661915e+001
1.266358e+003, 7.652678e+001
1.266840e+003, 7.623190e+001
1.267322e+003, 7.585060e+001
1.267804e+003, 7.539569e+001
1.268286e+003, 7.567780e+001
1.268768e+003, 7.681870e+001
1.269250e+003, 7.731898e+001
1.269733e+003, 7.633826e+001
1.270215e+003, 7.523134e+001
1.270697e+003, 7.561068e+001
1.271179e+003, 7.648459e+001
1.271661e+003, 7.652055e+001
1.272143e+003, 7.607056e+001
1.272625e+003, 7.536006e+001
1.273107e+003, 7.469615e+001
1.273589e+003, 7.472005e+001
1.274072e+003, 7.525404e+001
1.274554e+003, 7.526564e+001
1.275036e+003, 7.435103e+001
1.275518e+003, 7.390834e+001
1.276000e+003, 7.475852e+001
1.276482e+003, 7.556036e+001
1.276964e+003, 7.615512e+001
1.277446e+003, 7.638251e+001
1.277929e+003, 7.607845e+001
1.278411e+003, 7.544739e+001
1.278893e+003, 7.450082e+001
1.279375e+003, 7.352747e+001
1.279857e+003, 7.331920e+001
1.280339e+003, 7.388474e+001
1.280821e+003, 7.500984e+001
1.281303e+003, 7.672910e+001
1.281786e+003, 7.749989e+001
1.282268e+003, 7.711156e+001
##END=



