##NAMES=Wangkuirenite
##RRUFFID=R220047
##IDEAL CHEMISTRY=Pb^2+^_3_Cl_2_(Se^4+^O_3_)_2_
##LOCALITY=Baccu Locci mine, Villaputen, Sardinia, Italy
##OWNER=RRUFF
##SOURCE=Bill Pinch
##DESCRIPTION=Pale yellow tabular or bladed crystals, associated with krut'aite, chalcomenite, orlandiite, olsacherite, and anglesite.
##STATUS=The identification of this mineral is confirmed by single-crystal X-ray diffraction and chemical analysis.
##URL=rruff.info/R220047
##MEASURED CHEMISTRY=Pb_3.01_Cl_1.96_(Se_1.00_O_3.02_)_2_ ; calculated on the basis of 8 (O + Cl) apfu.
89.55957, 0.0000000E+00
90.04169, 2.130371
90.52380, 54.09277
91.00592, 205.1577
91.48804, 380.9546
91.97015, 589.8689
92.45227, 807.8250
92.93439, 1029.706
93.41650, 1190.565
93.89862, 1299.450
94.38074, 1392.304
94.86285, 1477.552
95.34497, 1516.380
95.82709, 1515.630
96.30920, 1470.362
96.79132, 1406.980
97.27344, 1313.594
97.75555, 1174.805
98.23766, 1021.843
98.71978, 848.3848
99.20190, 692.2051
99.68401, 549.2605
100.1661, 421.3247
100.6482, 309.4268
101.1304, 213.7354
101.6125, 133.7275
102.0946, 74.38818
102.5767, 33.65039
103.0588, 3.968262
103.5409, 17.22803
104.0231, 30.38965
104.5052, 35.12402
104.9873, 29.66870
105.4694, 15.80566
105.9515, 2.221680
106.4336, 26.01123
106.9158, 51.04248
107.3979, 71.36816
107.8800, 85.07080
108.3621, 101.3013
108.8442, 126.3397
109.3263, 155.2002
109.8085, 183.3424
110.2906, 209.4275
110.7727, 232.8044
111.2548, 250.6240
111.7369, 260.4318
112.2190, 266.5032
112.7012, 267.1449
113.1833, 265.1409
113.6654, 265.4263
114.1475, 272.7108
114.6296, 288.5374
115.1117, 297.1145
115.5939, 290.2708
116.0760, 284.3032
116.5581, 285.5754
117.0402, 294.8026
117.5223, 309.4507
118.0044, 326.8623
118.4866, 347.8998
118.9687, 370.2125
119.4508, 391.8694
119.9329, 415.5770
120.4150, 445.4005
120.8971, 482.9497
121.3793, 522.8264
121.8614, 555.5355
122.3435, 580.7430
122.8256, 606.3369
123.3077, 636.4589
123.7898, 669.3452
124.2720, 699.6270
124.7541, 725.1714
125.2362, 747.5179
125.7183, 770.0574
126.2004, 793.3619
126.6825, 813.5629
127.1647, 825.6597
127.6468, 828.5332
128.1289, 832.2512
128.6110, 842.0355
129.0931, 853.0867
129.5752, 860.6228
130.0574, 862.6060
130.5395, 864.2915
131.0216, 876.4321
131.5037, 902.8474
131.9858, 934.8025
132.4679, 969.5823
132.9501, 1007.321
133.4322, 1049.167
133.9143, 1095.477
134.3964, 1145.480
134.8785, 1200.515
135.3606, 1270.597
135.8427, 1335.862
136.3249, 1392.411
136.8070, 1440.727
137.2891, 1485.708
137.7712, 1531.581
138.2533, 1578.157
138.7354, 1614.113
139.2176, 1643.088
139.6997, 1660.841
140.1818, 1664.149
140.6639, 1653.428
141.1460, 1631.702
141.6281, 1600.518
142.1103, 1558.922
142.5924, 1510.333
143.0745, 1452.054
143.5566, 1387.298
144.0387, 1319.110
144.5208, 1246.731
145.0030, 1174.001
145.4851, 1104.954
145.9672, 1039.343
146.4493, 976.0406
146.9314, 914.9211
147.4135, 856.9221
147.8957, 801.0314
148.3778, 747.0042
148.8599, 697.6721
149.3420, 655.1559
149.8241, 618.4568
150.3062, 584.7632
150.7884, 552.0573
151.2705, 520.1268
151.7526, 490.6655
152.2347, 465.8030
152.7168, 442.3729
153.1989, 418.8069
153.6811, 395.2947
154.1632, 373.0547
154.6453, 353.7037
155.1274, 337.7874
155.6095, 323.8268
156.0916, 312.8618
156.5738, 302.7544
157.0559, 292.4694
157.5380, 281.6096
158.0201, 270.0470
158.5022, 257.3127
158.9843, 241.1290
159.4665, 227.2568
159.9486, 216.4142
160.4307, 207.3917
160.9128, 199.5770
161.3949, 191.5735
161.8770, 182.9486
162.3592, 171.8900
162.8413, 156.4808
163.3234, 143.9634
163.8055, 137.7312
164.2876, 134.1891
164.7697, 128.3781
165.2519, 117.6580
165.7340, 104.1184
166.2161, 92.79736
166.6982, 84.30444
167.1803, 76.67444
167.6624, 68.88770
168.1445, 61.10132
168.6267, 53.99438
169.1088, 47.84802
169.5909, 42.61963
170.0730, 38.15100
170.5551, 34.99670
171.0372, 31.59143
171.5194, 26.05310
172.0015, 18.05347
172.4836, 10.67456
172.9657, 5.105469
173.4478, 0.9838870
173.9299, 1.723022
174.4121, 2.890381
174.8942, 2.929199
175.3763, 2.132568
175.8584, 0.2933350
176.3405, 1.513184
176.8226, 0.4708250
177.3048, 3.552612
177.7869, 5.536743
178.2690, 5.416016
178.7511, 3.774658
179.2332, 2.402710
179.7153, 1.707153
180.1975, 0.6763920
180.6796, 2.184448
181.1617, 5.174561
181.6438, 5.791260
182.1259, 2.338501
182.6080, 4.189819
183.0902, 7.719238
183.5723, 4.553589
184.0544, 1.906738
184.5365, 1.031006
185.0186, 1.476074
185.5007, 2.323364
185.9829, 3.058350
186.4650, 3.672791
186.9471, 4.186890
187.4292, 4.504761
187.9113, 4.816528
188.3934, 5.318298
188.8756, 5.888611
189.3577, 6.300049
189.8398, 6.336060
190.3219, 6.023682
190.8040, 5.762268
191.2861, 5.790466
191.7683, 5.700928
192.2504, 5.237732
192.7325, 4.416992
193.2146, 3.381836
193.6967, 1.964050
194.1788, 0.3804320
194.6610, 5.8655001E-02
195.1431, 2.010559
195.6252, 4.286926
196.1073, 4.707153
196.5894, 3.143127
197.0715, 1.330627
197.5536, 0.6282960
198.0358, 0.6705930
198.5179, 0.3435060
199.0000, 0.2824100
199.4821, 1.466675
199.9642, 4.234009
200.4464, 9.227783
200.9285, 13.06525
201.4106, 10.68115
201.8927, 5.856506
202.3748, 4.832581
202.8569, 12.52728
203.3391, 24.43396
203.8212, 30.67310
204.3033, 28.62579
204.7854, 26.55121
205.2675, 28.80255
205.7496, 33.65460
206.2318, 38.73792
206.7139, 43.12830
207.1960, 46.79547
207.6781, 49.24902
208.1602, 48.26782
208.6423, 49.61743
209.1245, 56.69080
209.6066, 66.84515
210.0887, 76.07104
210.5708, 81.68683
211.0529, 84.38519
211.5350, 88.29358
212.0172, 93.69586
212.4993, 100.2007
212.9814, 107.7679
213.4635, 116.3092
213.9456, 125.7307
214.4277, 136.0602
214.9099, 147.2214
215.3920, 158.5101
215.8741, 168.2591
216.3562, 180.0370
216.8383, 195.5219
217.3204, 213.5555
217.8026, 232.0926
218.2847, 249.6951
218.7668, 266.5173
219.2489, 284.2993
219.7310, 301.9635
220.2131, 321.7076
220.6953, 344.6889
221.1774, 370.3303
221.6595, 396.7224
222.1416, 422.3992
222.6237, 447.6365
223.1058, 478.5984
223.5880, 515.2859
224.0701, 556.3741
224.5522, 599.6897
225.0343, 646.7401
225.5164, 700.6609
225.9985, 763.6190
226.4807, 835.7350
226.9628, 916.1653
227.4449, 1000.533
227.9270, 1095.435
228.4091, 1202.576
228.8912, 1322.165
229.3733, 1453.539
229.8555, 1597.986
230.3376, 1754.721
230.8197, 1918.780
231.3018, 2096.576
231.7839, 2273.822
232.2660, 2453.063
232.7482, 2629.826
233.2303, 2785.523
233.7124, 2913.618
234.1945, 3006.721
234.6766, 3061.128
235.1587, 3070.458
235.6409, 3050.124
236.1230, 3009.047
236.6051, 2946.815
237.0872, 2860.462
237.5693, 2745.029
238.0514, 2602.739
238.5336, 2446.774
239.0157, 2273.218
239.4978, 2091.065
239.9799, 1902.191
240.4620, 1706.698
240.9441, 1519.029
241.4263, 1342.663
241.9084, 1180.957
242.3905, 1035.483
242.8726, 906.7725
243.3547, 793.7427
243.8368, 697.2797
244.3190, 617.7134
244.8011, 548.6114
245.2832, 491.5723
245.7653, 442.8073
246.2474, 398.7035
246.7295, 359.3560
247.2117, 323.6311
247.6938, 290.5397
248.1759, 260.0587
248.6580, 232.9749
249.1401, 210.4600
249.6222, 191.0447
250.1044, 174.6225
250.5865, 161.1105
251.0686, 148.5384
251.5507, 134.5742
252.0328, 118.7341
252.5149, 105.0306
252.9971, 94.87555
253.4792, 86.44415
253.9613, 79.50122
254.4434, 73.91797
254.9255, 68.87982
255.4076, 63.45441
255.8898, 57.55145
256.3719, 51.70892
256.8540, 45.80994
257.3361, 40.19269
257.8182, 34.85889
258.3003, 29.92511
258.7824, 25.74200
259.2646, 22.94080
259.7467, 21.77728
260.2288, 19.83185
260.7109, 15.15051
261.1930, 11.59393
261.6751, 11.64795
262.1573, 14.38339
262.6394, 16.77271
263.1215, 15.91000
263.6036, 11.46304
264.0857, 8.010284
264.5678, 5.828400
265.0500, 4.474518
265.5321, 4.070038
266.0142, 4.441437
266.4963, 5.365295
266.9784, 6.867737
267.4605, 8.960907
267.9427, 9.984680
268.4248, 8.866974
268.9069, 7.613953
269.3890, 6.511841
269.8711, 5.650543
270.3532, 5.054321
270.8354, 4.691986
271.3175, 4.584045
271.7996, 5.054016
272.2817, 7.437012
272.7638, 9.002289
273.2459, 8.474945
273.7281, 6.924316
274.2102, 6.140961
274.6923, 7.262054
275.1744, 9.748810
275.6565, 10.90280
276.1386, 8.873138
276.6208, 7.452576
277.1029, 7.300507
277.5850, 7.905823
278.0671, 8.749207
278.5492, 9.596497
279.0313, 10.22974
279.5135, 9.984894
279.9956, 7.925262
280.4777, 6.050110
280.9598, 4.378937
281.4419, 2.959137
281.9240, 1.799103
282.4062, 0.9059140
282.8883, 0.3846130
283.3704, 0.5144350
283.8525, 2.981171
284.3346, 3.587067
284.8167, 0.5205990
285.2989, 3.329132
285.7810, 5.466125
286.2631, 5.235199
286.7452, 3.578369
287.2273, 1.777710
287.7094, 0.6877140
288.1916, 1.990479
288.6737, 1.661713
289.1558, 0.6044310
289.6379, 0.8339540
290.1200, 2.452667
290.6021, 3.848572
291.0843, 4.515106
291.5664, 4.242035
292.0485, 4.018646
292.5306, 4.127747
293.0127, 4.058533
293.4948, 3.046356
293.9770, 1.366272
294.4591, 0.4241640
294.9412, 1.744049
295.4233, 5.652039
295.9054, 6.932495
296.3875, 3.388489
296.8697, 0.1132510
297.3518, 1.232208
297.8339, 0.4377440
298.3160, 0.5607300
298.7981, 0.6005250
299.2802, 0.2255860
299.7624, 0.8170170
300.2445, 0.8120730
300.7266, 1.012573
301.2087, 2.110199
301.6908, 3.549316
302.1729, 4.075165
302.6551, 2.897064
303.1372, 0.7624510
303.6193, 0.3728030
304.1014, 3.890869
304.5835, 6.390900
305.0656, 6.232025
305.5477, 4.946655
306.0298, 4.691315
306.5120, 6.299683
306.9941, 8.821960
307.4762, 10.36731
307.9583, 10.11926
308.4404, 10.27441
308.9225, 11.57843
309.4047, 12.98697
309.8868, 13.22406
310.3689, 12.05798
310.8510, 10.59692
311.3331, 10.25690
311.8152, 11.37415
312.2974, 12.79559
312.7795, 15.14575
313.2616, 17.32986
313.7437, 18.48911
314.2258, 18.60703
314.7079, 18.28439
315.1901, 17.94781
315.6722, 17.53409
316.1543, 18.15805
316.6364, 20.62546
317.1185, 23.21835
317.6006, 25.29266
318.0828, 26.79160
318.5649, 27.69080
319.0470, 27.87827
319.5291, 27.49091
320.0112, 27.88104
320.4933, 28.90262
320.9755, 30.67996
321.4576, 33.61475
321.9397, 37.26996
322.4218, 40.89731
322.9039, 44.12277
323.3860, 47.10812
323.8682, 50.30624
324.3503, 54.00989
324.8324, 57.55099
325.3145, 60.70151
325.7966, 63.72473
326.2787, 66.96860
326.7609, 70.52927
327.2430, 74.20444
327.7251, 77.70648
328.2072, 81.09558
328.6893, 84.12552
329.1714, 86.97598
329.6536, 89.36755
330.1357, 90.65753
330.6178, 90.99265
331.0999, 91.64648
331.5820, 94.12033
332.0641, 98.96967
332.5463, 102.3803
333.0284, 103.2164
333.5105, 104.0140
333.9926, 106.2932
334.4747, 109.6298
334.9568, 112.5860
335.4390, 114.0764
335.9211, 114.2273
336.4032, 114.5769
336.8853, 114.1235
337.3674, 114.9857
337.8495, 118.2779
338.3317, 123.0391
338.8138, 127.6898
339.2959, 131.4664
339.7780, 134.9940
340.2601, 140.0742
340.7422, 148.2203
341.2244, 156.0047
341.7065, 161.9761
342.1886, 168.2484
342.6707, 176.8547
343.1528, 188.0870
343.6349, 200.9106
344.1171, 214.0826
344.5992, 228.0429
345.0813, 241.4288
345.5634, 252.8208
346.0455, 264.7534
346.5276, 279.0710
347.0098, 295.4985
347.4919, 312.5244
347.9740, 328.6615
348.4561, 343.9070
348.9382, 359.6645
349.4203, 378.6472
349.9025, 395.6483
350.3846, 409.4198
350.8667, 420.1480
351.3488, 428.4978
351.8309, 434.9072
352.3130, 438.9676
352.7952, 438.9940
353.2773, 433.0757
353.7594, 425.3149
354.2415, 416.4915
354.7236, 406.5905
355.2057, 395.4702
355.6879, 383.1016
356.1700, 369.5464
356.6521, 354.7174
357.1342, 337.7991
357.6163, 321.7392
358.0984, 306.5445
358.5806, 292.2536
359.0627, 278.8292
359.5448, 266.2792
360.0269, 255.0917
360.5090, 245.5112
360.9911, 237.5472
361.4733, 231.6072
361.9554, 229.4474
362.4375, 227.6591
362.9196, 224.2542
363.4017, 220.1770
363.8839, 217.5394
364.3660, 217.8765
364.8481, 220.3292
365.3302, 222.2209
365.8123, 223.2670
366.2944, 224.0969
366.7766, 224.7721
367.2587, 225.5546
367.7408, 226.9498
368.2229, 229.1937
368.7050, 230.8094
369.1871, 229.7231
369.6692, 225.7444
370.1513, 221.3751
370.6335, 216.9495
371.1156, 212.3990
371.5977, 207.6513
372.0798, 202.7197
372.5619, 197.6234
373.0440, 192.2540
373.5262, 186.6944
374.0083, 181.4536
374.4904, 176.8116
374.9725, 172.0197
375.4546, 166.6912
375.9367, 160.8575
376.4189, 154.4934
376.9010, 146.6649
377.3831, 138.9639
377.8652, 134.0204
378.3473, 132.0515
378.8294, 129.9264
379.3116, 125.7396
379.7937, 120.7538
380.2758, 117.1115
380.7579, 115.4409
381.2400, 113.7726
381.7221, 110.4304
382.2043, 105.9638
382.6864, 102.3003
383.1685, 99.91599
383.6506, 98.54379
384.1327, 98.18582
384.6148, 98.79105
385.0970, 99.22546
385.5791, 98.96695
386.0612, 98.48187
386.5433, 98.25900
387.0254, 98.35004
387.5075, 98.77689
387.9897, 99.54593
388.4718, 100.7033
388.9539, 102.2552
389.4360, 104.2425
389.9181, 106.5722
390.4002, 109.4062
390.8824, 112.5613
391.3645, 115.3650
391.8466, 117.3309
392.3287, 119.2268
392.8108, 123.1302
393.2929, 130.4506
393.7751, 136.9829
394.2572, 141.6232
394.7393, 145.5190
395.2214, 149.6326
395.7035, 154.2288
396.1856, 159.2803
396.6678, 164.8813
397.1499, 171.1828
397.6320, 176.9734
398.1141, 183.6423
398.5962, 188.5328
399.0783, 189.9736
399.5605, 188.6208
400.0426, 185.9458
400.5247, 182.7701
401.0068, 179.2700
401.4889, 176.2996
401.9710, 175.8532
402.4532, 173.2613
402.9353, 167.5032
403.4174, 159.8091
403.8995, 151.0145
404.3816, 141.5191
404.8637, 131.7505
405.3459, 122.1234
405.8280, 112.5070
406.3101, 103.7529
406.7922, 96.84723
407.2743, 89.91287
407.7564, 81.59915
408.2386, 72.48761
408.7207, 64.10217
409.2028, 57.61456
409.6849, 52.72937
410.1670, 48.06638
410.6491, 43.63919
411.1313, 39.41489
411.6134, 35.17975
412.0955, 31.19293
412.5776, 27.79999
413.0597, 25.09146
413.5418, 22.75009
414.0240, 20.40714
414.5061, 18.06946
414.9882, 15.83920
415.4703, 14.10559
415.9524, 12.05878
416.4345, 8.550385
416.9167, 3.954041
417.3988, 0.3974610
417.8809, 0.1991270
418.3630, 0.8270570
418.8451, 0.4795530
419.3272, 1.690582
419.8094, 3.461945
420.2915, 2.753815
420.7736, 0.8743900
421.2557, 0.6224060
421.7378, 3.408661
422.2199, 6.151245
422.7021, 6.288177
423.1842, 4.557251
423.6663, 3.587646
424.1484, 4.437805
424.6305, 5.866577
425.1126, 5.818176
425.5948, 4.138214
426.0769, 2.687225
426.5590, 1.910004
427.0411, 1.426758
427.5232, 0.8771970
428.0053, 0.2387390
428.4875, 0.2641300
428.9695, 0.3573610
429.4517, 0.1206360
429.9338, 0.7208860
430.4159, 2.789398
430.8980, 4.802429
431.3801, 6.399567
431.8622, 7.664703
432.3444, 8.662994
432.8265, 9.404114
433.3086, 9.977692
433.7907, 10.46933
434.2728, 10.15433
434.7549, 11.61850
435.2371, 16.50653
435.7192, 21.52768
436.2013, 24.69110
436.6834, 26.09265
437.1655, 27.11545
437.6476, 28.80389
438.1298, 30.99460
438.6119, 32.43976
439.0940, 32.03317
439.5761, 32.60727
440.0582, 35.30685
440.5403, 38.79367
441.0225, 41.74927
441.5046, 43.81354
441.9867, 45.56784
442.4688, 47.63361
442.9509, 50.02054
443.4330, 52.45908
443.9152, 54.55011
444.3973, 57.22614
444.8794, 61.71121
445.3615, 67.29916
445.8436, 71.77820
446.3257, 72.98096
446.8079, 72.95038
447.2900, 75.89471
447.7721, 82.32986
448.2542, 88.03531
448.7363, 91.06503
449.2184, 92.06519
449.7006, 92.10660
450.1827, 90.91110
450.6648, 89.82880
451.1469, 90.53137
451.6290, 91.74124
452.1111, 90.48630
452.5933, 85.86954
453.0754, 79.99136
453.5575, 74.89944
454.0396, 70.69958
454.5217, 66.42426
455.0038, 60.87204
455.4860, 56.31989
455.9681, 54.91742
456.4502, 55.63605
456.9323, 55.82739
457.4144, 54.22058
457.8965, 51.55435
458.3787, 49.35037
458.8608, 48.46042
459.3429, 46.45346
459.8250, 41.30472
460.3071, 36.60007
460.7892, 35.62662
461.2714, 38.09378
461.7535, 40.89365
462.2356, 41.30475
462.7177, 39.47116
463.1998, 38.15570
463.6819, 37.82962
464.1641, 37.52347
464.6462, 37.06360
465.1283, 36.37866
465.6104, 35.40671
466.0925, 34.12189
466.5746, 32.64276
467.0568, 30.96774
467.5389, 29.04898
468.0210, 27.64822
468.5031, 27.27722
468.9852, 26.93326
469.4673, 25.72971
469.9495, 24.04874
470.4316, 23.00192
470.9137, 23.36224
471.3958, 24.45743
471.8779, 25.54349
472.3600, 26.63351
472.8422, 26.84451
473.3243, 25.29837
473.8064, 23.08124
474.2885, 21.93936
474.7706, 22.02347
475.2527, 22.41278
475.7349, 23.37573
476.2170, 24.20166
476.6991, 23.64169
477.1812, 21.50180
477.6633, 18.84827
478.1454, 16.52856
478.6276, 14.60684
479.1097, 13.31195
479.5918, 13.15826
480.0739, 12.64890
480.5560, 11.07990
481.0381, 9.181824
481.5203, 7.913605
482.0024, 7.516571
482.4845, 7.391388
482.9666, 6.736511
483.4487, 5.374481
483.9308, 4.401642
484.4130, 3.614899
484.8951, 3.309448
485.3772, 4.234924
485.8593, 5.703918
486.3414, 6.281525
486.8235, 5.078827
487.3057, 2.824677
487.7878, 1.218475
488.2699, 0.3696590
488.7520, 0.1932370
489.2341, 0.5549620
489.7162, 0.6480710
490.1984, 0.2467960
490.6805, 0.5817570
491.1626, 1.281769
491.6447, 1.488800
492.1268, 1.312897
492.6089, 0.7711180
493.0910, 0.3022770
493.5732, 0.6964720
494.0553, 0.9908140
494.5374, 3.521576
495.0195, 4.199738
495.5016, 2.162231
495.9837, 2.8990000E-03
496.4659, 1.301361
496.9480, 1.860229
497.4301, 1.703827
497.9122, 0.8315430
498.3943, 0.1348270
498.8764, 0.5503540
499.3586, 0.3607790
499.8407, 0.4388430
500.3228, 1.364502
500.8049, 1.917450
501.2870, 1.363953
501.7691, 0.2202450
502.2513, 0.7767940
502.7334, 1.325989
503.2155, 1.473663
503.6976, 1.203461
504.1797, 0.2334590
504.6618, 0.3277590
505.1440, 0.2396850
505.6261, 0.5183720
506.1082, 0.4159550
506.5903, 2.093018
507.0724, 3.503998
507.5545, 4.185333
508.0367, 4.108765
508.5188, 2.814301
509.0009, 6.7078002E-02
509.4830, 1.909546
509.9651, 1.344849
510.4472, 5.5663999E-02
510.9294, 0.4481810
511.4115, 0.2079770
511.8936, 0.1455690
512.3757, 0.9841610
512.8578, 2.106689
513.3400, 2.702271
513.8221, 2.746399
514.3042, 2.257233
514.7863, 0.9135740
515.2684, 0.7289730
515.7505, 0.9577640
516.2327, 0.9307250
516.7148, 2.477234
517.1969, 2.972473
517.6790, 2.972290
518.1611, 2.993774
518.6432, 3.118591
519.1254, 3.268585
519.6075, 3.463043
520.0896, 3.678192
520.5717, 3.314362
521.0538, 1.125000
521.5359, 6.8755999E-02
522.0180, 0.6873170
522.5001, 2.103699
522.9822, 3.220612
523.4644, 3.788483
523.9465, 3.980164
524.4286, 3.733429
524.9107, 3.069427
525.3928, 3.265411
525.8749, 5.110840
526.3571, 6.415009
526.8392, 5.763367
527.3213, 4.074036
527.8034, 2.553711
528.2855, 1.420959
528.7676, 0.6802670
529.2498, 0.3157040
529.7319, 0.3389280
530.2140, 0.9003300
530.6961, 2.140839
531.1782, 3.493073
531.6603, 4.597992
532.1425, 5.400726
532.6246, 5.439819
533.1067, 3.619965
533.5888, 2.080017
534.0709, 2.243011
534.5530, 3.342499
535.0352, 3.928345
535.5173, 3.506134
535.9994, 2.685577
536.4815, 2.329102
536.9636, 2.522339
537.4457, 2.745239
537.9279, 3.089996
538.4100, 3.442657
538.8921, 3.746094
539.3742, 3.887970
539.8563, 3.935944
540.3384, 3.904480
540.8206, 4.016327
541.3027, 4.683380
541.7848, 5.952362
542.2669, 7.183777
542.7490, 8.484283
543.2311, 9.426086
543.7133, 9.658875
544.1954, 9.337158
544.6775, 8.910278
545.1596, 8.366791
545.6417, 7.769623
546.1238, 7.310669
546.6060, 6.949127
547.0881, 6.427368
547.5702, 5.550049
548.0523, 4.938629
548.5344, 5.665833
549.0165, 8.332520
549.4987, 9.552795
549.9808, 7.768707
550.4629, 5.981812
550.9450, 6.072876
551.4271, 7.413452
551.9092, 8.567444
552.3914, 8.755829
552.8735, 8.340912
553.3556, 8.026337
553.8377, 7.804810
554.3198, 7.513031
554.8019, 7.522461
555.2841, 7.224976
555.7662, 5.636658
556.2483, 3.597656
556.7304, 3.107056
557.2125, 5.612061
557.6946, 9.026031
558.1768, 10.11392
558.6589, 8.930084
559.1410, 8.353241
559.6231, 9.523315
560.1052, 10.78693
560.5873, 9.936798
561.0695, 7.320648
561.5516, 5.539459
562.0337, 5.622406
562.5158, 6.232208
562.9979, 6.538208
563.4800, 6.583771
563.9622, 6.591003
564.4443, 6.607544
564.9264, 6.599548
565.4085, 6.611359
565.8906, 6.884583
566.3727, 6.348572
566.8549, 3.541748
567.3370, 1.372894
567.8191, 1.994598
568.3012, 4.140137
568.7833, 5.242218
569.2654, 4.088165
569.7476, 2.265198
570.2297, 2.486694
570.7118, 4.902069
571.1939, 6.605591
571.6760, 7.067719
572.1581, 6.948456
572.6403, 6.486969
573.1224, 5.759583
573.6045, 5.193237
574.0866, 5.315735
574.5687, 5.244293
575.0508, 3.800598
575.5330, 1.653168
576.0151, 0.8104550
576.4972, 1.900299
576.9793, 3.334534
577.4614, 3.314667
577.9435, 1.669952
578.4257, 0.4429930
578.9078, 1.035065
579.3899, 1.482910
579.8720, 0.7308650
580.3541, 3.814606
580.8362, 5.386200
581.3184, 4.776001
581.8005, 3.269806
582.2826, 2.284515
582.7647, 1.819427
583.2468, 1.724915
583.7289, 2.242615
584.2111, 2.747101
584.6932, 2.907745
585.1753, 2.912384
585.6574, 2.982971
586.1395, 3.152466
586.6216, 3.395630
587.1038, 4.017029
587.5859, 4.649078
588.0680, 4.349304
588.5501, 3.004425
589.0322, 1.510803
589.5143, 0.3504030
589.9965, 0.4059450
590.4786, 0.3256230
590.9607, 1.470184
591.4428, 2.772186
591.9249, 3.337769
592.4070, 3.447357
592.8892, 2.914825
593.3713, 1.922211
593.8534, 1.205200
594.3355, 1.425659
594.8176, 2.224731
595.2997, 1.931183
595.7819, 0.2092290
596.2640, 1.379639
596.7461, 8.7707996E-02
597.2282, 2.058838
597.7103, 3.147156
598.1924, 3.324646
598.6746, 3.252136
599.1567, 2.984100
599.6388, 2.818481
600.1209, 3.551147
600.6030, 4.933167
601.0851, 5.089111
601.5673, 3.047485
602.0494, 0.5102540
602.5315, 0.2518620
603.0136, 3.216003
603.4957, 5.276123
603.9778, 6.039459
604.4600, 6.381042
604.9421, 6.686310
605.4242, 6.826294
605.9063, 6.316986
606.3884, 5.042511
606.8705, 3.835876
607.3527, 4.029968
607.8348, 5.843964
608.3169, 6.872345
608.7990, 6.618225
609.2811, 6.221008
609.7632, 6.060791
610.2454, 6.186554
610.7275, 6.847900
611.2096, 8.402069
611.6917, 9.524841
612.1738, 8.979645
612.6559, 7.456268
613.1381, 6.098724
613.6202, 5.086792
614.1023, 4.804840
614.5844, 5.706390
615.0665, 7.561981
615.5486, 8.893250
616.0308, 9.189758
616.5129, 9.610352
616.9950, 9.984283
617.4771, 10.70032
617.9592, 12.42548
618.4413, 14.86780
618.9235, 16.95917
619.4056, 17.98605
619.8877, 18.08875
620.3698, 17.27304
620.8519, 15.21521
621.3340, 14.20938
621.8162, 15.31195
622.2983, 17.13641
622.7804, 18.76053
623.2625, 20.09708
623.7446, 20.50168
624.2267, 18.25903
624.7089, 16.44461
625.1910, 18.18619
625.6731, 22.03348
626.1552, 24.39511
626.6373, 24.12103
627.1194, 22.84082
627.6016, 22.56796
628.0837, 23.50211
628.5658, 23.50906
629.0479, 21.14413
629.5300, 19.48459
630.0121, 19.52322
630.4943, 20.35245
630.9764, 21.02136
631.4585, 21.32907
631.9406, 21.61295
632.4227, 22.44769
632.9048, 23.45163
633.3870, 23.28223
633.8691, 21.80661
634.3512, 20.40472
634.8333, 19.71399
635.3154, 19.40247
635.7975, 18.87698
636.2797, 18.10309
636.7618, 17.29648
637.2439, 16.58322
637.7260, 15.97440
638.2081, 15.41800
638.6902, 14.80402
639.1724, 13.90732
639.6545, 12.63004
640.1366, 11.24530
640.6187, 10.21472
641.1008, 9.613220
641.5829, 9.042816
642.0651, 8.753021
642.5472, 8.124786
643.0293, 6.196198
643.5114, 4.037903
643.9935, 3.508850
644.4756, 5.385864
644.9578, 7.032898
645.4398, 6.383362
645.9219, 4.492584
646.4041, 3.079773
646.8862, 2.321869
647.3683, 1.999329
647.8504, 2.109009
648.3325, 2.370270
648.8146, 1.835297
649.2968, 0.7594300
649.7789, 2.125183
650.2610, 1.201538
650.7431, 0.1264340
651.2252, 0.4571530
651.7073, 1.609161
652.1895, 1.970154
652.6716, 0.6559750
653.1537, 1.130005
653.6358, 1.693146
654.1179, 1.085968
654.6000, 0.2982480
655.0822, 0.7855220
655.5643, 1.543671
656.0464, 1.271515
656.5285, 0.2904660
657.0106, 1.3763000E-02
657.4927, 1.204926
657.9749, 1.714539
658.4570, 0.1570740
658.9391, 1.907227
659.4212, 3.043854
659.9033, 3.082428
660.3854, 2.451080
660.8676, 1.415375
661.3497, 0.1080930
661.8318, 1.107819
662.3139, 2.474976
662.7960, 2.784576
663.2781, 1.117615
663.7603, 0.8205570
664.2424, 2.000122
664.7245, 2.580353
665.2066, 3.046478
665.6887, 3.597900
666.1708, 3.941650
666.6530, 3.706573
667.1351, 3.170135
667.6172, 2.850525
668.0993, 2.829620
668.5814, 2.836639
669.0635, 2.598358
669.5457, 2.257935
670.0278, 2.621887
670.5099, 4.193787
670.9920, 5.649506
671.4741, 7.326996
671.9562, 8.493622
672.4384, 8.193604
672.9205, 6.957886
673.4026, 6.340088
673.8847, 7.198669
674.3668, 8.766235
674.8489, 10.34821
675.3311, 11.87335
675.8132, 12.89795
676.2953, 13.27399
676.7774, 13.53610
677.2595, 14.02267
677.7416, 14.77451
678.2238, 16.16119
678.7059, 18.68381
679.1880, 21.10709
679.6701, 23.70660
680.1522, 25.80417
680.6343, 26.26022
681.1165, 25.61139
681.5986, 25.80054
682.0807, 28.17557
682.5628, 31.62717
683.0449, 34.02527
683.5270, 35.37024
684.0092, 36.90573
684.4913, 38.85947
684.9734, 41.01315
685.4555, 43.19431
685.9376, 45.42911
686.4197, 47.83481
686.9019, 50.39050
687.3840, 53.13937
687.8661, 56.07114
688.3482, 59.20984
688.8303, 62.87686
689.3124, 66.85117
689.7946, 70.16910
690.2767, 72.01370
690.7588, 73.40668
691.2409, 77.15408
691.7230, 83.80679
692.2051, 89.39108
692.6873, 92.60806
693.1694, 95.62607
693.6515, 99.85925
694.1336, 105.0175
694.6157, 110.4571
695.0978, 116.1601
695.5800, 122.0028
696.0621, 127.0909
696.5442, 132.7239
697.0263, 141.0891
697.5084, 151.8177
697.9905, 162.1750
698.4727, 170.4355
698.9548, 177.4951
699.4369, 185.7511
699.9190, 195.5400
700.4011, 205.2929
700.8832, 214.8444
701.3654, 224.3463
701.8475, 233.4400
702.3296, 242.6243
702.8117, 253.1056
703.2938, 265.5547
703.7759, 277.9935
704.2581, 289.0681
704.7402, 299.6956
705.2223, 311.0815
705.7044, 323.3189
706.1865, 336.0698
706.6686, 349.2967
707.1508, 362.0460
707.6329, 372.0648
708.1150, 378.6700
708.5971, 385.2812
709.0792, 392.9049
709.5613, 399.0309
710.0435, 402.2282
710.5256, 403.7419
711.0077, 405.6444
711.4898, 408.5650
711.9719, 409.6113
712.4540, 405.8565
712.9362, 399.6312
713.4183, 394.7626
713.9004, 391.0327
714.3825, 385.4625
714.8646, 376.6056
715.3467, 365.2743
715.8289, 352.8348
716.3110, 338.7776
716.7931, 326.4821
717.2752, 318.0152
717.7573, 308.8537
718.2394, 297.3200
718.7216, 284.6722
719.2037, 272.1270
719.6858, 259.9019
720.1679, 247.8262
720.6500, 235.7844
721.1321, 224.0655
721.6143, 213.1257
722.0964, 202.6827
722.5785, 191.5491
723.0606, 179.2016
723.5427, 167.2645
724.0248, 158.0413
724.5070, 151.6613
724.9891, 144.5392
725.4712, 135.9277
725.9533, 127.5474
726.4354, 119.1924
726.9175, 111.5327
727.3997, 105.4771
727.8818, 100.8548
728.3639, 96.16888
728.8460, 90.16983
729.3281, 84.20911
729.8102, 80.32660
730.2924, 77.79971
730.7745, 74.41757
731.2566, 69.65448
731.7387, 64.27560
732.2208, 58.77859
732.7029, 53.32013
733.1851, 48.86316
733.6672, 45.69064
734.1493, 43.06976
734.6314, 41.80252
735.1135, 40.22452
735.5956, 36.67935
736.0778, 31.99011
736.5599, 28.51776
737.0420, 27.49493
737.5241, 27.01511
738.0062, 25.42377
738.4883, 23.24716
738.9705, 21.53766
739.4526, 20.39804
739.9347, 19.24658
740.4168, 17.68256
740.8989, 15.97354
741.3810, 14.91898
741.8632, 15.13654
742.3453, 14.41220
742.8274, 11.43729
743.3095, 8.940979
743.7916, 8.510956
744.2737, 8.986877
744.7559, 8.487122
745.2380, 6.509277
745.7201, 4.766510
746.2022, 4.481445
746.6843, 4.842133
747.1664, 5.209778
747.6486, 5.352631
748.1307, 4.401337
748.6128, 1.976807
749.0949, 0.5224300
749.5770, 1.026581
750.0591, 0.6053470
750.5413, 1.392181
751.0234, 0.9815980
751.5055, 0.3456120
751.9876, 0.4533080
752.4697, 1.206818
752.9518, 1.785309
753.4340, 2.165497
753.9161, 2.250854
754.3982, 2.096863
754.8803, 1.545654
755.3624, 0.1090390
755.8445, 2.032288
756.3267, 2.675354
756.8088, 1.837616
757.2909, 0.5330510
757.7730, 0.4797670
758.2551, 1.236877
758.7372, 1.949768
759.2194, 2.736755
759.7015, 2.932800
760.1836, 2.216675
760.6657, 1.189453
761.1478, 0.1237790
761.6299, 1.392334
762.1121, 1.736145
762.5942, 0.5515440
763.0763, 0.3921200
763.5584, 0.1794130
764.0405, 0.3071590
764.5226, 0.2562560
765.0048, 0.2243650
765.4869, 0.7672730
765.9690, 1.202393
766.4511, 1.218506
766.9332, 0.1049190
767.4153, 2.020630
767.8975, 3.446564
768.3795, 4.064301
768.8616, 4.291779
769.3438, 4.038361
769.8259, 3.760559
770.3080, 4.217072
770.7901, 5.484100
771.2722, 6.636902
771.7543, 7.550873
772.2365, 8.424042
772.7186, 9.408539
773.2007, 10.34241
773.6828, 10.93454
774.1649, 11.22995
774.6470, 11.57828
775.1292, 11.96033
775.6113, 12.93085
776.0934, 16.15033
776.5755, 21.16330
777.0576, 24.63446
777.5397, 25.81201
778.0219, 26.16064
778.5040, 26.63513
778.9861, 27.29160
779.4682, 28.36502
779.9503, 30.18597
780.4324, 31.91803
780.9146, 33.23181
781.3967, 34.79935
781.8788, 37.41885
782.3609, 40.39005
782.8430, 42.12183
783.3251, 42.02689
783.8073, 42.72086
784.2894, 47.02393
784.7715, 52.74100
785.2536, 56.56305
785.7357, 58.68314
786.2178, 60.61108
786.7000, 62.90939
787.1821, 65.55408
787.6642, 68.58807
788.1463, 71.99127
788.6284, 75.28284
789.1105, 78.64673
789.5927, 81.51505
790.0748, 83.12885
790.5569, 84.75574
791.0390, 87.75177
791.5211, 91.72781
792.0032, 94.75558
792.4854, 94.65616
792.9675, 95.99149
793.4496, 102.1904
793.9317, 110.2384
794.4138, 116.8604
794.8959, 121.8869
795.3781, 126.3287
795.8602, 130.6886
796.3423, 135.3453
796.8244, 141.1479
797.3065, 147.9969
797.7886, 154.0940
798.2708, 158.9156
798.7529, 164.8289
799.2350, 172.8572
799.7171, 182.7406
800.1992, 194.2665
800.6813, 207.8589
801.1635, 221.3513
801.6456, 233.9325
802.1277, 247.4292
802.6098, 261.9169
803.0919, 278.0001
803.5740, 296.5823
804.0562, 317.5287
804.5383, 339.4297
805.0204, 360.7737
805.5025, 383.5356
805.9846, 410.4276
806.4667, 440.7523
806.9489, 471.7226
807.4310, 503.1626
807.9131, 538.9574
808.3952, 582.2617
808.8773, 630.5193
809.3594, 675.8099
809.8416, 716.0290
810.3237, 760.9749
810.8058, 814.0862
811.2879, 867.2590
811.7700, 919.5842
812.2521, 968.6807
812.7343, 1011.094
813.2164, 1046.749
813.6985, 1075.238
814.1806, 1098.925
814.6627, 1112.933
815.1448, 1113.932
815.6270, 1102.943
816.1091, 1080.876
816.5912, 1048.478
817.0733, 1007.279
817.5554, 957.5428
818.0375, 901.6036
818.5197, 843.3136
819.0018, 782.8354
819.4839, 723.9199
819.9660, 666.4814
820.4481, 612.5500
820.9302, 563.6328
821.4124, 518.5662
821.8945, 474.2043
822.3766, 428.1276
822.8587, 387.4479
823.3408, 353.3795
823.8229, 322.8270
824.3051, 295.1189
824.7872, 269.9718
825.2693, 247.4525
825.7514, 227.3545
826.2335, 209.2910
826.7156, 194.1053
827.1978, 180.2323
827.6799, 166.1133
828.1620, 152.2660
828.6441, 139.7831
829.1262, 128.9522
829.6083, 119.7723
830.0905, 112.4460
830.5726, 106.2696
831.0547, 98.93869
831.5368, 90.16859
832.0189, 83.06555
832.5010, 78.38940
832.9832, 74.25081
833.4653, 69.31096
833.9474, 64.26500
834.4295, 61.10716
834.9116, 60.53041
835.3937, 58.85797
835.8759, 54.34607
836.3580, 50.36888
836.8401, 48.98009
837.3222, 48.48410
837.8043, 47.04993
838.2864, 44.48447
838.7686, 41.87125
839.2507, 39.70212
839.7328, 37.78864
840.2149, 35.81339
840.6970, 34.04820
841.1791, 33.45166
841.6613, 34.01622
842.1434, 34.25111
842.6255, 33.17406
843.1076, 31.31805
843.5897, 29.79460
844.0718, 28.59503
844.5540, 27.91997
845.0361, 28.02838
845.5182, 28.04349
846.0003, 27.40848
846.4824, 26.61436
846.9645, 26.54506
847.4467, 27.23761
847.9288, 27.10472
848.4109, 25.37909
848.8930, 23.54938
849.3751, 21.81401
849.8572, 20.40971
850.3394, 19.88751
850.8215, 19.94016
851.3036, 19.39244
851.7857, 17.46259
852.2678, 15.77266
852.7499, 16.40649
853.2321, 18.18347
853.7142, 18.76517
854.1963, 18.09595
854.6784, 16.81999
855.1605, 15.16454
855.6426, 13.75333
856.1248, 13.52257
856.6069, 14.44147
857.0890, 15.26868
857.5711, 16.33661
858.0532, 16.26865
858.5353, 14.04759
859.0175, 11.48061
859.4996, 9.840073
859.9817, 9.033463
860.4638, 8.753860
860.9459, 9.672775
861.4280, 9.959198
861.9102, 8.928177
862.3923, 7.553619
862.8744, 5.997742
863.3565, 4.689377
863.8386, 4.527252
864.3207, 5.694412
864.8029, 6.713440
865.2850, 6.177811
865.7671, 5.114746
866.2492, 4.946411
866.7313, 5.310791
867.2134, 5.046967
867.6956, 3.939743
868.1777, 2.772690
868.6598, 2.175934
869.1419, 2.041733
869.6240, 2.230789
870.1061, 2.897156
870.5883, 2.348938
871.0704, 0.3346250
871.5525, 2.157455
872.0346, 0.9122770
872.5167, 1.610428
872.9988, 1.947296
873.4810, 0.6925810
873.9631, 1.641937
874.4452, 0.9883120
874.9273, 2.947495
875.4094, 2.566086
875.8915, 1.340530
876.3737, 0.4677890
876.8558, 6.2500000E-02
877.3379, 0.1305540
877.8200, 0.1692660
878.3021, 3.8254000E-02
878.7842, 0.4243320
879.2664, 0.9500580
879.7485, 1.245758
880.2306, 1.277039
880.7127, 1.031219
881.1948, 0.5055240
881.6769, 0.2747800
882.1591, 1.721603
882.6412, 3.297913
883.1233, 2.134979
883.6054, 1.804779
884.0875, 4.231003
884.5696, 3.974030
885.0518, 2.537918
885.5339, 0.8873600
886.0160, 0.7460480
886.4981, 1.479019
886.9802, 1.043823
887.4623, 0.3224950
887.9445, 1.166168
888.4266, 2.382843
888.9087, 3.129715
889.3908, 3.297653
889.8729, 2.424835
890.3550, 0.5054630
890.8372, 0.6560210
891.3193, 0.1231080
891.8014, 0.7875980
892.2834, 2.060837
892.7656, 2.944122
893.2477, 2.051895
893.7298, 3.4240998E-02
894.2119, 1.008255
894.6940, 0.3655550
895.1761, 2.012054
895.6583, 1.319489
896.1404, 0.5311280
896.6225, 1.118591
897.1046, 0.5089570
897.5867, 0.3182220
898.0688, 1.022202
898.5510, 1.640900
899.0331, 2.253647
899.5152, 2.776733
899.9973, 2.754135
900.4794, 2.100845
900.9615, 1.383942
901.4437, 0.5704800
901.9258, 2.7161000E-02
902.4079, 0.2873230
902.8900, 0.1464690
903.3721, 0.6457820
903.8542, 2.472748
904.3364, 3.738235
904.8185, 4.638840
905.3006, 4.806183
905.7827, 3.371750
906.2648, 1.735657
906.7469, 1.347809
907.2291, 2.042725
907.7112, 2.580933
908.1933, 2.710419
908.6754, 2.352066
909.1575, 0.7415160
909.6396, 0.8049010
910.1218, 0.9457550
910.6039, 8.9553997E-02
911.0860, 1.817719
911.5681, 3.974350
912.0502, 5.651917
912.5323, 5.784210
913.0145, 5.028641
913.4966, 4.646255
913.9787, 4.504013
914.4608, 4.022507
914.9429, 3.102875
915.4250, 1.926788
915.9072, 0.4956050
916.3893, 0.6015010
916.8714, 0.3807830
917.3535, 3.782242
917.8356, 5.418335
918.3177, 4.892151
918.7999, 3.720123
919.2820, 2.103851
919.7641, 0.6204830
920.2462, 8.9706004E-02
920.7283, 4.9819998E-02
921.2104, 0.2784120
921.6926, 1.653748
922.1747, 2.208145
922.6568, 0.7848360
923.1389, 0.3756560
923.6210, 0.1462860
924.1031, 1.625671
924.5853, 3.011017
925.0674, 4.185699
925.5495, 4.522049
926.0316, 3.194183
926.5137, 1.647949
926.9958, 0.4414370
927.4780, 0.3042300
927.9601, 0.2540890
928.4422, 0.2928010
928.9243, 0.7759550
929.4064, 0.8002620
929.8885, 1.058868
930.3707, 2.369568
930.8528, 4.049835
931.3349, 5.049118
931.8170, 5.310547
932.2991, 4.976044
932.7813, 4.002747
933.2634, 2.787460
933.7455, 1.509872
934.2276, 0.6124730
934.7097, 1.974045
935.1918, 5.523529
935.6740, 7.544495
936.1561, 7.461945
936.6382, 6.617447
937.1203, 5.516800
937.6024, 4.497849
938.0845, 4.129288
938.5667, 4.460159
939.0488, 4.941467
939.5309, 5.919373
940.0130, 6.156189
940.4951, 4.777893
940.9772, 3.420059
941.4594, 3.580139
941.9415, 4.514725
942.4236, 4.508530
942.9057, 3.002701
943.3878, 1.932632
943.8699, 1.220917
944.3521, 1.255508
944.8342, 3.119232
945.3163, 5.327744
945.7984, 6.319534
946.2805, 5.972733
946.7626, 4.886459
947.2448, 2.414948
947.7269, 0.9401860
948.2090, 3.075226
948.6911, 5.942459
949.1732, 6.676300
949.6553, 5.750122
950.1375, 4.546066
950.6196, 3.580521
951.1017, 3.050400
951.5838, 3.264542
952.0659, 3.795364
952.5480, 4.186584
953.0302, 4.352478
953.5123, 4.164490
953.9944, 3.636459
954.4765, 3.438095
954.9586, 4.004776
955.4407, 4.819519
955.9229, 5.012375
956.4050, 4.668106
956.8871, 4.425980
957.3692, 4.280289
957.8513, 4.467819
958.3334, 5.097366
958.8156, 5.891754
959.2977, 6.825089
959.7798, 7.447601
960.2619, 6.112885
960.7440, 1.787476
961.2261, 0.2996670
961.7083, 0.6802980
962.1904, 1.991516
962.6725, 2.915512
963.1546, 3.505814
963.6367, 3.772095
964.1188, 3.725143
964.6010, 3.575089
965.0831, 3.250229
965.5652, 2.962494
966.0473, 2.577744
966.5294, 2.386078
967.0115, 2.538361
967.4937, 2.874573
967.9758, 3.515396
968.4579, 4.501556
968.9400, 4.889999
969.4221, 3.609512
969.9042, 2.659317
970.3864, 3.403229
970.8685, 4.401215
971.3506, 4.257416
971.8327, 3.308640
972.3148, 2.451263
972.7969, 1.951874
973.2791, 1.896561
973.7612, 2.985123
974.2433, 3.876053
974.7254, 2.995255
975.2075, 1.358200
975.6896, 0.6095120
976.1718, 0.8531190
976.6539, 1.241577
977.1360, 1.322021
977.6181, 1.479263
978.1002, 2.488708
978.5823, 3.801254
979.0645, 4.048813
979.5466, 3.484070
980.0287, 3.061264
980.5108, 2.997253
980.9929, 3.107101
981.4750, 3.367599
981.9572, 3.822449
982.4393, 4.713898
982.9214, 5.919769
983.4035, 6.400665
983.8856, 6.108795
984.3677, 4.541107
984.8499, 1.232651
985.3320, 1.337158
985.8141, 0.3173680
986.2962, 3.235611
986.7783, 4.399750
987.2604, 2.552124
987.7426, 1.510071
988.2247, 1.720749
988.7068, 2.242264
989.1889, 2.846802
989.6710, 3.241577
990.1531, 2.883331
990.6353, 1.816696
991.1174, 1.644211
991.5995, 3.117950
992.0816, 3.978928
992.5637, 3.662003
993.0458, 3.269958
993.5280, 3.295486
994.0101, 3.582581
994.4922, 4.078308
994.9743, 4.847763
995.4564, 4.809814
995.9385, 3.028870
996.4207, 1.666931
996.9028, 1.247787
997.3849, 1.299667
997.8670, 1.756134
998.3491, 2.352386
998.8312, 2.592377
999.3134, 2.365051
999.7955, 2.335541
1000.278, 3.365433
1000.760, 3.802963
1001.242, 2.194397
1001.724, 0.2077640
1002.206, 0.6282040
1002.688, 0.4010010
1003.170, 0.3532100
1003.652, 1.556335
1004.135, 2.276779
1004.617, 1.503540
1005.099, 0.5153960
1005.581, 0.1350710
1006.063, 0.3517760
1006.545, 1.405334
1007.027, 2.932053
1007.509, 3.884476
1007.991, 3.797836
1008.474, 3.012375
1008.956, 1.035202
1009.438, 0.8511510
1009.920, 0.8304440
1010.402, 0.5680850
1010.884, 2.599701
1011.366, 4.782852
1011.848, 5.851974
1012.331, 4.948013
1012.813, 3.481674
1013.295, 3.175674
1013.777, 3.690186
1014.259, 4.740784
1014.741, 5.941376
1015.223, 5.643631
1015.705, 3.645096
1016.187, 2.063721
1016.669, 2.556061
1017.152, 3.729187
1017.634, 2.649902
1018.116, 3.0243000E-02
1018.598, 0.5825960
1019.080, 0.7308960
1019.562, 1.903503
1020.044, 2.271088
1020.526, 1.973160
1021.009, 0.9916530
1021.491, 0.1271510
1021.973, 0.2623600
1022.455, 2.062897
1022.937, 3.059067
1023.419, 3.110413
1023.901, 2.708038
1024.383, 1.948135
1024.865, 1.229355
1025.348, 0.9622040
1025.830, 0.9791720
1026.312, 0.5040590
1026.794, 0.6739200
1027.276, 0.4733730
1027.758, 1.620529
1028.240, 3.224091
1028.722, 3.370728
1029.205, 2.927979
1029.687, 2.794662
1030.169, 2.847946
1030.651, 2.388412
1031.133, 1.160889
1031.615, 0.3143920
1032.097, 0.2295840
1032.579, 5.8140000E-03
1033.062, 1.745667
1033.544, 3.517136
1034.026, 3.577606
1034.508, 2.200592
1034.990, 1.299454
1035.472, 0.6516880
1035.954, 1.096161
1036.436, 3.758850
1036.918, 5.692001
1037.401, 5.430496
1037.883, 4.207779
1038.365, 3.177551
1038.847, 2.369690
1039.329, 2.100739
1039.811, 2.848846
1040.293, 3.319534
1040.775, 3.187469
1041.257, 3.161804
1041.740, 3.620316
1042.222, 4.214539
1042.704, 4.747070
1043.186, 5.077621
1043.668, 4.724976
1044.150, 2.672470
1044.632, 1.403305
1045.114, 1.475632
1045.597, 1.857193
1046.079, 2.267288
1046.561, 2.664154
1047.043, 3.136734
1047.525, 3.617722
1048.007, 3.603210
1048.489, 2.515411
1048.971, 1.834000
1049.453, 2.190811
1049.936, 2.529633
1050.418, 2.243057
1050.900, 1.740219
1051.382, 1.276520
1051.864, 0.9930420
1052.346, 1.570877
1052.828, 4.046906
1053.310, 5.647049
1053.792, 5.111160
1054.275, 4.271576
1054.757, 4.035736
1055.239, 3.990494
1055.721, 3.351410
1056.203, 2.275543
1056.685, 1.888672
1057.167, 2.751129
1057.649, 3.665497
1058.132, 4.402710
1058.614, 4.951340
1059.096, 5.491806
1059.578, 5.701035
1060.060, 4.952530
1060.542, 3.498413
1061.024, 2.391693
1061.506, 1.881500
1061.989, 1.860672
1062.471, 2.929657
1062.953, 3.732681
1063.435, 2.813370
1063.917, 1.646790
1064.399, 2.405426
1064.881, 4.637650
1065.363, 5.792526
1065.845, 4.789795
1066.328, 3.891403
1066.810, 4.261581
1067.292, 4.737244
1067.774, 4.965347
1068.256, 4.711700
1068.738, 3.120102
1069.220, 0.8325200
1069.702, 5.4170000E-03
1070.184, 1.585770
1070.667, 2.922958
1071.149, 2.306870
1071.631, 1.664871
1072.113, 2.602921
1072.595, 3.804260
1073.077, 3.623764
1073.559, 2.410629
1074.041, 1.604691
1074.524, 1.655029
1075.006, 1.810181
1075.488, 1.886902
1075.970, 1.776047
1076.452, 1.076462
1076.934, 0.4536740
1077.416, 0.8843080
1077.898, 1.859238
1078.380, 1.876877
1078.863, 0.4907530
1079.345, 0.6515050
1079.827, 0.8865360
1080.309, 0.5413510
1080.791, 0.7754210
1081.273, 2.087341
1081.755, 2.261581
1082.237, 1.755478
1082.719, 1.724319
1083.202, 2.423752
1083.684, 2.947922
1084.166, 2.521027
1084.648, 2.288879
1085.130, 3.349701
1085.612, 4.453262
1086.094, 4.193268
1086.576, 3.273438
1087.058, 3.125580
1087.541, 3.944962
1088.023, 4.679840
1088.505, 5.301712
1088.987, 5.206024
1089.469, 3.404938
1089.951, 1.534241
1090.433, 0.6887510
1090.915, 0.6830600
1091.398, 1.362289
1091.880, 2.534454
1092.362, 3.330612
1092.844, 3.355881
1093.326, 3.168747
1093.808, 2.854538
1094.290, 2.537521
1094.772, 2.231079
1095.255, 2.003067
1095.737, 1.965714
1096.219, 2.086075
1096.701, 2.211929
1097.183, 2.446091
1097.665, 2.297424
1098.147, 0.8963930
1098.629, 6.3704997E-02
1099.111, 0.6795960
1099.594, 1.950836
1100.076, 2.684189
1100.558, 2.846115
1101.040, 2.594269
1101.522, 1.743347
1102.004, 1.422928
1102.486, 2.412247
1102.968, 3.299026
1103.450, 3.304581
1103.933, 3.209351
1104.415, 3.851929
1104.897, 4.856659
1105.379, 5.282455
1105.861, 4.955704
1106.343, 4.656891
1106.825, 4.784012
1107.307, 4.553589
1107.790, 3.209503
1108.272, 2.047684
1108.754, 2.343735
1109.236, 3.130615
1109.718, 2.695709
1110.200, 0.8721160
1110.682, 0.5475770
1111.164, 1.790939
1111.646, 2.095795
1112.129, 0.5288090
1112.611, 0.9758000
1113.093, 1.455444
1113.575, 1.473663
1114.057, 1.667313
1114.539, 2.009995
1115.021, 2.267258
1115.503, 2.340820
1115.985, 2.504913
1116.468, 2.727798
1116.950, 3.114822
1117.432, 4.155914
1117.914, 4.804276
1118.396, 3.763046
1118.878, 1.689774
1119.360, 0.8113860
1119.842, 1.339600
1120.325, 2.360397
1120.807, 4.443756
1121.289, 5.640335
1121.771, 5.282272
1122.253, 4.381836
1122.735, 3.551743
1123.217, 2.708038
1123.699, 1.639648
1124.182, 0.3216400
1124.664, 0.5185390
1125.146, 0.8894040
1125.628, 0.6594540
1126.110, 0.3952640
1126.592, 1.281387
1127.074, 1.494064
1127.556, 1.269150
1128.038, 0.8500520
1128.521, 0.3107300
1129.003, 6.4102001E-02
1129.485, 8.6150996E-02
1129.967, 0.9500120
1130.449, 2.818802
1130.931, 4.144257
1131.413, 4.376801
1131.895, 3.817154
1132.377, 2.616806
1132.860, 1.208664
1133.342, 0.6814580
1133.824, 0.9855040
1134.306, 1.959564
1134.788, 3.477386
1135.270, 3.851074
1135.752, 2.736404
1136.234, 1.873047
1136.717, 2.416153
1137.199, 3.257767
1137.681, 2.493439
1138.163, 0.8886410
1138.645, 0.8576970
1139.127, 1.973694
1139.609, 2.872360
1140.091, 3.250656
1140.573, 2.700119
1141.056, 1.115036
1141.538, 0.1387940
1142.020, 0.4845580
1142.502, 1.795731
1142.984, 1.940659
1143.466, 1.461395
1143.948, 1.256821
1144.430, 1.378036
1144.912, 1.811874
1145.395, 2.465134
1145.877, 2.862289
1146.359, 2.665451
1146.841, 2.330688
1147.323, 2.219452
1147.805, 2.334900
1148.287, 2.489227
1148.769, 2.617004
1149.252, 2.667068
1149.734, 2.663254
1150.216, 2.673111
1150.698, 2.706207
1151.180, 2.929077
1151.662, 3.657990
1152.144, 4.321671
1152.626, 4.469543
1153.109, 4.477478
1153.591, 4.663330
1154.073, 4.995102
1154.555, 5.348938
1155.037, 5.708862
1155.519, 6.133194
1156.001, 7.359421
1156.483, 7.562302
1156.965, 5.070923
1157.448, 2.900955
1157.930, 3.176468
1158.412, 4.198639
1158.894, 3.933075
1159.376, 2.607574
1159.858, 1.706192
1160.340, 1.146393
1160.822, 1.460052
1161.304, 3.643219
1161.787, 5.126892
1162.269, 5.107010
1162.751, 4.573624
1163.233, 4.003433
1163.715, 3.488937
1164.197, 3.214096
1164.679, 3.184525
1165.161, 3.270996
1165.644, 3.721863
1166.126, 3.119156
1166.608, 0.7515410
1167.090, 0.3938900
1167.572, 1.227341
1168.054, 3.453629
1168.536, 3.961716
1169.018, 3.249191
1169.500, 3.035934
1169.983, 3.408142
1170.465, 3.961746
1170.947, 4.636078
1171.429, 4.763153
1171.911, 4.200378
1172.393, 3.519119
1172.875, 3.058640
1173.357, 2.833405
1173.839, 2.814224
1174.322, 3.047058
1174.804, 3.923416
1175.286, 5.182632
1175.768, 6.215042
1176.250, 6.801529
1176.732, 6.289200
1177.214, 4.623337
1177.696, 3.192856
1178.179, 3.001465
1178.661, 3.516479
1179.143, 4.428894
1179.625, 5.503143
1180.107, 6.898224
1180.589, 7.996536
1181.071, 7.483978
1181.553, 5.626709
1182.036, 3.986801
1182.518, 3.050323
1183.000, 2.866928
1183.482, 4.275024
1183.964, 5.533539
1184.446, 5.493240
1184.928, 4.975693
1185.410, 4.773636
1185.892, 4.755081
1186.375, 4.399780
1186.857, 3.704895
1187.339, 3.544769
1187.821, 4.591568
1188.303, 5.300034
1188.785, 5.424454
1189.267, 5.296173
1189.749, 4.918945
1190.231, 4.475723
1190.714, 3.947571
1191.196, 3.535965
1191.678, 3.871078
1192.160, 5.091431
1192.642, 5.974335
1193.124, 6.643555
1193.606, 6.307220
1194.088, 4.352951
1194.571, 3.552780
1195.053, 5.710114
1195.535, 7.765366
1196.017, 5.694290
1196.499, 1.325623
1196.981, 1.499451
1197.463, 5.513748
1197.945, 6.948349
1198.427, 5.735367
1198.910, 3.923737
1199.392, 2.134399
1199.874, 1.066650
1200.356, 1.134705
1200.838, 1.952454
1201.320, 3.433319
1201.802, 5.046112
1202.284, 6.119171
1202.766, 6.585205
1203.249, 6.271881
1203.731, 5.225662
1204.213, 3.110229
1204.695, 0.1561130
1205.177, 1.546326
1205.659, 0.6779020
1206.141, 1.246643
1206.623, 4.550934
1207.105, 7.130524
1207.588, 7.075226
1208.070, 5.732285
1208.552, 4.326691
1209.034, 3.115814
1209.516, 2.273026
1209.998, 1.819473
1210.480, 1.705368
1210.962, 1.949707
1211.445, 2.492554
1211.927, 4.039566
1212.409, 4.970627
1212.891, 4.155594
1213.373, 2.834396
1213.855, 2.361969
1214.337, 2.506241
1214.819, 2.301575
1215.302, 1.624313
1215.784, 1.322464
1216.266, 1.469025
1216.748, 1.497223
1217.230, 1.229080
1217.712, 1.465103
1218.194, 2.731216
1218.676, 4.036804
1219.158, 4.091629
1219.641, 3.338409
1220.123, 2.827393
1220.605, 2.519958
1221.087, 2.749207
1221.569, 3.310745
1222.051, 3.288391
1222.533, 2.555801
1223.015, 1.761856
1223.497, 1.241898
1223.980, 0.9076540
1224.462, 0.7485810
1224.944, 0.6493380
1225.426, 0.6810610
1225.908, 0.6743770
1226.390, 0.3433990
1226.872, 0.1305690
1227.354, 0.2690120
1227.837, 0.1313630
1228.319, 0.2355190
1228.801, 0.9295500
1229.283, 1.593994
1229.765, 2.610825
1230.247, 2.998718
1230.729, 1.570648
1231.211, 0.1524350
1231.693, 0.4334410
1232.176, 1.499725
1232.658, 1.437317
1233.140, 0.2368010
1233.622, 0.2184300
1234.104, 1.787186
1234.586, 2.825089
1235.068, 3.064316
1235.550, 3.278625
1236.032, 3.745453
1236.515, 4.085236
1236.997, 3.981750
1237.479, 3.482391
1237.961, 2.395737
1238.443, 1.085541
1238.925, 0.8739930
1239.407, 1.475357
1239.889, 2.477448
1240.372, 3.476624
1240.854, 2.834259
1241.336, 0.4266360
1241.818, 1.267899
1242.300, 0.4947200
1242.782, 1.044083
1243.264, 2.854980
1243.746, 3.879608
1244.229, 2.344101
1244.711, 8.6150996E-02
1245.193, 0.9961550
1245.675, 0.5177310
1246.157, 0.6161650
1246.639, 2.294586
1247.121, 3.003601
1247.603, 1.624176
1248.085, 0.7146450
1248.568, 0.5383300
1249.050, 0.9187620
1249.532, 2.426529
1250.014, 3.479645
1250.496, 2.406342
1250.978, 0.3872680
1251.460, 0.1089170
1251.942, 1.529297
1252.424, 3.095627
1252.907, 4.815292
1253.389, 4.974060
1253.871, 3.448349
1254.353, 2.448669
1254.835, 2.767456
1255.317, 3.373840
1255.799, 3.387909
1256.281, 3.329117
1256.764, 4.403442
1257.246, 5.698166
1257.728, 5.549286
1258.210, 4.757339
1258.692, 5.056625
1259.174, 6.071869
1259.656, 7.233902
1260.138, 8.152863
1260.620, 7.937103
1261.103, 5.050873
1261.585, 3.262314
1262.067, 5.107056
1262.549, 6.836014
1263.031, 6.516022
1263.513, 4.900726
1263.995, 3.298111
1264.477, 2.011536
1264.959, 2.131424
1265.442, 4.143616
1265.924, 5.519333
1266.406, 5.811035
1266.888, 5.571259
1267.370, 4.901764
1267.852, 4.888840
1268.334, 6.032898
1268.816, 6.384979
1269.299, 4.122299
1269.781, 1.334229
1270.263, 1.237396
1270.745, 2.681671
1271.227, 3.653275
1271.709, 4.133453
1272.191, 3.866241
1272.673, 3.383484
1273.156, 4.409531
1273.638, 6.908035
1274.120, 8.073578
1274.602, 6.352585
1275.084, 4.841110
1275.566, 5.752701
1276.048, 6.015381
1276.530, 3.298172
1277.012, 0.5506900
1277.495, 0.4633180
1277.977, 1.1520000E-02
1278.459, 1.213074
1278.941, 2.802856
1279.423, 3.545029
1279.905, 3.065216
1280.387, 3.892746
1280.869, 6.219788
1281.351, 5.495941
1281.834, 3.304337
1282.316, 1.505646
1282.798, 1.257385
1283.280, 1.639847
1283.762, 1.212830
1284.244, 0.0000000E+00
##END=



