##NAMES=Wangkuirenite
##RRUFFID=R220047
##IDEAL CHEMISTRY=Pb^2+^_3_Cl_2_(Se^4+^O_3_)_2_
##LOCALITY=Baccu Locci mine, Villaputen, Sardinia, Italy
##OWNER=RRUFF
##SOURCE=Bill Pinch
##DESCRIPTION=Pale yellow tabular or bladed crystals, associated with krut'aite, chalcomenite, orlandiite, olsacherite, and anglesite.
##STATUS=The identification of this mineral is confirmed by single-crystal X-ray diffraction and chemical analysis.
##URL=rruff.info/R220047
##MEASURED CHEMISTRY=Pb_3.01_Cl_1.96_(Se_1.00_O_3.02_)_2_ ; calculated on the basis of 8 (O + Cl) apfu.
88.51367, 0.0000000E+00
88.99579, 0.5593870
89.47791, 2.357605
89.96002, 27.39532
90.44214, 60.58649
90.92426, 92.76349
91.40637, 124.2419
91.88849, 157.0876
92.37061, 193.7551
92.85272, 231.1311
93.33484, 271.7036
93.81696, 316.1252
94.29907, 359.4841
94.78119, 403.1477
95.26331, 452.0954
95.74542, 499.5063
96.22754, 514.7178
96.70966, 505.5920
97.19177, 477.5303
97.67389, 429.6826
98.15601, 369.6218
98.63812, 305.4422
99.12024, 235.6133
99.60236, 171.7812
100.0845, 118.8033
100.5666, 76.16241
101.0487, 41.46045
101.5308, 13.59338
102.0129, 7.029968
102.4950, 17.60864
102.9772, 15.89960
103.4593, 9.041382
103.9414, 1.158386
104.4235, 5.722717
104.9056, 17.36469
105.3877, 34.92651
105.8699, 57.86249
106.3520, 81.84845
106.8341, 107.0327
107.3162, 133.0113
107.7983, 159.3959
108.2804, 188.6872
108.7626, 216.1758
109.2447, 241.8440
109.7268, 266.2661
110.2089, 287.0425
110.6910, 303.9312
111.1731, 317.5191
111.6553, 327.9934
112.1374, 337.2961
112.6195, 342.1537
113.1016, 340.6636
113.5837, 331.0931
114.0658, 321.2872
114.5480, 312.4326
115.0301, 304.6147
115.5122, 298.3375
115.9943, 292.1652
116.4764, 288.4393
116.9585, 288.6641
117.4407, 293.7216
117.9228, 301.1697
118.4049, 309.4586
118.8870, 319.0342
119.3691, 331.2665
119.8512, 347.1776
120.3334, 365.8022
120.8155, 386.1456
121.2976, 407.6841
121.7797, 431.1393
122.2618, 458.2255
122.7439, 488.5940
123.2261, 518.6295
123.7082, 544.4793
124.1903, 568.2640
124.6724, 593.1552
125.1545, 621.6741
125.6366, 651.2170
126.1188, 678.3707
126.6009, 703.1282
127.0830, 725.8475
127.5651, 747.5009
128.0472, 767.4803
128.5293, 784.2936
129.0115, 796.6677
129.4936, 805.4053
129.9757, 812.7781
130.4578, 818.9011
130.9399, 823.3180
131.4220, 823.6709
131.9042, 820.1470
132.3863, 819.2292
132.8684, 824.2180
133.3505, 834.7914
133.8326, 846.9385
134.3147, 860.1296
134.7969, 875.6073
135.2790, 896.7765
135.7611, 924.6626
136.2432, 953.7208
136.7253, 981.5140
137.2074, 1007.930
137.6896, 1034.919
138.1717, 1063.573
138.6538, 1092.667
139.1359, 1118.689
139.6180, 1143.367
140.1001, 1161.844
140.5823, 1171.105
141.0644, 1170.455
141.5465, 1162.740
142.0286, 1147.571
142.5107, 1125.514
142.9928, 1098.780
143.4750, 1067.742
143.9571, 1032.084
144.4392, 991.4792
144.9213, 941.0103
145.4034, 893.0005
145.8855, 849.2719
146.3677, 810.0524
146.8498, 771.1834
147.3319, 733.0156
147.8140, 695.3937
148.2961, 658.2145
148.7782, 617.6724
149.2604, 581.8580
149.7425, 552.4673
150.2246, 530.3792
150.7067, 509.7595
151.1888, 491.2182
151.6709, 473.6091
152.1531, 455.6510
152.6352, 435.4484
153.1173, 416.4794
153.5994, 399.6040
154.0815, 385.4147
154.5636, 372.0420
155.0458, 360.0942
155.5279, 348.8734
156.0100, 337.4081
156.4921, 324.0303
156.9742, 311.4693
157.4563, 301.1835
157.9385, 294.3079
158.4206, 287.2209
158.9027, 278.5298
159.3848, 268.9731
159.8669, 259.3401
160.3490, 250.9061
160.8312, 242.6826
161.3133, 233.7153
161.7954, 223.2286
162.2775, 213.0677
162.7596, 203.9207
163.2417, 195.6163
163.7238, 187.8411
164.2060, 180.3135
164.6881, 173.3221
165.1702, 167.0546
165.6523, 161.8544
166.1344, 156.8674
166.6165, 151.8663
167.0987, 146.7084
167.5808, 141.0327
168.0629, 134.1569
168.5450, 126.8174
169.0271, 119.5662
169.5092, 112.0100
169.9914, 105.2967
170.4735, 101.0057
170.9556, 98.77808
171.4377, 96.28937
171.9198, 91.64307
172.4019, 85.83472
172.8841, 80.31360
173.3662, 75.14270
173.8483, 70.78979
174.3304, 67.93579
174.8125, 66.49353
175.2946, 65.81494
175.7768, 66.41345
176.2589, 67.34833
176.7410, 66.66467
177.2231, 62.56024
177.7052, 57.19458
178.1873, 53.69635
178.6695, 52.02124
179.1516, 51.34900
179.6337, 51.69434
180.1158, 52.58600
180.5979, 52.66943
181.0800, 51.00391
181.5622, 48.36298
182.0443, 46.43121
182.5264, 45.21893
183.0085, 43.91992
183.4906, 41.33282
183.9727, 37.80823
184.4549, 34.76208
184.9370, 33.14545
185.4191, 32.45355
185.9012, 31.14081
186.3833, 29.01697
186.8654, 26.66791
187.3476, 25.37543
187.8297, 25.11060
188.3118, 24.73700
188.7939, 23.77020
189.2760, 22.30243
189.7581, 20.69495
190.2403, 18.90259
190.7224, 17.25409
191.2045, 16.37207
191.6866, 16.12927
192.1687, 15.36389
192.6508, 13.17603
193.1330, 9.858337
193.6151, 8.592163
194.0972, 9.807068
194.5793, 11.92236
195.0614, 12.64301
195.5435, 11.90582
196.0257, 10.79272
196.5078, 9.935669
196.9899, 9.281616
197.4720, 7.384521
197.9541, 3.811829
198.4362, 9.8511003E-02
198.9184, 2.103577
199.4005, 1.912048
199.8826, 1.359741
200.3647, 1.309875
200.8468, 1.879028
201.3289, 2.061279
201.8111, 1.515320
202.2932, 0.9024050
202.7753, 1.766479
203.2574, 4.578735
203.7395, 6.885742
204.2216, 7.211609
204.7038, 5.136902
205.1859, 4.220886
205.6680, 4.833008
206.1501, 6.240784
206.6322, 7.069397
207.1143, 7.398193
207.5965, 7.235840
208.0786, 6.272461
208.5607, 4.161560
209.0428, 3.109375
209.5249, 3.629700
210.0070, 4.807678
210.4892, 4.407959
210.9713, 1.617920
211.4534, 0.6922610
211.9355, 0.9400630
212.4176, 1.717102
212.8997, 3.094055
213.3819, 2.915466
213.8640, 1.575806
214.3461, 0.1652220
214.8282, 2.587341
215.3103, 4.888672
215.7924, 6.704651
216.2746, 7.938843
216.7567, 8.746399
217.2388, 8.786133
217.7209, 8.618164
218.2030, 9.790588
218.6851, 13.26898
219.1673, 16.17139
219.6494, 17.02063
220.1315, 14.89209
220.6136, 13.28571
221.0957, 12.26190
221.5778, 11.73669
222.0600, 11.47919
222.5421, 11.23138
223.0242, 11.36026
223.5063, 12.32388
223.9884, 15.00858
224.4705, 16.22342
224.9527, 15.59177
225.4348, 13.65155
225.9169, 11.63132
226.3990, 9.131714
226.8811, 7.008606
227.3632, 5.735474
227.8454, 5.544434
228.3275, 5.575836
228.8096, 5.976501
229.2917, 6.541077
229.7738, 6.793121
230.2559, 6.514496
230.7381, 6.391174
231.2202, 6.601440
231.7023, 6.691345
232.1844, 7.740936
232.6665, 10.63104
233.1486, 14.23398
233.6308, 15.93155
234.1129, 14.84729
234.5950, 13.31625
235.0771, 12.20285
235.5592, 11.71124
236.0413, 10.96564
236.5235, 9.736176
237.0056, 8.375610
237.4877, 7.604584
237.9698, 7.870575
238.4519, 8.018494
238.9340, 7.434143
239.4162, 5.487213
239.8983, 4.977417
240.3804, 6.885040
240.8625, 9.709900
241.3446, 10.68906
241.8267, 9.064209
242.3089, 6.764374
242.7910, 3.979492
243.2731, 7.0983998E-02
243.7552, 1.481079
244.2373, 1.274841
244.7194, 5.734924
245.2016, 7.694580
245.6837, 5.641693
246.1658, 3.632233
246.6479, 3.095062
247.1300, 4.546997
247.6121, 4.825287
248.0943, 2.925110
248.5764, 0.6089170
249.0585, 0.7371520
249.5406, 5.071442
250.0227, 8.657928
250.5048, 9.915100
250.9870, 8.448700
251.4691, 7.271454
251.9512, 6.531036
252.4333, 5.984589
252.9154, 5.210846
253.3975, 3.860626
253.8797, 2.974213
254.3618, 3.006866
254.8439, 4.062286
255.3260, 4.644073
255.8081, 4.606476
256.2902, 4.193207
256.7723, 3.487549
257.2545, 2.199493
257.7366, 1.771179
258.2187, 2.905945
258.7008, 5.596344
259.1829, 6.754486
259.6650, 5.735992
260.1472, 4.153381
260.6293, 3.595734
261.1114, 4.390198
261.5935, 4.943054
262.0756, 5.135803
262.5577, 5.116180
263.0399, 4.469879
263.5220, 2.547516
264.0041, 0.7692260
264.4862, 0.8478090
264.9683, 3.710266
265.4504, 5.377136
265.9326, 4.781555
266.4147, 2.408600
266.8968, 0.9534300
267.3789, 0.5048220
267.8610, 0.4416500
268.3431, 0.4818730
268.8253, 0.8144230
269.3074, 1.169006
269.7895, 1.370483
270.2716, 1.266571
270.7537, 0.9965520
271.2358, 0.6745300
271.7180, 0.3257750
272.2001, 0.1965640
272.6822, 1.044647
273.1643, 1.299103
273.6464, 0.6853030
274.1285, 0.4771120
274.6107, 1.317780
275.0928, 1.843353
275.5749, 2.011139
276.0570, 1.593414
276.5391, 0.5309140
277.0212, 7.4920997E-02
277.5034, 0.5751040
277.9855, 1.412140
278.4676, 0.9507750
278.9497, 1.039276
279.4318, 2.674103
279.9139, 2.703644
280.3961, 1.154724
280.8782, 0.1947630
281.3603, 1.369598
281.8424, 2.125366
282.3245, 1.599487
282.8066, 0.2882080
283.2888, 1.609772
283.7709, 1.183655
284.2530, 0.7982790
284.7351, 2.638306
285.2172, 4.384033
285.6993, 5.796448
286.1815, 6.828003
286.6636, 7.432678
287.1457, 6.711670
287.6278, 3.075256
288.1099, 2.363434
288.5920, 4.911224
289.0742, 4.359833
289.5563, 2.155273
290.0384, 1.191467
290.5205, 5.271027
291.0026, 7.398346
291.4847, 5.450134
291.9669, 1.340240
292.4490, 0.2059630
292.9311, 2.153046
293.4132, 4.483063
293.8953, 4.498322
294.3774, 2.741638
294.8596, 1.184052
295.3417, 0.2238770
295.8238, 0.1372680
296.3059, 0.3057250
296.7880, 1.503662
297.2701, 2.777649
297.7523, 3.920654
298.2344, 4.789032
298.7165, 4.939972
299.1986, 3.986664
299.6807, 2.727814
300.1628, 2.213013
300.6450, 2.306396
301.1271, 2.234100
301.6092, 1.508789
302.0913, 0.7633360
302.5734, 0.5314940
303.0555, 0.8214110
303.5377, 1.427063
304.0198, 2.479919
304.5019, 3.757568
304.9840, 4.678223
305.4661, 4.794861
305.9482, 4.297302
306.4304, 3.162994
306.9125, 1.364105
307.3946, 6.4389999E-03
307.8767, 9.7626001E-02
308.3588, 0.5772090
308.8409, 1.206696
309.3231, 1.198181
309.8052, 1.145111
310.2873, 1.619751
310.7694, 2.685059
311.2515, 3.536163
311.7336, 3.617004
312.2158, 3.295776
312.6979, 3.029205
313.1800, 2.772278
313.6621, 2.740204
314.1442, 3.127991
314.6263, 3.904388
315.1085, 4.703125
315.5906, 5.813324
316.0727, 6.777283
316.5548, 7.170502
317.0369, 5.972717
317.5190, 5.017883
318.0012, 5.135071
318.4833, 6.074188
318.9654, 6.767029
319.4475, 6.830994
319.9296, 6.578400
320.4117, 6.182587
320.8939, 5.689758
321.3760, 4.993835
321.8581, 3.486908
322.3402, 1.770264
322.8223, 1.160736
323.3044, 2.379852
323.7866, 4.211182
324.2687, 6.476166
324.7508, 10.04486
325.2329, 11.93033
325.7150, 10.19977
326.1971, 7.113251
326.6793, 6.030334
327.1614, 9.375031
327.6435, 12.15329
328.1256, 12.93927
328.6077, 11.21490
329.0898, 10.62506
329.5720, 11.75449
330.0541, 13.60928
330.5362, 15.18259
331.0183, 16.02756
331.5004, 17.48026
331.9825, 20.03842
332.4647, 23.55359
332.9468, 26.16110
333.4289, 27.42474
333.9110, 28.31183
334.3931, 29.36746
334.8752, 30.33563
335.3573, 32.18405
335.8394, 35.27530
336.3216, 39.18970
336.8037, 42.47287
337.2858, 44.64038
337.7679, 47.45981
338.2500, 52.43692
338.7321, 59.83899
339.2143, 65.75235
339.6964, 69.46844
340.1785, 72.50696
340.6606, 77.75281
341.1427, 85.49408
341.6248, 92.85175
342.1070, 98.36902
342.5891, 102.2743
343.0712, 107.0676
343.5533, 112.7083
344.0354, 119.3206
344.5175, 127.3449
344.9997, 136.6797
345.4818, 145.7325
345.9639, 153.7408
346.4460, 161.1753
346.9281, 169.3022
347.4102, 178.1767
347.8924, 186.8452
348.3745, 194.6380
348.8566, 201.4457
349.3387, 207.1062
349.8208, 211.4785
350.3029, 214.7677
350.7851, 217.3929
351.2672, 219.2499
351.7493, 219.6553
352.2314, 219.0704
352.7135, 216.4948
353.1956, 209.9746
353.6778, 198.6845
354.1599, 186.1212
354.6420, 175.2407
355.1241, 165.3138
355.6062, 155.0450
356.0883, 142.7208
356.5705, 130.5827
357.0526, 120.3593
357.5347, 112.1396
358.0168, 105.3088
358.4989, 100.3078
358.9810, 96.27505
359.4632, 92.33905
359.9453, 87.53900
360.4274, 83.43707
360.9095, 80.73581
361.3916, 79.32404
361.8737, 78.55615
362.3559, 78.05255
362.8380, 78.24738
363.3201, 79.51044
363.8022, 82.98596
364.2843, 85.81000
364.7664, 87.00250
365.2486, 87.19202
365.7307, 87.74738
366.2128, 88.13379
366.6949, 89.51776
367.1770, 92.73932
367.6591, 99.03125
368.1413, 103.4187
368.6234, 104.5142
369.1055, 104.2127
369.5876, 104.8070
370.0697, 107.1449
370.5518, 109.2900
371.0340, 111.1258
371.5161, 112.7221
371.9982, 113.0171
372.4803, 111.4108
372.9624, 109.0255
373.4445, 106.9007
373.9267, 105.4494
374.4088, 102.9394
374.8909, 98.76379
375.3730, 93.66876
375.8551, 90.05316
376.3372, 88.35840
376.8194, 86.39960
377.3015, 82.77020
377.7836, 77.41376
378.2657, 72.79352
378.7478, 68.96643
379.2299, 65.86981
379.7121, 63.49127
380.1942, 61.80988
380.6763, 60.21631
381.1584, 58.52496
381.6405, 56.76068
382.1227, 54.72668
382.6048, 52.38556
383.0869, 50.82690
383.5690, 51.79614
384.0511, 54.23041
384.5332, 55.43738
385.0154, 54.53986
385.4975, 52.67572
385.9796, 50.29742
386.4617, 47.86206
386.9438, 47.03772
387.4259, 50.51074
387.9081, 55.23914
388.3902, 57.56006
388.8723, 56.64667
389.3544, 55.86304
389.8365, 58.05005
390.3186, 61.69690
390.8008, 64.48254
391.2829, 64.46582
391.7650, 64.31293
392.2471, 65.50336
392.7292, 67.99738
393.2113, 70.46484
393.6935, 72.59808
394.1756, 74.44647
394.6577, 75.99841
395.1398, 76.67242
395.6219, 77.86737
396.1040, 80.30719
396.5862, 83.50366
397.0683, 86.09137
397.5504, 87.41541
398.0325, 88.58917
398.5146, 90.10669
398.9967, 92.39771
399.4789, 93.69226
399.9610, 93.72021
400.4431, 92.90863
400.9252, 91.67841
401.4073, 89.70355
401.8894, 87.97528
402.3716, 87.13306
402.8537, 86.90546
403.3358, 84.34930
403.8179, 78.59625
404.3000, 72.47144
404.7821, 68.33563
405.2643, 66.59631
405.7464, 63.14990
406.2285, 56.97241
406.7106, 49.87018
407.1927, 45.26508
407.6748, 43.21295
408.1570, 41.46136
408.6391, 39.02997
409.1212, 36.03778
409.6033, 32.86414
410.0854, 29.44360
410.5675, 26.27966
411.0497, 23.96545
411.5318, 22.30688
412.0139, 20.82184
412.4960, 19.34351
412.9781, 17.96259
413.4602, 16.97308
413.9424, 16.25848
414.4245, 15.31995
414.9066, 13.47998
415.3887, 11.42957
415.8708, 10.04749
416.3529, 9.658691
416.8351, 9.142883
417.3172, 7.303650
417.7993, 4.984314
418.2814, 3.479431
418.7635, 4.162109
419.2456, 4.957031
419.7278, 4.758301
420.2099, 3.578674
420.6920, 2.827026
421.1741, 3.794556
421.6562, 4.745911
422.1383, 4.516052
422.6205, 1.461060
423.1026, 0.9359740
423.5847, 2.170471
424.0668, 2.601318
424.5489, 3.156128
425.0310, 4.525513
425.5132, 5.156921
425.9953, 4.304321
426.4774, 1.596252
426.9595, 0.3825070
427.4416, 1.724854
427.9237, 2.211365
428.4059, 1.220581
428.8880, 1.879089
429.3701, 3.785645
429.8522, 3.560486
430.3343, 1.859070
430.8164, 1.180054
431.2986, 1.666260
431.7807, 2.023621
432.2628, 1.047058
432.7449, 0.9385990
433.2270, 1.739685
433.7091, 1.044983
434.1912, 8.4045000E-02
434.6733, 0.2017210
435.1555, 0.4319460
435.6376, 0.8679200
436.1197, 0.3920290
436.6018, 0.2545170
437.0839, 0.1384280
437.5660, 1.476379
438.0482, 2.780762
438.5303, 2.940002
439.0124, 2.920898
439.4945, 3.974792
439.9766, 6.907166
440.4587, 9.585205
440.9409, 10.52234
441.4230, 10.37427
441.9051, 10.33899
442.3872, 10.48444
442.8693, 11.13605
443.3514, 12.78827
443.8336, 15.59875
444.3157, 17.64264
444.7978, 17.63757
445.2799, 17.45465
445.7620, 18.42535
446.2441, 21.88281
446.7263, 24.87341
447.2084, 27.41992
447.6905, 29.44598
448.1726, 30.64026
448.6547, 30.24512
449.1368, 30.34308
449.6190, 31.94763
450.1011, 35.27277
450.5832, 37.71899
451.0653, 39.45514
451.5474, 40.03265
452.0295, 38.55273
452.5117, 34.78271
452.9938, 31.85577
453.4759, 30.83020
453.9580, 30.53595
454.4401, 27.77673
454.9222, 22.66217
455.4044, 17.80054
455.8865, 14.41656
456.3686, 12.45093
456.8507, 12.37177
457.3328, 14.36169
457.8149, 15.78760
458.2971, 12.81165
458.7792, 7.918152
459.2613, 5.320801
459.7434, 8.318176
460.2255, 12.18463
460.7076, 13.47046
461.1898, 12.74878
461.6719, 11.70026
462.1540, 11.27600
462.6361, 10.89935
463.1182, 10.14868
463.6003, 8.807861
464.0825, 7.731934
464.5646, 7.213623
465.0467, 7.051819
465.5288, 7.020020
466.0109, 6.904907
466.4930, 7.165527
466.9752, 8.194275
467.4573, 9.783142
467.9394, 10.54443
468.4215, 9.951050
468.9036, 9.261230
469.3857, 9.156738
469.8679, 9.886353
470.3500, 10.27698
470.8321, 9.958862
471.3142, 9.536743
471.7963, 10.35217
472.2784, 12.61871
472.7606, 14.65015
473.2427, 16.11749
473.7248, 16.94470
474.2069, 16.34979
474.6890, 14.41016
475.1711, 13.16406
475.6533, 15.09393
476.1354, 18.57159
476.6175, 20.03534
477.0996, 18.82672
477.5817, 17.06677
478.0638, 16.59821
478.5460, 16.94843
479.0281, 17.31586
479.5102, 17.98615
479.9923, 18.04071
480.4744, 16.25250
480.9565, 13.05450
481.4387, 10.74420
481.9208, 10.79346
482.4029, 11.64282
482.8850, 12.64655
483.3671, 14.43311
483.8492, 14.71924
484.3314, 11.80402
484.8135, 7.839478
485.2956, 5.479492
485.7777, 5.793762
486.2598, 6.096069
486.7419, 5.670349
487.2241, 4.776611
487.7062, 5.156250
488.1883, 7.547424
488.6704, 9.660034
489.1525, 10.17505
489.6346, 8.994995
490.1168, 7.363220
490.5989, 5.034119
491.0810, 3.027588
491.5631, 3.268860
492.0452, 5.304504
492.5273, 6.008301
493.0095, 3.624634
493.4916, 0.3807980
493.9737, 0.6534420
494.4558, 3.758423
494.9379, 6.402161
495.4200, 5.819580
495.9022, 3.934753
496.3843, 2.828064
496.8664, 2.736084
497.3485, 3.185303
497.8306, 4.364990
498.3127, 5.642334
498.7949, 6.352539
499.2770, 6.446350
499.7591, 5.818726
500.2412, 3.523132
500.7233, 0.3286130
501.2054, 1.180115
501.6876, 1.148438
502.1697, 3.519775
502.6518, 4.760498
503.1339, 4.748657
503.6160, 4.193726
504.0981, 2.430420
504.5803, 0.9055180
505.0624, 1.209473
505.5445, 3.873047
506.0266, 5.850037
506.5087, 6.753845
506.9908, 6.795227
507.4730, 6.183716
507.9551, 4.757813
508.4372, 3.102295
508.9193, 1.014160
509.4014, 1.055664
509.8835, 1.580688
510.3657, 0.5852050
510.8478, 0.7135620
511.3299, 1.490540
511.8120, 1.876038
512.2941, 2.108337
512.7762, 2.352600
513.2584, 2.177246
513.7405, 0.4708250
514.2226, 1.798523
514.7047, 2.926147
515.1868, 1.914124
515.6689, 6.1584000E-02
516.1511, 3.567322
516.6332, 8.342285
517.1153, 10.37823
517.5974, 5.766174
518.0795, 0.9278560
518.5616, 0.8624270
519.0438, 1.801086
519.5259, 3.788269
520.0080, 4.966187
520.4901, 5.615295
520.9722, 6.133972
521.4543, 6.586914
521.9365, 6.563293
522.4186, 5.763611
522.9007, 4.553650
523.3828, 4.180664
523.8649, 4.665344
524.3470, 5.365906
524.8292, 6.206055
525.3113, 6.946350
525.7934, 7.044312
526.2755, 6.482300
526.7576, 5.168335
527.2397, 1.763977
527.7219, 2.160034
528.2040, 3.975708
528.6861, 2.152161
529.1682, 0.5819090
529.6503, 2.838257
530.1324, 4.749084
530.6146, 6.597107
531.0967, 9.098450
531.5788, 10.95306
532.0609, 11.64948
532.5430, 11.12708
533.0251, 9.815857
533.5073, 5.961731
533.9894, 2.851318
534.4715, 2.702209
534.9536, 7.983459
535.4357, 10.20935
535.9178, 7.981262
536.4000, 4.021179
536.8821, 2.846619
537.3642, 4.823303
537.8463, 6.395996
538.3284, 6.353149
538.8105, 5.350769
539.2927, 5.110718
539.7748, 5.620117
540.2569, 6.582458
540.7390, 8.724915
541.2211, 10.93152
541.7032, 10.76245
542.1854, 7.936768
542.6675, 5.083130
543.1496, 4.573730
543.6317, 5.109924
544.1138, 4.996948
544.5959, 2.506348
545.0781, 1.209778
545.5602, 4.074890
546.0423, 9.079834
546.5244, 11.89661
547.0065, 10.10883
547.4886, 7.562378
547.9708, 4.712219
548.4529, 1.574524
548.9350, 0.7044070
549.4171, 3.445862
549.8992, 6.487976
550.3813, 7.654480
550.8635, 6.517212
551.3456, 5.881836
551.8277, 5.940430
552.3098, 6.318237
552.7919, 6.776550
553.2740, 7.233276
553.7562, 6.609558
554.2383, 3.798950
554.7204, 0.8419190
555.2025, 1.844055
555.6846, 5.881104
556.1667, 9.029358
556.6489, 8.350037
557.1310, 6.265198
557.6131, 4.625183
558.0952, 3.548279
558.5773, 3.488831
559.0594, 5.755188
559.5416, 8.572205
560.0237, 10.26105
560.5058, 9.719055
560.9879, 9.482300
561.4700, 10.34326
561.9521, 11.48401
562.4343, 11.90277
562.9164, 11.90424
563.3985, 10.47565
563.8806, 6.421692
564.3627, 0.8862300
564.8448, 0.7055050
565.3270, 2.328064
565.8091, 5.552002
566.2912, 6.134094
566.7733, 4.641174
567.2554, 4.402527
567.7375, 5.621948
568.2197, 6.770386
568.7018, 6.155151
569.1839, 4.449524
569.6660, 2.806030
570.1481, 1.274109
570.6302, 0.4432980
571.1124, 1.548889
571.5945, 3.522705
572.0766, 4.425842
572.5587, 1.953064
573.0408, 0.2791750
573.5229, 2.055725
574.0051, 6.491882
574.4872, 8.221619
574.9693, 3.646484
575.4514, 0.4219970
575.9335, 1.136230
576.4156, 2.131836
576.8978, 4.170349
577.3799, 4.578918
577.8620, 4.284363
578.3441, 3.776428
578.8262, 3.046265
579.3083, 3.747986
579.7905, 6.623230
580.2726, 9.700745
580.7547, 9.597900
581.2368, 7.113403
581.7189, 5.103882
582.2010, 5.039368
582.6831, 5.766296
583.1652, 6.442017
583.6473, 6.946350
584.1295, 6.828918
584.6116, 4.822021
585.0937, 2.913757
585.5758, 2.522827
586.0579, 4.191956
586.5400, 5.048950
587.0222, 3.245483
587.5043, 1.265686
587.9864, 1.038574
588.4685, 4.064697
588.9506, 5.846252
589.4327, 5.769226
589.9149, 4.844238
590.3970, 4.912598
590.8791, 6.289795
591.3612, 7.315186
591.8433, 7.180786
592.3254, 6.419678
592.8076, 6.847595
593.2897, 8.331116
593.7718, 9.325623
594.2539, 8.216125
594.7360, 6.248413
595.2181, 5.380188
595.7003, 5.734680
596.1824, 6.326904
596.6645, 6.260315
597.1466, 6.188049
597.6287, 7.000244
598.1108, 9.576721
598.5930, 11.18945
599.0751, 10.40735
599.5572, 8.704895
600.0393, 7.872498
600.5214, 8.827515
601.0035, 9.072693
601.4857, 8.141785
601.9678, 6.465576
602.4499, 5.035706
602.9320, 3.644043
603.4141, 2.906738
603.8962, 3.270325
604.3784, 4.410706
604.8605, 5.326660
605.3426, 5.979248
605.8247, 6.341858
606.3068, 6.088562
606.7889, 5.629944
607.2711, 5.706116
607.7532, 6.407654
608.2353, 6.972412
608.7174, 6.471924
609.1995, 5.812378
609.6816, 5.932678
610.1638, 7.898987
610.6459, 9.368286
611.1280, 9.527222
611.6101, 9.016968
612.0922, 8.926575
612.5743, 9.784790
613.0565, 10.02502
613.5386, 8.957092
614.0207, 7.091370
614.5028, 6.813232
614.9849, 8.320740
615.4670, 10.04224
615.9492, 11.26208
616.4313, 12.05249
616.9134, 12.50781
617.3955, 12.63190
617.8776, 12.90631
618.3597, 13.84601
618.8419, 15.10669
619.3240, 16.30518
619.8061, 17.42078
620.2882, 18.35413
620.7703, 19.49640
621.2524, 20.23694
621.7346, 19.93121
622.2167, 16.40320
622.6988, 14.23804
623.1809, 14.71460
623.6630, 16.73334
624.1451, 18.38458
624.6273, 19.50757
625.1094, 20.64142
625.5915, 22.01233
626.0736, 23.47711
626.5557, 24.26361
627.0378, 24.31329
627.5200, 24.67432
628.0021, 26.32483
628.4842, 28.64648
628.9663, 30.38904
629.4484, 31.52734
629.9305, 32.11188
630.4127, 32.27557
630.8948, 31.81946
631.3769, 30.26410
631.8590, 26.89178
632.3411, 24.63654
632.8232, 25.97449
633.3054, 28.23169
633.7875, 28.65649
634.2696, 26.01141
634.7517, 23.15619
635.2338, 19.86993
635.7159, 16.61285
636.1981, 14.32562
636.6802, 13.01196
637.1623, 12.54810
637.6444, 13.02130
638.1265, 14.20288
638.6086, 16.04718
639.0908, 18.35254
639.5729, 19.34314
640.0550, 16.50958
640.5371, 12.47980
641.0192, 11.27454
641.5013, 12.80914
641.9835, 13.30951
642.4656, 8.880615
642.9477, 3.859314
643.4298, 1.705505
643.9119, 4.097046
644.3940, 5.610596
644.8762, 5.049805
645.3583, 3.578674
645.8404, 2.032593
646.3225, 0.1832890
646.8046, 0.8378300
647.2867, 0.5380860
647.7689, 4.2908002E-02
648.2510, 1.319397
648.7331, 4.527344
649.2152, 6.498169
649.6973, 5.937988
650.1794, 4.227478
650.6616, 3.630737
651.1437, 3.785828
651.6258, 3.479126
652.1079, 1.235901
652.5900, 0.9956050
653.0721, 1.395203
653.5543, 0.2333980
654.0364, 0.1290890
654.5185, 1.943665
655.0006, 4.142273
655.4827, 5.444458
655.9648, 5.739624
656.4470, 5.640442
656.9291, 5.091309
657.4112, 4.216309
657.8933, 2.950378
658.3754, 1.248413
658.8575, 9.4543003E-02
659.3397, 1.130127
659.8218, 1.392334
660.3039, 0.6206050
660.7860, 3.854065
661.2681, 5.202637
661.7502, 3.088562
662.2324, 0.9215700
662.7145, 2.175659
663.1966, 5.134521
663.6787, 6.910767
664.1608, 5.200012
664.6429, 3.628906
665.1251, 3.339661
665.6072, 4.099792
666.0893, 4.887634
666.5714, 5.873962
667.0535, 6.564392
667.5356, 6.668213
668.0178, 6.326233
668.4999, 6.687866
668.9820, 7.895813
669.4641, 8.551147
669.9462, 7.151794
670.4283, 4.642822
670.9105, 3.438232
671.3926, 3.600403
671.8747, 4.224548
672.3568, 4.918945
672.8389, 5.569885
673.3210, 6.010925
673.8032, 6.160767
674.2853, 6.361816
674.7674, 6.230591
675.2495, 6.477905
675.7316, 7.900391
676.2137, 12.48700
676.6959, 14.32275
677.1780, 11.80292
677.6601, 7.900330
678.1422, 7.296814
678.6243, 10.15057
679.1064, 13.07880
679.5886, 15.34595
680.0707, 17.28229
680.5528, 19.66418
681.0349, 22.22577
681.5170, 23.94409
681.9991, 23.20953
682.4813, 22.45612
682.9634, 24.10742
683.4455, 27.46057
683.9276, 29.82587
684.4097, 29.42090
684.8918, 28.78357
685.3740, 28.78931
685.8561, 29.43176
686.3382, 30.60022
686.8203, 32.45062
687.3024, 34.53766
687.7845, 36.52863
688.2667, 38.45935
688.7488, 41.02100
689.2309, 44.25354
689.7130, 47.70599
690.1951, 50.67358
690.6772, 53.69910
691.1594, 58.24719
691.6415, 64.75684
692.1236, 70.74329
692.6057, 73.80518
693.0878, 75.73663
693.5699, 78.28314
694.0521, 81.17212
694.5342, 85.43555
695.0163, 92.72198
695.4984, 100.7861
695.9805, 106.7393
696.4626, 109.5139
696.9448, 113.2242
697.4269, 118.3814
697.9090, 124.9172
698.3911, 133.2311
698.8732, 143.1656
699.3553, 153.3101
699.8375, 163.3007
700.3196, 172.8033
700.8017, 180.6088
701.2838, 187.5170
701.7659, 195.9250
702.2480, 206.9996
702.7302, 219.5314
703.2123, 234.2784
703.6944, 250.8415
704.1765, 264.5194
704.6586, 272.5251
705.1407, 281.5825
705.6229, 294.6609
706.1050, 311.3723
706.5871, 324.9519
707.0692, 334.9165
707.5513, 344.4822
708.0334, 356.2511
708.5156, 369.1459
708.9977, 380.0360
709.4798, 388.9052
709.9619, 396.0773
710.4440, 401.5696
710.9261, 405.4076
711.4083, 407.7670
711.8904, 408.7296
712.3725, 408.1915
712.8546, 406.0669
713.3367, 402.2740
713.8188, 396.9353
714.3010, 390.1447
714.7831, 381.3200
715.2652, 369.7554
715.7473, 357.1097
716.2294, 345.2776
716.7115, 334.0671
717.1937, 323.1984
717.6758, 312.9647
718.1579, 301.8749
718.6400, 286.1581
719.1221, 268.2349
719.6042, 252.2123
720.0864, 240.6641
720.5685, 230.0341
721.0506, 219.1102
721.5327, 207.8422
722.0148, 195.8370
722.4969, 180.8219
722.9791, 168.3173
723.4612, 159.9842
723.9433, 154.4258
724.4254, 147.5896
724.9075, 139.2381
725.3896, 131.1669
725.8718, 124.2064
726.3539, 117.8038
726.8360, 110.6243
727.3181, 102.8591
727.8002, 95.41150
728.2823, 89.18335
728.7645, 83.13306
729.2466, 75.95026
729.7287, 67.95673
730.2108, 61.61169
730.6929, 58.33429
731.1750, 56.18365
731.6572, 54.79633
732.1393, 54.18280
732.6214, 51.81171
733.1035, 47.07422
733.5856, 42.37024
734.0677, 39.29559
734.5499, 37.58112
735.0320, 35.81085
735.5141, 33.96582
735.9962, 32.09686
736.4783, 30.53430
736.9604, 28.81726
737.4426, 25.99524
737.9247, 21.72241
738.4068, 18.70447
738.8889, 20.06927
739.3710, 21.58087
739.8531, 19.70654
740.3353, 12.19257
740.8174, 7.907227
741.2995, 7.792419
741.7816, 9.248901
742.2637, 9.779419
742.7458, 9.454102
743.2280, 10.15234
743.7101, 12.37659
744.1922, 13.81995
744.6743, 10.76385
745.1564, 5.536865
745.6385, 2.086426
746.1207, 1.725525
746.6028, 2.311523
747.0849, 3.519104
747.5670, 4.846375
748.0491, 5.717773
748.5313, 6.420105
749.0134, 6.095276
749.4955, 4.436890
749.9776, 2.004700
750.4597, 0.9114380
750.9418, 4.397644
751.4240, 5.582214
751.9061, 3.309387
752.3882, 0.1902470
752.8703, 2.427002
753.3524, 3.389099
753.8345, 3.000427
754.3167, 0.1946410
754.7988, 2.903503
755.2809, 2.765076
755.7630, 0.9970090
756.2451, 6.5917999E-02
756.7272, 1.542847
757.2094, 2.189087
757.6915, 0.9953610
758.1736, 1.042358
758.6557, 0.8189090
759.1378, 1.982727
759.6199, 3.167175
760.1021, 0.4703980
760.5842, 3.676392
761.0663, 4.624939
761.5484, 3.116638
762.0305, 1.602295
762.5126, 1.382202
762.9948, 1.454285
763.4769, 0.8645020
763.9590, 1.2820000E-03
764.4411, 0.3934330
764.9232, 4.782104
765.4053, 7.323669
765.8875, 5.855042
766.3696, 1.426331
766.8517, 0.4812010
767.3338, 0.3185420
767.8159, 2.028015
768.2980, 4.262451
768.7802, 6.577271
769.2623, 7.919556
769.7444, 8.416870
770.2265, 8.659485
770.7086, 8.627869
771.1907, 8.742493
771.6729, 9.238586
772.1550, 10.11731
772.6371, 11.34186
773.1192, 13.21777
773.6013, 15.03613
774.0834, 16.66974
774.5656, 18.07343
775.0477, 18.65619
775.5298, 18.30652
776.0119, 18.21033
776.4940, 18.86932
776.9761, 20.36786
777.4583, 23.79340
777.9404, 28.76300
778.4225, 32.16058
778.9046, 29.20312
779.3867, 26.37512
779.8688, 29.08307
780.3509, 38.01019
780.8330, 43.06683
781.3151, 40.71442
781.7972, 38.52075
782.2794, 40.21265
782.7615, 45.63593
783.2436, 49.85394
783.7257, 52.84961
784.2078, 54.96350
784.6899, 55.91528
785.1721, 56.37457
785.6542, 57.65338
786.1363, 59.74036
786.6184, 61.55359
787.1005, 61.19196
787.5826, 61.34747
788.0648, 64.28839
788.5469, 70.73456
789.0290, 75.44611
789.5111, 77.60052
789.9932, 79.08649
790.4753, 80.64459
790.9575, 82.30225
791.4396, 85.11853
791.9217, 89.15448
792.4038, 92.86169
792.8859, 93.85980
793.3680, 94.35858
793.8502, 97.72339
794.3323, 104.1863
794.8144, 110.9918
795.2965, 117.0909
795.7786, 122.9277
796.2607, 128.3576
796.7429, 133.0495
797.2250, 140.0749
797.7071, 149.8475
798.1892, 161.0096
798.6713, 173.1419
799.1534, 186.1033
799.6356, 198.5726
800.1177, 210.4447
800.5998, 223.7758
801.0819, 240.0187
801.5640, 258.7582
802.0461, 279.7683
802.5283, 303.0280
803.0104, 327.9233
803.4925, 353.9982
803.9746, 381.9336
804.4567, 411.7837
804.9388, 443.4213
805.4210, 478.3475
805.9031, 517.0551
806.3852, 557.2934
806.8673, 598.1532
807.3494, 639.4285
807.8315, 679.0506
808.3137, 717.3141
808.7958, 756.3314
809.2779, 798.7761
809.7600, 841.9014
810.2421, 884.4731
810.7242, 926.6974
811.2064, 964.3324
811.6885, 1000.062
812.1706, 1028.150
812.6527, 1046.368
813.1348, 1054.627
813.6169, 1051.361
814.0991, 1036.642
814.5812, 1010.705
815.0633, 971.3508
815.5454, 921.9737
816.0275, 867.8007
816.5096, 809.1860
816.9918, 749.3794
817.4739, 688.0695
817.9560, 627.7637
818.4381, 569.7988
818.9202, 514.5056
819.4023, 462.5278
819.8845, 413.6733
820.3666, 369.7599
820.8487, 332.3773
821.3308, 301.0891
821.8129, 270.6913
822.2950, 241.0344
822.7772, 214.9207
823.2593, 195.4151
823.7414, 178.8704
824.2235, 160.4448
824.7056, 140.8269
825.1877, 124.9005
825.6699, 117.6297
826.1520, 111.0655
826.6341, 101.4550
827.1162, 89.50244
827.5983, 81.48883
828.0804, 78.08832
828.5626, 75.10919
829.0447, 70.09937
829.5268, 63.77081
830.0089, 58.97650
830.4910, 55.51300
830.9731, 52.13031
831.4553, 47.41675
831.9374, 42.84460
832.4195, 39.83508
832.9016, 38.07520
833.3837, 35.36188
833.8658, 30.00909
834.3480, 26.48297
834.8301, 26.71777
835.3122, 29.25922
835.7943, 28.97992
836.2764, 26.06586
836.7585, 23.90845
837.2407, 24.67755
837.7228, 26.11487
838.2049, 25.57031
838.6870, 23.64093
839.1691, 21.75018
839.6512, 19.92596
840.1334, 18.80408
840.6155, 19.33130
841.0976, 20.46289
841.5797, 19.92426
842.0618, 17.38629
842.5439, 14.59729
843.0261, 11.60272
843.5082, 9.185852
843.9903, 9.088623
844.4724, 10.69397
844.9545, 12.39880
845.4366, 13.64526
845.9188, 14.50836
846.4009, 14.79987
846.8830, 14.84546
847.3651, 15.17725
847.8472, 16.36469
848.3293, 16.93011
848.8115, 16.74542
849.2936, 15.97430
849.7757, 14.89307
850.2578, 13.52100
850.7399, 11.57581
851.2220, 8.722717
851.7042, 6.626465
852.1863, 7.989441
852.6684, 10.63770
853.1505, 11.57831
853.6326, 8.954895
854.1147, 7.517639
854.5969, 9.246826
855.0790, 11.58771
855.5611, 12.61670
856.0432, 12.20807
856.5253, 11.11639
857.0074, 9.256042
857.4896, 7.354004
857.9717, 6.207458
858.4538, 5.463623
858.9359, 4.316406
859.4180, 2.611694
859.9001, 1.498169
860.3823, 2.074463
860.8644, 3.044922
861.3465, 3.586731
861.8286, 3.668701
862.3107, 3.335938
862.7928, 2.284302
863.2750, 1.693359
863.7571, 3.168579
864.2392, 5.791077
864.7213, 5.304077
865.2034, 1.997375
865.6855, 1.063110
866.1677, 2.185852
866.6498, 2.127625
867.1319, 0.6631470
867.6140, 1.982178
868.0961, 2.964600
868.5782, 1.141479
869.0604, 0.8355100
869.5425, 2.560425
870.0246, 3.623962
870.5067, 1.663696
870.9888, 3.021301
871.4709, 6.475159
871.9531, 5.809143
872.4352, 3.916199
872.9173, 3.394226
873.3994, 3.973145
873.8815, 5.027039
874.3636, 7.691895
874.8458, 9.123352
875.3279, 8.555542
875.8100, 6.630737
876.2921, 4.233765
876.7742, 1.234619
877.2563, 0.6534420
877.7385, 0.8522340
878.2206, 0.3087770
878.7027, 0.3431400
879.1848, 0.5319820
879.6669, 3.1982001E-02
880.1490, 2.496094
880.6312, 3.912659
881.1133, 2.084290
881.5954, 0.5635380
882.0775, 1.533508
882.5596, 0.3567500
883.0417, 0.9503780
883.5239, 2.388123
884.0060, 3.488403
884.4881, 3.977356
884.9702, 3.721558
885.4523, 1.679321
885.9344, 2.454773
886.4166, 4.893433
886.8987, 0.7494510
887.3808, 3.905334
887.8629, 4.078674
888.3450, 1.250671
888.8271, 3.380066
889.3093, 1.338379
889.7914, 1.251038
890.2735, 2.218445
890.7556, 1.980042
891.2377, 2.122742
891.7198, 2.593262
892.2020, 3.025635
892.6841, 2.776550
893.1662, 2.682373
893.6483, 3.631531
894.1304, 5.426819
894.6125, 6.447021
895.0947, 6.808960
895.5768, 6.629517
896.0589, 5.680420
896.5410, 4.469238
897.0231, 4.125916
897.5052, 4.593384
897.9874, 5.652039
898.4695, 7.941956
898.9516, 9.609863
899.4337, 8.197754
899.9158, 5.451294
900.3979, 4.035217
900.8801, 6.988342
901.3622, 7.694580
901.8443, 4.407776
902.3264, 0.7605590
902.8085, 1.656006
903.2906, 6.547180
903.7728, 9.961792
904.2549, 11.26361
904.7370, 10.84009
905.2191, 7.445923
905.7012, 3.452820
906.1833, 1.403870
906.6655, 2.075317
907.1476, 2.775208
907.6297, 3.195740
908.1118, 3.485291
908.5939, 3.480652
909.0760, 3.259155
909.5582, 4.747986
910.0403, 8.130005
910.5224, 10.63147
911.0045, 9.721985
911.4866, 7.773865
911.9688, 6.895813
912.4509, 7.042908
912.9330, 7.609131
913.4151, 9.394104
913.8972, 10.41168
914.3793, 9.960022
914.8615, 8.540527
915.3436, 7.379822
915.8257, 6.473633
916.3078, 6.037598
916.7899, 6.189453
917.2720, 6.774231
917.7542, 8.110107
918.2363, 9.624329
918.7184, 10.37164
919.2005, 9.233521
919.6826, 8.683838
920.1647, 9.518677
920.6469, 10.63495
921.1290, 11.06537
921.6111, 10.81616
922.0932, 9.422485
922.5753, 6.722839
923.0574, 4.307312
923.5396, 3.887573
924.0217, 4.347961
924.5038, 4.360596
924.9859, 3.827271
925.4680, 3.563416
925.9501, 4.234192
926.4323, 4.602417
926.9144, 3.816345
927.3965, 2.069885
927.8786, 1.721924
928.3607, 2.959167
928.8428, 4.782654
929.3250, 7.240845
929.8071, 9.309875
930.2892, 9.587585
930.7713, 8.508667
931.2534, 7.143311
931.7355, 5.368530
932.2177, 3.914124
932.6998, 2.610291
933.1819, 1.893860
933.6640, 2.839417
934.1461, 5.403320
934.6282, 7.314514
935.1104, 8.110107
935.5925, 8.048462
936.0746, 6.673279
936.5567, 4.900330
937.0388, 3.919983
937.5209, 4.157593
938.0031, 4.765076
938.4852, 6.013306
938.9673, 6.756714
939.4494, 6.110046
939.9315, 4.186218
940.4136, 3.313599
940.8958, 3.461121
941.3779, 4.252991
941.8600, 5.990906
942.3421, 7.861023
942.8242, 9.453491
943.3063, 10.57098
943.7885, 10.31610
944.2706, 6.922607
944.7527, 4.943665
945.2348, 5.378113
945.7169, 7.196594
946.1990, 8.147339
946.6812, 8.345520
947.1633, 9.126709
947.6454, 11.37311
948.1275, 12.56049
948.6096, 9.132202
949.0917, 4.072388
949.5739, 1.052612
950.0560, 2.288818
950.5381, 2.189697
951.0202, 0.7617190
951.5023, 2.510864
951.9844, 2.415283
952.4666, 12.04535
952.9487, 13.66968
953.4308, 7.334045
953.9129, 1.372742
954.3950, 2.702820
954.8771, 5.510925
955.3593, 5.782349
955.8414, 3.566528
956.3235, 1.691040
956.8056, 0.1605830
957.2877, 0.5484620
957.7698, 1.647949
958.2520, 4.690552
958.7341, 4.059082
959.2162, 0.8742680
959.6983, 1.324768
960.1804, 1.132019
960.6625, 0.2158200
961.1447, 0.6633910
961.6268, 1.624146
962.1089, 2.806641
962.5910, 4.204773
963.0731, 6.195557
963.5552, 9.222229
964.0374, 11.12152
964.5195, 8.699585
965.0016, 4.233154
965.4837, 3.161926
965.9658, 5.450989
966.4479, 6.377441
966.9301, 0.7282710
967.4122, 3.771790
967.8943, 2.352234
968.3764, 3.261047
968.8585, 4.963684
969.3406, 2.173645
969.8228, 0.7988280
970.3049, 3.520752
970.7870, 7.122864
971.2691, 6.713562
971.7512, 4.049316
972.2333, 2.318542
972.7155, 2.485596
973.1976, 3.585266
973.6797, 6.385376
974.1618, 9.039001
974.6439, 9.771118
975.1260, 8.565979
975.6082, 7.327698
976.0903, 6.126892
976.5724, 4.957214
977.0544, 3.588867
977.5366, 2.439453
978.0187, 1.960754
978.5008, 2.160095
978.9829, 2.775757
979.4650, 4.445801
979.9471, 5.325623
980.4293, 4.475586
980.9114, 2.927551
981.3935, 3.752686
981.8756, 6.336304
982.3577, 7.685303
982.8398, 6.392334
983.3220, 4.642822
983.8041, 3.230347
984.2862, 2.516174
984.7683, 3.203064
985.2504, 6.357300
985.7325, 7.381165
986.2147, 5.673584
986.6968, 3.900879
987.1789, 5.019409
987.6610, 7.465393
988.1431, 7.067749
988.6252, 4.186523
989.1074, 2.057861
989.5895, 3.298218
990.0716, 4.529724
990.5537, 3.834351
991.0358, 2.194031
991.5179, 2.407776
992.0001, 4.474304
992.4822, 6.744568
992.9643, 9.163452
993.4464, 10.53198
993.9285, 8.520264
994.4106, 4.841309
994.8928, 1.694092
995.3749, 0.9180910
995.8570, 1.332092
996.3391, 2.437805
996.8212, 5.831055
997.3033, 5.237793
997.7855, 1.319763
998.2676, 1.028748
998.7497, 4.029846
999.2318, 6.578674
999.7139, 5.887024
1000.196, 4.368408
1000.678, 3.536743
1001.160, 3.363220
1001.642, 3.133484
1002.125, 2.789001
1002.607, 2.791809
1003.089, 3.359619
1003.571, 3.953857
1004.053, 3.580444
1004.535, 2.684570
1005.017, 2.384399
1005.499, 2.947754
1005.981, 3.319702
1006.464, 2.376282
1006.946, 1.658691
1007.428, 2.007446
1007.910, 3.442139
1008.392, 5.526245
1008.874, 8.233948
1009.356, 9.523804
1009.838, 7.503052
1010.320, 4.986572
1010.803, 6.154419
1011.285, 9.364441
1011.767, 11.31268
1012.249, 10.42139
1012.731, 9.149048
1013.213, 7.084595
1013.695, 5.537659
1014.177, 6.747314
1014.660, 9.874756
1015.142, 10.53571
1015.624, 8.531433
1016.106, 6.560852
1016.588, 7.017029
1017.070, 7.587769
1017.552, 5.880493
1018.034, 2.631165
1018.516, 2.976013
1018.999, 8.206970
1019.481, 10.80945
1019.963, 7.671936
1020.445, 2.667603
1020.927, 1.627991
1021.409, 3.105469
1021.891, 4.527954
1022.373, 5.400635
1022.856, 5.716187
1023.338, 4.645935
1023.820, 3.937500
1024.302, 5.086975
1024.784, 7.955444
1025.266, 9.270142
1025.748, 9.369873
1026.230, 8.573608
1026.713, 5.201416
1027.195, 2.265808
1027.677, 3.152222
1028.159, 6.301331
1028.641, 6.671631
1029.123, 2.161316
1029.605, 0.1030270
1030.087, 2.104553
1030.569, 5.088562
1031.052, 4.197754
1031.534, 1.548157
1032.016, 2.424377
1032.498, 7.907288
1032.980, 11.09039
1033.462, 6.276611
1033.944, 1.349670
1034.426, 0.1603390
1034.908, 1.289612
1035.391, 4.122437
1035.873, 8.183960
1036.355, 9.904907
1036.837, 6.171631
1037.319, 2.468384
1037.801, 5.553406
1038.283, 11.17041
1038.765, 13.06537
1039.248, 7.563538
1039.730, 4.305115
1040.212, 3.719299
1040.694, 4.135742
1041.176, 4.520813
1041.658, 4.759521
1042.140, 4.224731
1042.622, 3.157288
1043.104, 2.876953
1043.587, 5.383423
1044.069, 7.135864
1044.551, 6.866882
1045.033, 5.279053
1045.515, 3.074280
1045.997, 0.2846070
1046.479, 0.2048340
1046.961, 3.949219
1047.443, 7.032959
1047.926, 3.759399
1048.408, 0.9550170
1048.890, 2.101257
1049.372, 1.377991
1049.854, 3.113098
1050.336, 2.114868
1050.818, 2.201538
1051.300, 5.968140
1051.783, 10.67499
1052.265, 9.865967
1052.747, 5.573364
1053.229, 2.810669
1053.711, 5.044495
1054.193, 6.175293
1054.675, 2.760620
1055.157, 0.9111940
1055.640, 1.205933
1056.122, 1.821594
1056.604, 4.123291
1057.086, 5.603149
1057.568, 5.630249
1058.050, 1.455078
1058.532, 2.182861
1059.014, 0.3055420
1059.496, 4.989807
1059.979, 6.400085
1060.461, 1.890381
1060.943, 2.3010001E-02
1061.425, 2.536072
1061.907, 6.411499
1062.389, 8.396423
1062.871, 8.930969
1063.353, 8.297607
1063.835, 6.454224
1064.318, 5.062195
1064.800, 4.579285
1065.282, 4.684631
1065.764, 5.610718
1066.246, 6.853088
1066.728, 6.622253
1067.210, 5.324829
1067.692, 4.699890
1068.175, 5.612549
1068.657, 6.632568
1069.139, 6.737915
1069.621, 6.634949
1070.103, 7.134705
1070.585, 8.532593
1071.067, 8.181824
1071.549, 5.879944
1072.031, 3.966187
1072.514, 4.739197
1072.996, 6.139771
1073.478, 5.227295
1073.960, 3.060303
1074.442, 2.352966
1074.924, 4.320068
1075.406, 6.746094
1075.888, 9.826477
1076.370, 12.59167
1076.853, 14.12579
1077.335, 14.45844
1077.817, 13.40698
1078.299, 11.04340
1078.781, 8.754272
1079.263, 6.846924
1079.745, 5.572937
1080.227, 4.994568
1080.709, 5.068054
1081.192, 5.991882
1081.674, 7.678223
1082.156, 8.859192
1082.638, 9.211609
1083.120, 8.510803
1083.602, 5.155334
1084.084, 1.768494
1084.566, 0.7501830
1085.049, 2.142273
1085.531, 4.275452
1086.013, 7.578247
1086.495, 9.160706
1086.977, 6.853760
1087.459, 3.168030
1087.941, 1.062988
1088.423, 0.4397580
1088.906, 1.183594
1089.388, 4.943359
1089.870, 6.905640
1090.352, 6.137756
1090.834, 4.928345
1091.316, 5.160950
1091.798, 6.431946
1092.280, 7.454590
1092.762, 8.235657
1093.245, 8.814575
1093.727, 9.026001
1094.209, 9.247925
1094.691, 9.328491
1095.173, 9.648010
1095.655, 11.35376
1096.137, 14.29279
1096.619, 14.73315
1097.101, 12.18304
1097.584, 9.291016
1098.066, 7.497925
1098.548, 6.664673
1099.030, 7.169250
1099.512, 8.693115
1099.994, 9.327820
1100.476, 8.812134
1100.958, 9.138550
1101.441, 11.27081
1101.923, 13.10168
1102.405, 10.83459
1102.887, 7.217407
1103.369, 5.972595
1103.851, 8.090149
1104.333, 10.17554
1104.815, 12.74261
1105.297, 13.35388
1105.780, 9.962280
1106.262, 4.748901
1106.744, 3.170654
1107.226, 4.183167
1107.708, 4.765503
1108.190, 3.263306
1108.672, 2.646790
1109.154, 4.223633
1109.636, 6.243408
1110.119, 7.713196
1110.601, 8.587341
1111.083, 7.980103
1111.565, 6.169800
1112.047, 5.026001
1112.529, 6.773743
1113.011, 8.125000
1113.493, 6.557434
1113.976, 4.198364
1114.458, 4.255920
1114.940, 7.026550
1115.422, 8.880371
1115.904, 9.576355
1116.386, 9.522827
1116.868, 9.324402
1117.350, 8.640808
1117.833, 6.567749
1118.315, 3.683594
1118.797, 2.765137
1119.279, 4.657043
1119.761, 5.251892
1120.243, 3.417725
1120.725, 1.685242
1121.207, 4.164490
1121.689, 8.078186
1122.172, 9.892090
1122.654, 9.170898
1123.136, 7.110840
1123.618, 2.950500
1124.100, 0.3757930
1124.582, 1.885071
1125.064, 2.122742
1125.546, 2.132935
1126.028, 1.707764
1126.511, 9.3379999E-03
1126.993, 3.885986
1127.475, 5.993286
1127.957, 3.320923
1128.439, 0.8102420
1128.921, 1.038025
1129.403, 3.248230
1129.885, 4.762146
1130.368, 5.501770
1130.850, 5.077637
1131.332, 1.840576
1131.814, 2.2644000E-02
1132.296, 3.156433
1132.778, 7.306580
1133.260, 9.266174
1133.742, 8.993896
1134.224, 8.145874
1134.707, 6.744629
1135.189, 5.167542
1135.671, 3.205688
1136.153, 1.648376
1136.635, 1.114441
1137.117, 1.326843
1137.599, 1.893799
1138.081, 3.086609
1138.563, 2.832336
1139.046, 0.9002690
1139.528, 0.7713010
1140.010, 0.2066650
1140.492, 1.489014
1140.974, 0.3645630
1141.456, 2.368225
1141.938, 3.516174
1142.420, 2.573975
1142.903, 1.359741
1143.385, 0.1685180
1143.867, 1.519775
1144.349, 5.589478
1144.831, 9.743835
1145.313, 10.48254
1145.795, 7.828247
1146.277, 5.896667
1146.760, 5.274902
1147.242, 5.362671
1147.724, 6.312561
1148.206, 7.271606
1148.688, 6.312683
1149.170, 4.654785
1149.652, 5.198975
1150.134, 8.729248
1150.616, 9.771179
1151.099, 4.468628
1151.581, 0.5561520
1152.063, 1.077759
1152.545, 4.168945
1153.027, 5.666199
1153.509, 6.125977
1153.991, 7.178345
1154.473, 9.674500
1154.955, 11.11884
1155.438, 9.763855
1155.920, 8.062805
1156.402, 7.265198
1156.884, 7.024231
1157.366, 5.617798
1157.848, 3.343872
1158.330, 1.380493
1158.812, 0.5885010
1159.295, 0.6840210
1159.777, 4.473877
1160.259, 9.576843
1160.741, 10.37537
1161.223, 7.186890
1161.705, 5.396179
1162.187, 4.867920
1162.669, 4.352539
1163.151, 2.537415
1163.634, 1.385559
1164.116, 2.596985
1164.598, 4.603638
1165.080, 5.550110
1165.562, 5.352722
1166.044, 5.492920
1166.526, 5.985901
1167.008, 6.517212
1167.490, 6.371521
1167.973, 6.740723
1168.455, 9.328308
1168.937, 12.61432
1169.419, 13.78314
1169.901, 12.58240
1170.383, 11.11725
1170.865, 9.456299
1171.347, 8.644165
1171.830, 10.93054
1172.312, 13.09772
1172.794, 11.53589
1173.276, 7.778015
1173.758, 7.250061
1174.240, 11.02765
1174.722, 11.78485
1175.204, 8.204041
1175.687, 4.947693
1176.169, 8.087036
1176.651, 12.29028
1177.133, 11.83832
1177.615, 7.572388
1178.097, 6.774780
1178.579, 10.55615
1179.061, 13.59558
1179.543, 14.99774
1180.026, 15.00836
1180.508, 12.62158
1180.990, 9.863770
1181.472, 9.057007
1181.954, 10.34717
1182.436, 11.78821
1182.918, 14.03333
1183.400, 13.70569
1183.882, 9.175049
1184.365, 4.278320
1184.847, 3.442200
1185.329, 5.154053
1185.811, 8.644714
1186.293, 14.06372
1186.775, 14.64771
1187.257, 8.369202
1187.739, 3.242676
1188.222, 1.833984
1188.704, 2.820496
1189.186, 5.117554
1189.668, 8.185059
1190.150, 11.92010
1190.632, 16.98956
1191.114, 17.39276
1191.596, 10.97125
1192.078, 6.087952
1192.561, 6.683533
1193.043, 9.986328
1193.525, 12.50800
1194.007, 14.10864
1194.489, 14.46417
1194.971, 13.05975
1195.453, 11.76501
1195.935, 10.47284
1196.417, 9.831543
1196.900, 10.47046
1197.382, 11.53076
1197.864, 11.90601
1198.346, 11.60046
1198.828, 10.44250
1199.310, 6.700684
1199.792, 6.718750
1200.274, 12.64478
1200.757, 17.30249
1201.239, 15.43640
1201.721, 10.28613
1202.203, 7.284912
1202.685, 5.768066
1203.167, 4.345642
1203.649, 1.527588
1204.131, 1.509155
1204.614, 5.517639
1205.096, 9.178650
1205.578, 8.838562
1206.060, 6.373108
1206.542, 4.940308
1207.024, 4.278320
1207.506, 3.746948
1207.988, 2.859924
1208.470, 2.668945
1208.953, 3.329102
1209.435, 4.249573
1209.917, 4.740112
1210.399, 5.326416
1210.881, 8.078125
1211.363, 11.62177
1211.845, 12.30963
1212.327, 5.885864
1212.809, 2.047913
1213.292, 1.440735
1213.774, 2.566223
1214.256, 5.470398
1214.738, 8.518982
1215.220, 8.470154
1215.702, 6.236572
1216.184, 4.789917
1216.666, 5.197388
1217.149, 5.760010
1217.631, 6.711975
1218.113, 6.936035
1218.595, 4.358643
1219.077, 1.320190
1219.559, 1.046387
1220.041, 3.125854
1220.523, 5.238708
1221.005, 7.459229
1221.488, 8.330627
1221.970, 7.389771
1222.452, 6.497437
1222.934, 8.696533
1223.416, 11.37244
1223.898, 9.174988
1224.380, 3.666382
1224.862, 1.861389
1225.344, 6.375366
1225.827, 8.390991
1226.309, 6.587891
1226.791, 4.073608
1227.273, 4.077393
1227.755, 4.957153
1228.237, 4.303894
1228.719, 2.735474
1229.201, 3.712158
1229.684, 8.852478
1230.166, 11.01874
1230.648, 9.003357
1231.130, 6.242981
1231.612, 6.731567
1232.094, 7.619202
1232.576, 5.064697
1233.058, 0.1625980
1233.541, 1.452759
1234.023, 1.282288
1234.505, 2.508118
1234.987, 1.287109
1235.469, 9.7046003E-02
1235.951, 0.5217290
1236.433, 1.905640
1236.915, 3.131287
1237.397, 4.170959
1237.880, 5.203125
1238.362, 6.268127
1238.844, 6.991760
1239.326, 7.370300
1239.808, 7.204956
1240.290, 5.792786
1240.772, 4.244507
1241.254, 3.373779
1241.736, 3.077148
1242.219, 2.907471
1242.701, 2.839783
1243.183, 3.921997
1243.665, 6.438293
1244.147, 8.762329
1244.629, 10.17902
1245.111, 10.46893
1245.593, 8.756165
1246.076, 6.046387
1246.558, 4.438049
1247.040, 3.873596
1247.522, 3.578003
1248.004, 3.450317
1248.486, 3.668030
1248.968, 4.856812
1249.450, 5.902771
1249.932, 6.481873
1250.415, 6.457642
1250.897, 4.493958
1251.379, 1.409302
1251.861, 2.677246
1252.343, 9.075806
1252.825, 13.46429
1253.307, 10.30701
1253.789, 6.598877
1254.271, 4.199890
1254.754, 3.452881
1255.236, 6.423340
1255.718, 11.43799
1256.200, 12.96326
1256.682, 10.42438
1257.164, 7.396179
1257.646, 3.365295
1258.128, 2.040222
1258.611, 5.235474
1259.093, 9.828796
1259.575, 10.73761
1260.057, 9.496704
1260.539, 9.747986
1261.021, 11.70190
1261.503, 11.01141
1261.985, 4.125244
1262.468, 0.1376340
1262.950, 1.515930
1263.432, 4.686646
1263.914, 4.727295
1264.396, 3.459229
1264.878, 3.686951
1265.360, 5.420959
1265.842, 5.737366
1266.324, 3.878479
1266.807, 2.405090
1267.289, 1.502075
1267.771, 1.693604
1268.253, 4.166260
1268.735, 6.730408
1269.217, 6.476807
1269.699, 3.842590
1270.181, 3.061646
1270.663, 4.411438
1271.146, 6.058167
1271.628, 7.817688
1272.110, 9.069336
1272.592, 8.647644
1273.074, 8.047729
1273.556, 9.039612
1274.038, 10.66376
1274.520, 10.15228
1275.002, 7.557312
1275.485, 4.118408
1275.967, 8.7523997E-02
1276.449, 2.379883
1276.931, 1.379333
1277.413, 4.987915
1277.895, 4.603882
1278.377, 2.651367
1278.859, 4.410706
1279.342, 8.680542
1279.824, 8.010376
1280.306, 1.978210
1280.788, 1.991760
1281.270, 0.6968380
1281.752, 5.335388
1282.234, 12.40002
1282.716, 18.16266
1283.198, 15.41272
1283.681, 7.817444
1284.163, 4.440857
1284.645, 5.618652
1285.127, 7.051575
1285.609, 7.682800
1286.091, 7.929932
1286.573, 7.684753
1287.055, 7.507385
1287.537, 8.609314
1288.020, 9.823425
1288.502, 8.388367
1288.984, 4.545471
1289.466, 4.436768
1289.948, 8.629456
1290.430, 10.55737
1290.912, 8.070251
1291.394, 5.907593
1291.877, 6.003052
1292.359, 6.375427
1292.841, 5.063782
1293.323, 2.828918
1293.805, 1.832947
1294.287, 2.192627
1294.769, 1.701477
1295.251, 0.3468020
1295.734, 8.7585002E-02
1296.216, 4.592529
1296.698, 8.155273
1297.180, 6.498108
1297.662, 2.845032
1298.144, 0.6796260
1298.626, 2.3621000E-02
1299.108, 0.3652340
1299.590, 1.221497
1300.073, 1.021484
1300.555, 0.0000000E+00
##END=



