##NAMES=Yeatmanite
##RRUFFID=R141001
##IDEAL CHEMISTRY=Zn^2+^_6_Mn^2+^_9_Sb^5+^_2_O_12_(SiO_4_)_4_
##LOCALITY=1500 foot level, Sterling mine, Sterling Hill, Ogdensburg, Franklin Mining District, Sussex County, New Jersey, USA
##OWNER=RRUFF
##SOURCE=Rock Currier
##DESCRIPTION=Thin brown or grey platy crystals, associated with yellow adelite. Twinned by a 2-fold around (001). Previously published structure is probably incorrect.
##STATUS=The identification of this mineral has been confirmed by single-crystal X-ray diffraction.
##URL=rruff.info/R141001
140.6874, 0.0000000E+00
141.1696, 0.6686400
141.6517, 1.152161
142.1338, 0.5402830
142.6159, 6.6771999E-02
143.0980, 0.1970210
143.5801, 1.559509
144.0623, 2.650940
144.5444, 3.413391
145.0265, 4.062012
145.5086, 4.931763
145.9907, 5.457825
146.4728, 6.048401
146.9550, 7.337891
147.4371, 10.13647
147.9192, 11.14111
148.4013, 9.144104
148.8834, 5.536377
149.3655, 3.173523
149.8477, 2.074524
150.3298, 1.867188
150.8119, 2.903564
151.2940, 6.439148
151.7761, 8.238647
152.2583, 7.030396
152.7404, 4.204468
153.2225, 2.971863
153.7046, 5.509766
154.1867, 9.997253
154.6688, 11.61664
155.1510, 11.82971
155.6331, 11.36304
156.1152, 9.851685
156.5973, 7.620789
157.0794, 5.836365
157.5615, 4.567017
158.0437, 3.580627
158.5258, 3.033386
159.0079, 3.701172
159.4900, 4.175598
159.9721, 3.573364
160.4542, 2.136108
160.9364, 1.456421
161.4185, 2.628967
161.9006, 4.554138
162.3827, 6.307617
162.8648, 8.445740
163.3469, 9.623962
163.8291, 8.627991
164.3112, 5.688538
164.7933, 3.126587
165.2754, 2.623230
165.7575, 2.893616
166.2396, 2.587036
166.7218, 0.3160400
167.2039, 2.794739
167.6860, 2.336243
168.1681, 0.9914550
168.6502, 4.175720
169.1323, 5.082092
169.6145, 4.710144
170.0966, 4.413940
170.5787, 5.051392
171.0608, 5.805359
171.5429, 5.974609
172.0250, 5.529724
172.5072, 4.763000
172.9893, 3.371582
173.4714, 1.830688
173.9535, 1.017883
174.4356, 1.857544
174.9177, 3.394226
175.3999, 4.632080
175.8820, 5.552917
176.3641, 6.030212
176.8462, 5.544006
177.3283, 4.447266
177.8104, 3.733582
178.2926, 3.899414
178.7747, 4.776672
179.2568, 6.318054
179.7389, 8.695618
180.2210, 10.91943
180.7031, 11.62207
181.1853, 11.16125
181.6674, 10.61591
182.1495, 10.32764
182.6316, 10.46399
183.1137, 11.77423
183.5958, 13.99762
184.0780, 16.52319
184.5601, 17.94769
185.0422, 18.22211
185.5243, 18.51593
186.0064, 19.67120
186.4885, 21.18738
186.9707, 21.98236
187.4528, 22.04285
187.9349, 21.77094
188.4170, 21.69293
188.8991, 21.78314
189.3812, 21.89563
189.8634, 21.92261
190.3455, 21.85742
190.8276, 21.81964
191.3097, 21.82971
191.7918, 21.90936
192.2739, 22.16913
192.7561, 22.60260
193.2382, 22.77112
193.7203, 22.17120
194.2024, 20.88977
194.6845, 20.16302
195.1666, 20.14240
195.6488, 20.61768
196.1309, 21.29675
196.6130, 22.22687
197.0951, 23.04785
197.5772, 23.67743
198.0593, 24.12335
198.5415, 24.08447
199.0236, 23.16235
199.5057, 21.77606
199.9878, 20.89673
200.4699, 20.58710
200.9520, 20.46722
201.4342, 20.48096
201.9163, 20.68134
202.3984, 20.20087
202.8805, 18.71484
203.3626, 16.74921
203.8447, 15.78857
204.3269, 16.13507
204.8090, 16.39252
205.2911, 15.44147
205.7732, 12.91351
206.2553, 11.78992
206.7374, 12.79987
207.2196, 14.96161
207.7017, 15.41895
208.1838, 13.62378
208.6659, 11.65601
209.1480, 10.82202
209.6301, 11.44543
210.1123, 11.62347
210.5944, 11.15582
211.0765, 10.22034
211.5586, 9.249451
212.0407, 8.085693
212.5228, 7.209656
213.0050, 6.982727
213.4871, 7.616943
213.9692, 8.133484
214.4513, 8.560120
214.9334, 8.791077
215.4155, 8.413269
215.8977, 7.039307
216.3798, 5.799316
216.8619, 5.517395
217.3440, 6.814758
217.8261, 6.956116
218.3082, 5.153931
218.7904, 2.299927
219.2725, 1.374573
219.7546, 3.423828
220.2367, 5.525513
220.7188, 6.125244
221.2009, 4.675964
221.6831, 3.158997
222.1652, 1.535645
222.6473, 0.1015010
223.1294, 1.445007
223.6115, 2.563904
224.0936, 3.262451
224.5758, 3.580994
225.0579, 3.707764
225.5400, 2.843323
226.0221, 3.1372000E-02
226.5042, 3.585632
226.9863, 4.966797
227.4685, 2.845642
227.9506, 0.4630130
228.4327, 0.6484380
228.9148, 0.2361450
229.3969, 0.6478880
229.8790, 0.3187870
230.3612, 0.4320070
230.8433, 0.8382570
231.3254, 1.048218
231.8075, 0.7248540
232.2896, 0.5184330
232.7717, 3.587097
233.2539, 5.235718
233.7360, 4.761597
234.2181, 3.077271
234.7002, 2.231506
235.1823, 2.366211
235.6644, 3.134277
236.1466, 4.654175
236.6287, 7.764893
237.1108, 9.247498
237.5929, 8.314514
238.0750, 6.057129
238.5571, 4.724976
239.0393, 4.617737
239.5214, 4.978760
240.0035, 5.714294
240.4856, 7.296387
240.9677, 7.785828
241.4498, 6.615479
241.9320, 4.670959
242.4141, 3.469177
242.8962, 3.136230
243.3783, 3.368286
243.8604, 4.167725
244.3425, 5.740723
244.8247, 7.193420
245.3068, 8.731689
245.7889, 10.02692
246.2710, 10.44922
246.7531, 9.266724
247.2352, 8.472656
247.7174, 8.852173
248.1995, 10.77271
248.6816, 11.91522
249.1637, 11.85150
249.6458, 11.32184
250.1279, 11.41785
250.6101, 12.53467
251.0922, 13.52234
251.5743, 14.02856
252.0564, 13.98645
252.5385, 13.96051
253.0206, 13.87073
253.5028, 13.87103
253.9849, 14.21887
254.4670, 15.22516
254.9491, 15.91437
255.4312, 15.89673
255.9133, 15.10571
256.3955, 14.91736
256.8776, 15.62018
257.3597, 16.60510
257.8418, 17.14380
258.3239, 16.84637
258.8061, 17.06464
259.2882, 18.33350
259.7703, 20.62787
260.2524, 21.94946
260.7345, 21.97504
261.2166, 21.50049
261.6988, 21.25500
262.1809, 21.40625
262.6630, 21.29645
263.1451, 20.64209
263.6272, 19.55750
264.1093, 19.14545
264.5915, 19.53400
265.0736, 20.37067
265.5557, 21.58917
266.0378, 23.49597
266.5199, 24.59454
267.0020, 24.43469
267.4842, 23.30090
267.9663, 22.57471
268.4484, 22.21271
268.9305, 22.34528
269.4126, 23.26361
269.8947, 25.27795
270.3769, 26.66595
270.8590, 27.06775
271.3411, 26.84235
271.8232, 27.10657
272.3053, 27.92334
272.7874, 29.02191
273.2696, 30.39142
273.7517, 32.13733
274.2338, 33.41858
274.7159, 34.12543
275.1980, 34.41772
275.6801, 34.55505
276.1623, 34.50452
276.6444, 34.44183
277.1265, 34.48914
277.6086, 34.69855
278.0907, 34.77032
278.5728, 34.61230
279.0550, 34.43561
279.5371, 34.84192
280.0192, 35.95874
280.5013, 36.52368
280.9834, 35.39764
281.4655, 32.67169
281.9477, 31.95776
282.4298, 33.88678
282.9119, 36.34778
283.3940, 35.82843
283.8761, 32.30334
284.3582, 29.56488
284.8404, 29.58655
285.3225, 31.80951
285.8046, 32.61365
286.2867, 31.79120
286.7688, 30.42657
287.2509, 29.48285
287.7331, 28.93329
288.2152, 28.39014
288.6973, 27.86902
289.1794, 27.27350
289.6615, 26.02722
290.1436, 24.07660
290.6258, 22.48083
291.1079, 22.69952
291.5900, 24.34357
292.0721, 25.28967
292.5542, 24.91541
293.0363, 23.64014
293.5185, 22.06671
294.0006, 20.19672
294.4827, 18.55756
294.9648, 17.54724
295.4469, 17.04413
295.9290, 16.71704
296.4112, 16.55542
296.8933, 16.43756
297.3754, 16.25165
297.8575, 15.97290
298.3396, 15.45367
298.8217, 14.29321
299.3039, 12.85925
299.7860, 11.87384
300.2681, 11.42615
300.7502, 11.44232
301.2323, 12.15845
301.7144, 13.36053
302.1966, 14.27887
302.6787, 14.54999
303.1608, 14.28326
303.6429, 13.42847
304.1250, 11.89368
304.6071, 10.50781
305.0893, 10.23633
305.5714, 10.67841
306.0535, 11.00720
306.5356, 10.56329
307.0177, 10.00574
307.4998, 10.21307
307.9820, 11.21118
308.4641, 11.84918
308.9462, 11.10229
309.4283, 9.551208
309.9104, 7.989929
310.3925, 6.609253
310.8747, 5.426514
311.3568, 4.318481
311.8389, 3.350891
312.3210, 2.991760
312.8031, 3.854553
313.2852, 5.287842
313.7674, 6.719727
314.2495, 8.363647
314.7316, 9.474976
315.2137, 9.380005
315.6958, 8.364563
316.1779, 7.392212
316.6601, 6.637390
317.1422, 6.196655
317.6243, 6.193665
318.1064, 6.853821
318.5885, 7.501709
319.0706, 8.010010
319.5528, 8.339966
320.0349, 8.420593
320.5170, 7.936707
320.9991, 7.436951
321.4812, 7.243469
321.9633, 7.554688
322.4455, 7.523438
322.9276, 6.414307
323.4097, 5.053894
323.8918, 4.458496
324.3739, 5.572388
324.8560, 6.698547
325.3382, 7.450256
325.8203, 7.802002
326.3024, 7.965393
326.7845, 7.867981
327.2666, 7.651306
327.7487, 7.423401
328.2309, 7.217896
328.7130, 6.957214
329.1951, 6.797668
329.6772, 6.682495
330.1593, 5.911804
330.6414, 3.384613
331.1236, 1.242126
331.6057, 0.7807620
332.0878, 3.714294
332.5699, 5.173706
333.0520, 4.092682
333.5341, 1.585236
334.0163, 0.8824770
334.4984, 2.921814
334.9805, 5.213470
335.4626, 6.844421
335.9447, 7.830322
336.4268, 8.021667
336.9090, 7.066315
337.3911, 5.649658
337.8732, 5.133728
338.3553, 6.010590
338.8374, 6.079285
339.3195, 4.249481
339.8017, 0.6474610
340.2838, 1.670593
340.7659, 2.575012
341.2480, 2.533997
341.7301, 1.657562
342.2122, 0.1586610
342.6944, 1.225464
343.1765, 0.8794560
343.6586, 0.3743900
344.1407, 0.7487490
344.6228, 0.1972960
345.1049, 0.6955570
345.5871, 1.589905
346.0692, 2.476532
346.5513, 3.270844
347.0334, 4.035248
347.5155, 4.608063
347.9977, 4.516418
348.4798, 3.764465
348.9619, 2.939514
349.4440, 2.477417
349.9261, 2.323303
350.4082, 2.294403
350.8904, 2.366394
351.3725, 2.385376
351.8546, 2.035126
352.3367, 1.464722
352.8188, 1.125793
353.3009, 1.600830
353.7831, 2.357147
354.2652, 2.473267
354.7473, 1.940796
355.2294, 1.732422
355.7115, 3.311157
356.1936, 5.465485
356.6758, 6.517609
357.1579, 5.272064
357.6400, 3.646393
358.1221, 2.859375
358.6042, 2.821594
359.0863, 3.163910
359.5685, 4.024963
360.0506, 5.008484
360.5327, 5.843231
361.0148, 6.567200
361.4969, 7.295441
361.9790, 7.857666
362.4612, 8.216248
362.9433, 8.610809
363.4254, 9.230896
363.9075, 10.07574
364.3896, 11.29535
364.8717, 12.90805
365.3539, 13.75259
365.8360, 12.85339
366.3181, 11.51056
366.8002, 10.87216
367.2823, 12.05548
367.7644, 12.70520
368.2466, 12.09802
368.7287, 10.39203
369.2108, 9.442444
369.6929, 9.800415
370.1750, 10.42627
370.6571, 10.78943
371.1393, 10.65875
371.6214, 10.69022
372.1035, 10.99741
372.5856, 11.44626
373.0677, 11.69888
373.5498, 11.64243
374.0320, 11.61441
374.5141, 11.82452
374.9962, 12.35303
375.4783, 12.37311
375.9604, 11.71252
376.4425, 10.83270
376.9247, 10.27328
377.4068, 10.07461
377.8889, 9.963959
378.3710, 9.899597
378.8531, 9.865448
379.3352, 9.784821
379.8174, 9.649323
380.2995, 9.524078
380.7816, 9.559082
381.2637, 9.707397
381.7458, 9.537445
382.2279, 8.926941
382.7101, 8.104004
383.1922, 7.469757
383.6743, 6.978516
384.1564, 6.348358
384.6385, 4.915863
385.1206, 3.335388
385.6028, 3.203949
386.0849, 4.702637
386.5670, 6.311707
387.0491, 6.360687
387.5312, 5.514587
388.0133, 5.120880
388.4955, 6.305328
388.9776, 7.611420
389.4597, 7.434357
389.9418, 6.021545
390.4239, 4.804840
390.9060, 4.964294
391.3882, 5.542419
391.8703, 5.660187
392.3524, 5.011627
392.8345, 4.176605
393.3166, 2.965607
393.7987, 1.786957
394.2809, 1.470978
394.7630, 3.286041
395.2451, 5.150909
395.7272, 6.173492
396.2093, 6.176544
396.6914, 5.930542
397.1736, 5.172150
397.6557, 4.411438
398.1378, 4.087311
398.6199, 5.240082
399.1020, 5.751068
399.5841, 4.865265
400.0663, 2.911713
400.5484, 2.082794
401.0305, 3.338440
401.5126, 4.664032
401.9947, 5.060974
402.4768, 4.101471
402.9590, 3.320068
403.4411, 2.854523
403.9232, 2.476440
404.4053, 1.653229
404.8874, 8.4624998E-02
405.3695, 0.9781190
405.8517, 0.8981020
406.3338, 0.2114870
406.8159, 0.4821170
407.2980, 0.2594300
407.7801, 1.219788
408.2622, 1.689575
408.7444, 1.685303
409.2265, 1.393341
409.7086, 0.6772160
410.1907, 6.7230001E-02
410.6728, 0.1606750
411.1549, 1.273407
411.6371, 2.266693
412.1192, 2.395081
412.6013, 1.990662
413.0834, 1.780304
413.5655, 1.841492
414.0476, 1.892731
414.5298, 1.632690
415.0119, 1.179199
415.4940, 0.7512820
415.9761, 0.3807370
416.4582, 0.1069950
416.9403, 0.1664120
417.4225, 0.3851930
417.9046, 0.1584170
418.3867, 1.645142
418.8688, 3.480072
419.3509, 3.852234
419.8330, 1.619995
420.3152, 0.2502440
420.7973, 0.1636660
421.2794, 0.9755860
421.7615, 1.523743
422.2436, 0.1801760
422.7257, 1.005066
423.2079, 1.138123
423.6900, 1.7883001E-02
424.1721, 0.5986940
424.6542, 6.0973998E-02
425.1363, 1.024353
425.6184, 1.616760
426.1006, 1.552124
426.5827, 1.515381
427.0648, 1.509888
427.5469, 1.560547
428.0290, 1.804871
428.5111, 2.404053
428.9933, 2.852173
429.4754, 2.799561
429.9575, 2.107300
430.4396, 1.960632
430.9217, 2.502686
431.4038, 3.265808
431.8860, 3.702271
432.3681, 3.810181
432.8502, 3.626831
433.3323, 2.965881
433.8144, 2.165833
434.2965, 2.313049
434.7787, 3.399292
435.2608, 4.488892
435.7429, 4.802795
436.2250, 4.633545
436.7071, 4.782043
437.1892, 5.443481
437.6714, 6.023499
438.1535, 5.474670
438.6356, 4.351990
439.1177, 3.880371
439.5998, 5.125061
440.0819, 6.878540
440.5641, 8.257202
441.0462, 9.244812
441.5283, 9.920227
442.0104, 10.06964
442.4925, 10.03973
442.9746, 10.11475
443.4568, 10.40045
443.9389, 10.72180
444.4210, 11.00958
444.9031, 11.28595
445.3852, 11.60736
445.8673, 11.69330
446.3495, 12.11548
446.8316, 13.43048
447.3137, 15.95410
447.7958, 16.99078
448.2779, 15.01465
448.7600, 12.83630
449.2422, 12.70209
449.7243, 16.16266
450.2064, 18.32062
450.6885, 18.21667
451.1706, 16.86853
451.6527, 17.22449
452.1349, 19.75616
452.6170, 22.36664
453.0991, 24.01068
453.5812, 24.74811
454.0633, 25.82709
454.5454, 27.30646
455.0276, 28.86902
455.5097, 30.19110
455.9918, 31.29974
456.4739, 32.28577
456.9560, 33.20306
457.4381, 33.96368
457.9203, 34.41162
458.4024, 34.57819
458.8845, 34.62726
459.3666, 34.08533
459.8488, 33.72430
460.3309, 34.86511
460.8130, 37.75323
461.2951, 40.32129
461.7772, 40.76636
462.2593, 40.16315
462.7415, 39.72620
463.2236, 40.10522
463.7057, 40.51184
464.1878, 40.49701
464.6699, 40.20160
465.1520, 40.27905
465.6342, 41.29626
466.1163, 42.39716
466.5984, 43.30762
467.0805, 44.11914
467.5626, 44.44617
468.0447, 43.38599
468.5269, 42.33453
469.0090, 42.85968
469.4911, 46.26611
469.9732, 48.83966
470.4553, 49.90503
470.9374, 49.75616
471.4196, 49.59650
471.9017, 49.29169
472.3838, 49.39056
472.8659, 50.45679
473.3480, 52.49054
473.8301, 53.73279
474.3123, 54.02930
474.7944, 54.01031
475.2765, 54.43176
475.7586, 55.19012
476.2407, 55.72595
476.7228, 55.76367
477.2050, 55.75854
477.6871, 56.50647
478.1692, 57.89117
478.6513, 59.31470
479.1334, 60.57092
479.6155, 61.61090
480.0977, 62.44153
480.5798, 62.99738
481.0619, 63.39478
481.5440, 63.47217
482.0261, 63.48737
482.5082, 63.82623
482.9904, 64.95044
483.4725, 65.97070
483.9546, 66.72089
484.4367, 67.17291
484.9188, 67.20459
485.4009, 66.23114
485.8831, 65.33173
486.3652, 64.99847
486.8473, 65.50128
487.3294, 65.57953
487.8115, 65.37964
488.2936, 64.59198
488.7758, 62.67926
489.2579, 59.07941
489.7400, 56.05603
490.2221, 53.85657
490.7042, 52.52765
491.1863, 52.83850
491.6685, 55.03662
492.1506, 56.37994
492.6327, 54.64526
493.1148, 50.59900
493.5969, 47.92993
494.0790, 46.73529
494.5612, 46.27832
495.0433, 45.97113
495.5254, 45.84589
496.0075, 46.05219
496.4896, 47.00775
496.9717, 47.71783
497.4539, 46.82404
497.9360, 44.88293
498.4181, 43.35712
498.9002, 43.26630
499.3823, 43.55896
499.8644, 43.34229
500.3466, 42.43671
500.8287, 42.44684
501.3108, 44.82465
501.7929, 47.68042
502.2750, 49.59918
502.7571, 49.41522
503.2393, 49.71570
503.7214, 51.10339
504.2035, 52.90741
504.6856, 53.54163
505.1677, 51.81494
505.6498, 50.91547
506.1320, 52.02185
506.6141, 55.06104
507.0962, 57.63257
507.5783, 59.63177
508.0604, 61.70856
508.5425, 64.41876
509.0247, 67.70209
509.5068, 71.12671
509.9889, 74.79175
510.4710, 78.23694
510.9531, 80.38074
511.4352, 81.63770
511.9174, 83.51733
512.3995, 87.17804
512.8816, 91.44849
513.3637, 94.96783
513.8458, 97.85944
514.3279, 100.8929
514.8101, 104.6298
515.2922, 108.6107
515.7743, 112.3669
516.2564, 115.6204
516.7385, 119.3686
517.2206, 124.8229
517.7028, 130.5751
518.1849, 134.9968
518.6670, 137.0784
519.1491, 138.6830
519.6312, 140.1963
520.1133, 141.4852
520.5955, 142.0362
521.0776, 141.9226
521.5597, 140.9658
522.0418, 138.8129
522.5239, 135.2781
523.0060, 132.7466
523.4882, 131.4771
523.9703, 130.4843
524.4524, 129.1750
524.9345, 127.4645
525.4166, 123.9704
525.8987, 118.0309
526.3809, 110.9239
526.8630, 103.9373
527.3451, 97.23590
527.8272, 91.66559
528.3093, 88.37988
528.7914, 85.92310
529.2736, 82.78766
529.7557, 78.93018
530.2378, 74.77753
530.7199, 69.80133
531.2020, 65.01880
531.6841, 61.43073
532.1663, 59.74030
532.6484, 57.97943
533.1305, 55.47992
533.6126, 52.64508
534.0947, 50.01147
534.5768, 47.88837
535.0590, 45.67767
535.5411, 43.20258
536.0232, 40.54639
536.5053, 38.32019
536.9874, 36.75543
537.4695, 35.39911
537.9517, 33.95404
538.4338, 32.37885
538.9159, 31.12549
539.3980, 30.27368
539.8801, 29.53644
540.3622, 28.39362
540.8444, 27.01575
541.3265, 26.23657
541.8086, 26.48157
542.2907, 26.96027
542.7728, 26.57806
543.2549, 25.53448
543.7371, 24.45801
544.2192, 23.67365
544.7013, 22.97858
545.1834, 22.40100
545.6655, 21.89404
546.1476, 20.91272
546.6298, 18.36017
547.1119, 15.85706
547.5940, 14.64520
548.0761, 16.12109
548.5582, 16.34314
549.0403, 13.78259
549.5225, 10.43018
550.0046, 8.809387
550.4867, 10.15021
550.9688, 10.66089
551.4509, 9.333679
551.9330, 6.809021
552.4152, 5.655457
552.8973, 6.128784
553.3794, 6.357483
553.8615, 4.976501
554.3436, 2.402344
554.8257, 1.053284
555.3079, 0.9918210
555.7900, 1.186096
556.2721, 0.6635740
556.7542, 0.2484740
557.2363, 0.9694210
557.7184, 1.384155
558.2006, 1.556763
558.6827, 1.177490
559.1648, 0.6439210
559.6469, 0.6231080
560.1290, 1.804993
560.6111, 3.105286
561.0933, 4.347595
561.5754, 5.441101
562.0575, 5.835022
562.5396, 4.934570
563.0217, 3.782898
563.5038, 2.684265
563.9860, 1.554749
564.4681, 0.9188840
564.9502, 0.9985960
565.4323, 1.233093
565.9144, 1.023254
566.3965, 0.3144530
566.8787, 0.1687010
567.3608, 0.2521970
567.8429, 0.2141720
568.3250, 0.5095830
568.8071, 1.109619
569.2892, 1.858459
569.7714, 2.958679
570.2535, 3.987610
570.7356, 4.108582
571.2177, 3.492981
571.6998, 3.126770
572.1819, 3.801392
572.6641, 4.804871
573.1462, 5.551270
573.6283, 5.900696
574.1104, 6.385132
574.5925, 7.689026
575.0746, 8.918823
575.5568, 9.264771
576.0389, 7.752014
576.5210, 6.606995
577.0031, 6.040710
577.4852, 5.835876
577.9673, 5.445862
578.4495, 4.628052
578.9316, 4.474548
579.4137, 5.687134
579.8958, 7.764526
580.3779, 8.277344
580.8600, 7.154236
581.3422, 6.292419
581.8243, 7.677673
582.3064, 10.18103
582.7885, 10.87952
583.2706, 9.453735
583.7527, 7.983459
584.2349, 8.476868
584.7170, 9.787781
585.1991, 10.44006
585.6812, 9.597473
586.1633, 8.815430
586.6454, 9.121582
587.1276, 9.869690
587.6097, 9.888794
588.0918, 7.836304
588.5739, 6.298706
589.0560, 6.073975
589.5381, 6.934998
590.0203, 7.253113
590.5024, 7.004150
590.9845, 6.262756
591.4666, 4.833313
591.9487, 2.699585
592.4308, 1.527832
592.9130, 1.492798
593.3951, 1.557068
593.8772, 0.3556520
594.3593, 1.614197
594.8414, 2.595337
595.3235, 2.064331
595.8057, 1.175964
596.2878, 1.170349
596.7699, 1.641235
597.2520, 1.830200
597.7341, 0.8959960
598.2162, 0.1386110
598.6984, 0.4641720
599.1805, 1.567017
599.6626, 2.287537
600.1447, 2.290283
600.6268, 1.949402
601.1089, 1.393433
601.5911, 0.6252440
602.0732, 0.3605350
602.5553, 1.613464
603.0374, 2.994934
603.5195, 4.516907
604.0016, 6.226929
604.4838, 7.410156
604.9659, 7.981262
605.4480, 8.156067
605.9301, 7.593994
606.4122, 6.722473
606.8943, 7.488220
607.3765, 11.28766
607.8586, 15.41870
608.3407, 16.49823
608.8228, 15.50629
609.3049, 14.81732
609.7870, 16.08502
610.2692, 17.44153
610.7513, 17.48920
611.2334, 16.38715
611.7155, 16.30859
612.1976, 18.81232
612.6797, 21.44104
613.1619, 22.91553
613.6440, 22.76184
614.1261, 23.82635
614.6082, 26.67188
615.0903, 29.81519
615.5724, 31.92554
616.0546, 32.97363
616.5367, 34.03717
617.0188, 35.21069
617.5009, 36.49707
617.9830, 37.61749
618.4651, 38.76654
618.9473, 40.75275
619.4294, 44.85413
619.9115, 48.80188
620.3936, 49.89551
620.8757, 49.01520
621.3578, 48.77527
621.8400, 50.60547
622.3221, 53.11536
622.8042, 55.91321
623.2863, 58.98285
623.7684, 61.20178
624.2505, 62.24353
624.7327, 62.67078
625.2148, 62.54108
625.6969, 61.48553
626.1790, 61.52240
626.6611, 63.04749
627.1432, 64.83301
627.6254, 65.70221
628.1075, 65.66968
628.5896, 64.76947
629.0717, 62.74554
629.5538, 60.62341
630.0359, 60.01587
630.5181, 60.41931
631.0002, 60.54938
631.4823, 59.54150
631.9644, 58.41571
632.4465, 57.83539
632.9286, 57.71478
633.4108, 57.79926
633.8929, 57.51813
634.3750, 57.87347
634.8571, 59.75897
635.3392, 63.30743
635.8214, 65.35693
636.3035, 64.85822
636.7856, 64.38654
637.2677, 65.62939
637.7498, 68.93750
638.2319, 71.16187
638.7141, 72.11798
639.1962, 72.80310
639.6783, 74.39783
640.1604, 76.65283
640.6425, 78.48694
641.1246, 79.59741
641.6068, 80.66577
642.0889, 82.75195
642.5710, 85.23047
643.0531, 86.98236
643.5352, 87.10437
644.0173, 86.92938
644.4995, 86.72565
644.9816, 86.62256
645.4637, 86.99377
645.9458, 88.73920
646.4279, 90.01788
646.9100, 90.44128
647.3922, 90.01648
647.8743, 88.65497
648.3564, 85.95514
648.8385, 83.46411
649.3206, 82.55115
649.8027, 82.88818
650.2849, 81.37482
650.7670, 77.90491
651.2491, 74.20526
651.7312, 71.90289
652.2133, 70.35590
652.6954, 68.53497
653.1776, 66.16589
653.6597, 64.36298
654.1418, 63.69733
654.6239, 63.89246
655.1060, 64.65692
655.5881, 65.98987
656.0703, 67.90778
656.5524, 70.54944
657.0345, 73.65979
657.5166, 76.88934
657.9987, 80.38281
658.4808, 83.76953
658.9630, 86.84027
659.4451, 89.84778
659.9272, 93.54651
660.4093, 97.91516
660.8914, 103.1511
661.3735, 109.7274
661.8557, 117.0978
662.3378, 124.2738
662.8199, 131.3307
663.3020, 138.9433
663.7841, 148.3324
664.2662, 157.9442
664.7484, 166.3010
665.2305, 172.8600
665.7126, 180.1399
666.1947, 188.7047
666.6768, 198.2756
667.1589, 208.7521
667.6411, 221.2363
668.1232, 232.1100
668.6053, 240.8908
669.0874, 248.7496
669.5695, 256.8514
670.0516, 265.2693
670.5338, 275.3483
671.0159, 288.0725
671.4980, 300.7479
671.9801, 308.6816
672.4622, 313.2187
672.9443, 317.7859
673.4265, 325.1368
673.9086, 331.8498
674.3907, 335.5707
674.8728, 336.8094
675.3549, 336.8994
675.8370, 336.8978
676.3192, 335.1914
676.8013, 330.8180
677.2834, 323.9956
677.7655, 316.8802
678.2476, 309.7479
678.7297, 301.8984
679.2119, 293.3580
679.6940, 284.0382
680.1761, 272.0982
680.6582, 257.3859
681.1403, 242.2536
681.6224, 228.8868
682.1046, 216.5010
682.5867, 203.5900
683.0688, 189.7188
683.5509, 176.6826
684.0330, 165.5626
684.5151, 155.7952
684.9973, 146.6556
685.4794, 138.1946
685.9615, 129.9964
686.4436, 121.7846
686.9257, 113.8482
687.4078, 106.4900
687.8900, 99.50269
688.3721, 93.65918
688.8542, 89.49878
689.3363, 86.09705
689.8184, 81.54688
690.3005, 75.98572
690.7827, 70.83258
691.2648, 66.83240
691.7469, 63.44940
692.2290, 60.05151
692.7111, 56.56158
693.1932, 53.04565
693.6754, 49.16266
694.1575, 45.74457
694.6396, 43.42401
695.1217, 42.13574
695.6038, 40.75726
696.0859, 39.23059
696.5681, 37.61188
697.0502, 35.74377
697.5323, 33.50873
698.0144, 31.97565
698.4965, 31.35712
698.9786, 30.78729
699.4608, 29.47229
699.9429, 27.62823
700.4250, 26.26300
700.9071, 25.39777
701.3892, 24.62244
701.8713, 23.91718
702.3535, 23.12054
702.8356, 21.95270
703.3177, 19.96710
703.7998, 18.32709
704.2819, 17.97284
704.7640, 18.06793
705.2462, 17.61066
705.7283, 15.77423
706.2104, 14.75116
706.6925, 14.94421
707.1746, 15.72717
707.6567, 16.04944
708.1389, 15.84540
708.6210, 15.57275
709.1031, 15.51758
709.5852, 15.30994
710.0673, 14.15106
710.5494, 12.30316
711.0316, 10.51831
711.5137, 8.721680
711.9958, 7.513306
712.4779, 7.727783
712.9600, 8.899719
713.4421, 9.599121
713.9243, 9.238037
714.4064, 8.562012
714.8885, 7.740295
715.3706, 6.782349
715.8527, 5.721619
716.3348, 4.383362
716.8170, 3.480957
717.2991, 3.628418
717.7812, 4.532532
718.2633, 4.530273
718.7454, 3.644165
719.2275, 2.870361
719.7097, 3.320801
720.1918, 4.050903
720.6739, 3.749939
721.1560, 2.314148
721.6381, 1.063110
722.1202, 0.4602050
722.6024, 0.3883060
723.0845, 0.9028930
723.5666, 2.367981
724.0487, 3.263306
724.5308, 3.465149
725.0129, 3.277344
725.4951, 2.976074
725.9772, 2.573242
726.4593, 1.596191
726.9414, 0.1532590
727.4235, 1.732666
727.9056, 1.887573
728.3878, 1.086121
728.8699, 0.2567140
729.3520, 0.5200200
729.8341, 0.9104000
730.3162, 0.1840820
730.7983, 0.8692630
731.2805, 1.264587
731.7626, 0.2679440
732.2447, 1.095520
732.7268, 0.5288700
733.2089, 0.6113890
733.6910, 0.9105220
734.1732, 0.1345210
734.6553, 0.4240720
735.1374, 0.4113160
735.6195, 0.1712650
736.1016, 0.3936770
736.5837, 0.9871220
737.0659, 1.584412
737.5480, 2.445862
738.0301, 2.804138
738.5122, 1.305542
738.9943, 1.276367
739.4764, 2.933350
739.9586, 1.978333
740.4407, 1.052246
740.9228, 1.316162
741.4049, 2.406311
741.8870, 2.585266
742.3691, 1.443298
742.8513, 0.4879760
743.3334, 0.3975830
743.8155, 0.9153440
744.2976, 0.8829960
744.7797, 0.3319090
745.2618, 8.9233004E-02
745.7440, 0.2180180
746.2261, 0.7489620
746.7082, 0.8869630
747.1903, 0.6530760
747.6724, 0.4304810
748.1545, 0.1585690
748.6367, 0.1430660
749.1188, 0.8554080
749.6009, 2.485291
750.0830, 2.776917
750.5651, 1.118896
751.0472, 0.7426150
751.5294, 1.890137
752.0115, 2.332886
752.4936, 2.034058
752.9757, 0.9640500
753.4578, 0.3615110
753.9399, 1.954285
754.4221, 3.314209
754.9042, 3.419495
755.3863, 2.062683
755.8684, 0.8331300
756.3505, 0.5332640
756.8326, 0.6812740
757.3148, 0.9882810
757.7969, 1.701721
758.2790, 1.708679
758.7611, 0.4347530
759.2432, 0.7788090
759.7253, 0.3800660
760.2075, 1.699646
760.6896, 2.269897
761.1717, 0.9160160
761.6538, 1.002197
762.1359, 2.477295
762.6180, 3.373840
763.1002, 3.261658
763.5823, 1.765930
764.0644, 0.2792360
764.5465, 0.7090450
765.0286, 1.172607
765.5107, 1.070251
765.9929, 0.3115230
766.4750, 1.185303
766.9571, 1.363403
767.4392, 1.236938
767.9213, 1.236084
768.4034, 1.357605
768.8856, 1.761047
769.3677, 2.516541
769.8498, 3.387024
770.3319, 4.138123
770.8140, 4.764343
771.2961, 5.273193
771.7783, 5.686401
772.2604, 5.927856
772.7425, 5.701538
773.2246, 5.348145
773.7067, 5.405334
774.1888, 6.501221
774.6710, 7.162537
775.1531, 7.222595
775.6352, 6.831787
776.1173, 5.964966
776.5994, 4.594727
777.0815, 4.242126
777.5637, 5.586914
778.0458, 7.452271
778.5279, 8.238037
779.0100, 8.224304
779.4921, 8.036377
779.9742, 7.785950
780.4564, 7.589355
780.9385, 7.305176
781.4206, 7.146606
781.9027, 7.609070
782.3848, 9.234314
782.8669, 10.57770
783.3491, 11.52167
783.8312, 11.97284
784.3133, 11.47028
784.7954, 9.999268
785.2775, 8.591064
785.7596, 7.692261
786.2418, 7.223389
786.7239, 7.005554
787.2060, 7.060181
787.6881, 7.438904
788.1702, 9.066467
788.6523, 9.947449
789.1345, 8.754211
789.6166, 6.349731
790.0987, 4.863037
790.5808, 4.377502
791.0629, 4.624634
791.5450, 5.898987
792.0272, 7.773621
792.5093, 8.764832
792.9914, 8.905396
793.4735, 8.728271
793.9556, 8.293152
794.4377, 7.889343
794.9199, 7.987488
795.4020, 8.390503
795.8841, 8.558105
796.3662, 8.213318
796.8483, 7.529907
797.3304, 6.281433
797.8126, 4.944763
798.2947, 4.584656
798.7768, 5.479431
799.2589, 6.237305
799.7410, 6.504883
800.2231, 6.558533
800.7053, 6.910034
801.1874, 7.454346
801.6695, 7.872009
802.1516, 7.799194
802.6337, 7.835083
803.1158, 8.870605
803.5980, 10.37939
804.0801, 11.08032
804.5622, 8.541138
805.0443, 7.662781
805.5264, 10.99854
806.0085, 16.67102
806.4907, 18.05457
806.9728, 14.12592
807.4549, 10.92981
807.9370, 10.95050
808.4191, 12.69629
808.9012, 12.82611
809.3834, 11.66522
809.8655, 10.68201
810.3476, 10.53741
810.8297, 10.84485
811.3118, 11.66278
811.7939, 12.68628
812.2761, 13.14502
812.7582, 12.60956
813.2403, 12.21167
813.7224, 12.02069
814.2045, 12.09583
814.6866, 13.06128
815.1688, 14.90594
815.6509, 15.99603
816.1330, 15.41095
816.6151, 14.34943
817.0972, 14.24817
817.5793, 14.90454
818.0615, 15.82391
818.5436, 17.47699
819.0257, 18.95135
819.5078, 19.77155
819.9899, 20.00220
820.4720, 20.07483
820.9542, 20.08295
821.4363, 19.54871
821.9184, 17.92212
822.4005, 16.14832
822.8826, 16.99731
823.3647, 20.01483
823.8469, 22.35425
824.3290, 22.69727
824.8111, 22.19153
825.2932, 21.60236
825.7753, 20.98639
826.2574, 20.46057
826.7396, 19.39441
827.2217, 19.32751
827.7038, 21.31592
828.1859, 24.00128
828.6681, 24.63342
829.1502, 22.85693
829.6323, 21.47144
830.1144, 21.09784
830.5966, 21.41064
831.0787, 22.44507
831.5608, 23.73676
832.0429, 24.09418
832.5250, 22.11493
833.0071, 20.71832
833.4893, 22.18896
833.9714, 24.92291
834.4535, 26.30878
834.9356, 24.96301
835.4177, 24.79034
835.8998, 26.48529
836.3820, 28.93512
836.8641, 30.74072
837.3462, 31.87939
837.8283, 32.02325
838.3104, 30.76965
838.7925, 29.71533
839.2747, 30.73358
839.7568, 32.82251
840.2389, 34.64746
840.7210, 36.00238
841.2031, 36.80963
841.6852, 36.43713
842.1674, 35.95319
842.6495, 36.51825
843.1316, 38.44287
843.6137, 39.55878
844.0958, 39.57574
844.5779, 39.37421
845.0601, 39.90167
845.5422, 40.98419
846.0243, 42.32819
846.5064, 43.93329
846.9885, 45.51978
847.4706, 46.65277
847.9528, 47.88580
848.4349, 49.86316
848.9170, 53.29285
849.3991, 55.31647
849.8812, 55.44440
850.3633, 55.13446
850.8455, 55.20642
851.3276, 55.79492
851.8097, 58.24054
852.2918, 62.67352
852.7739, 66.88959
853.2560, 69.12451
853.7382, 70.35846
854.2203, 71.32642
854.7024, 72.06226
855.1845, 73.33160
855.6666, 75.73853
856.1487, 78.22845
856.6309, 80.23431
857.1130, 81.73901
857.5951, 83.94562
858.0772, 86.90723
858.5593, 90.02795
859.0414, 93.40961
859.5236, 96.48792
860.0057, 97.98022
860.4878, 98.10406
860.9699, 98.50201
861.4520, 100.0466
861.9341, 101.9169
862.4163, 103.9354
862.8984, 106.0314
863.3805, 107.6330
863.8626, 108.6318
864.3447, 109.6068
864.8268, 111.0211
865.3090, 112.4015
865.7911, 112.1023
866.2732, 110.5521
866.7553, 109.5401
867.2374, 111.1455
867.7195, 112.4048
868.2017, 111.1378
868.6838, 108.0960
869.1659, 105.4835
869.6480, 103.6506
870.1301, 102.0134
870.6122, 100.7707
871.0944, 99.37714
871.5765, 96.26538
872.0586, 91.71375
872.5407, 87.92218
873.0228, 85.99255
873.5049, 84.10760
873.9871, 80.30646
874.4692, 75.46466
874.9513, 70.88312
875.4334, 66.98010
875.9155, 63.28241
876.3976, 59.45233
876.8798, 56.03204
877.3619, 53.88733
877.8440, 53.13055
878.3261, 51.69128
878.8082, 49.29962
879.2903, 46.31317
879.7725, 42.40912
880.2546, 38.39850
880.7367, 35.57312
881.2188, 34.45325
881.7009, 33.63098
882.1830, 32.74677
882.6652, 31.41504
883.1473, 29.37646
883.6294, 26.44653
884.1115, 23.92242
884.5936, 21.79297
885.0757, 20.13171
885.5579, 19.04596
886.0400, 18.44019
886.5221, 18.36621
887.0042, 18.74414
887.4863, 18.73242
887.9684, 17.62836
888.4506, 16.27203
888.9327, 14.99188
889.4148, 13.80817
889.8969, 12.98767
890.3790, 12.74640
890.8611, 12.25012
891.3433, 10.81934
891.8254, 9.069641
892.3075, 8.980591
892.7896, 10.13965
893.2717, 10.77246
893.7538, 9.149963
894.2360, 7.570740
894.7181, 7.568237
895.2002, 8.574341
895.6823, 9.097595
896.1644, 8.870361
896.6465, 8.602417
897.1287, 8.509644
897.6108, 8.347290
898.0929, 7.278320
898.5750, 5.572632
899.0571, 4.764771
899.5392, 5.608093
900.0214, 6.601074
900.5035, 6.434631
900.9856, 5.788025
901.4677, 5.507996
901.9498, 6.486023
902.4319, 6.295959
902.9141, 4.233582
903.3962, 2.089844
903.8783, 1.713379
904.3604, 2.897278
904.8425, 3.473206
905.3246, 3.332642
905.8068, 3.063965
906.2889, 3.184082
906.7710, 3.434326
907.2531, 3.525269
907.7352, 3.465759
908.2173, 3.374512
908.6995, 3.147705
909.1816, 3.156189
909.6637, 3.665466
910.1458, 4.610718
910.6279, 5.114929
911.1100, 5.181152
911.5922, 5.222473
912.0743, 5.678650
912.5564, 6.085693
913.0385, 5.847229
913.5206, 5.158997
914.0027, 4.652710
914.4849, 4.640015
914.9670, 4.569580
915.4491, 4.250916
915.9312, 3.947449
916.4133, 4.210144
916.8954, 5.043701
917.3776, 5.643066
917.8597, 5.821106
918.3418, 5.601563
918.8239, 4.595703
919.3060, 3.400879
919.7881, 2.956665
920.2703, 4.282532
920.7524, 4.640930
921.2345, 2.621277
921.7166, 0.5846560
922.1987, 0.8259280
922.6808, 3.472412
923.1630, 4.641174
923.6451, 4.112610
924.1272, 3.376099
924.6093, 3.906372
925.0914, 4.859375
925.5735, 5.357544
926.0557, 5.317749
926.5378, 4.856140
927.0199, 3.406982
927.5020, 2.188721
927.9841, 1.511230
928.4662, 1.411377
928.9484, 2.512939
929.4305, 4.803467
929.9126, 6.188232
930.3947, 4.991943
930.8768, 3.109680
931.3589, 2.776367
931.8411, 3.470032
932.3232, 4.071350
932.8053, 4.370239
933.2874, 4.372009
933.7695, 4.004333
934.2516, 3.442322
934.7338, 2.862305
935.2159, 2.259705
935.6980, 2.066589
936.1801, 2.411926
936.6622, 2.837585
937.1443, 3.456787
937.6265, 3.597412
938.1086, 1.927246
938.5907, 2.782349
939.0728, 5.114014
939.5549, 2.666931
940.0370, 0.4964600
940.5192, 2.164917
941.0013, 2.390503
941.4834, 2.605896
941.9655, 2.745544
942.4476, 2.510010
942.9297, 1.317322
943.4119, 5.1575001E-02
943.8940, 0.2692870
944.3761, 0.1680910
944.8582, 0.3984990
945.3403, 0.2533570
945.8224, 0.8256840
946.3046, 0.8955080
946.7867, 0.7118530
947.2688, 0.9488530
947.7509, 1.550842
948.2330, 2.053894
948.7151, 2.312378
949.1973, 2.434631
949.6794, 2.928528
950.1615, 3.189636
950.6436, 2.309143
951.1257, 1.315125
951.6078, 3.169983
952.0900, 2.618713
952.5721, 1.284180
953.0542, 0.4885250
953.5363, 0.1173710
954.0184, 0.7374880
954.5005, 2.071960
954.9827, 2.926941
955.4648, 2.406189
955.9469, 1.344910
956.4290, 5.1270001E-02
956.9111, 1.352173
957.3932, 1.885925
957.8754, 1.146973
958.3575, 0.3534550
958.8396, 0.2594600
959.3217, 0.5562130
959.8038, 0.1466060
960.2859, 1.518738
960.7681, 2.387695
961.2502, 2.175964
961.7323, 1.587402
962.2144, 0.4372560
962.6965, 0.5590210
963.1786, 0.3158570
963.6608, 2.126892
964.1429, 2.895264
964.6250, 1.424622
965.1071, 0.2438960
965.5892, 0.4511110
966.0714, 2.360596
966.5535, 2.705811
967.0356, 1.218689
967.5177, 3.9673001E-02
967.9998, 9.7778000E-02
968.4819, 0.6253660
968.9641, 1.123962
969.4462, 1.556763
969.9283, 1.763916
970.4104, 1.746765
970.8925, 1.377258
971.3746, 0.2459110
971.8568, 0.7985840
972.3389, 1.7090000E-03
972.8210, 1.812256
973.3031, 2.871216
973.7852, 1.740051
974.2673, 0.8753660
974.7495, 0.6497190
975.2316, 0.9468380
975.7137, 1.839111
976.1958, 3.375488
976.6779, 4.398010
977.1600, 4.800903
977.6422, 5.004639
978.1243, 5.609497
978.6064, 6.084961
979.0885, 5.766541
979.5706, 4.597290
980.0527, 3.430603
980.5349, 2.008301
981.0170, 1.253418
981.4991, 1.752747
981.9812, 3.019958
982.4633, 3.153259
982.9454, 2.379944
983.4276, 2.137512
983.9097, 3.451965
984.3918, 4.867249
984.8739, 5.538269
985.3560, 5.578674
985.8381, 5.090698
986.3203, 3.738403
986.8024, 2.713196
987.2845, 2.074951
987.7666, 1.749084
988.2487, 1.675171
988.7308, 1.856323
989.2130, 2.451294
989.6951, 3.444763
990.1772, 4.159607
990.6593, 3.954956
991.1414, 3.619019
991.6235, 3.481445
992.1057, 3.557129
992.5878, 4.147217
993.0699, 5.394104
993.5520, 5.982239
994.0341, 5.244995
994.5162, 3.943481
994.9984, 2.831726
995.4805, 2.038757
995.9626, 1.847900
996.4447, 3.157898
996.9268, 3.404480
997.4089, 1.852356
997.8911, 4.7118999E-02
998.3732, 0.7939450
998.8553, 0.6694950
999.3374, 0.4247440
999.8195, 2.501709
1000.302, 4.138184
1000.784, 4.181091
1001.266, 3.397827
1001.748, 1.794434
1002.230, 0.3466800
1002.712, 0.6484990
1003.194, 2.065918
1003.676, 4.078613
1004.159, 4.265381
1004.641, 3.465515
1005.123, 3.405701
1005.605, 3.759338
1006.087, 3.487061
1006.569, 1.895813
1007.051, 0.7450560
1007.533, 1.129639
1008.016, 2.184570
1008.498, 3.276062
1008.980, 4.582031
1009.462, 5.158081
1009.944, 4.948303
1010.426, 4.476257
1010.908, 3.959717
1011.390, 3.516235
1011.872, 3.296021
1012.355, 3.224121
1012.837, 3.151306
1013.319, 2.964600
1013.801, 3.098206
1014.283, 3.840759
1014.765, 4.680237
1015.247, 4.490112
1015.729, 3.467468
1016.211, 3.229980
1016.694, 4.177368
1017.176, 5.383728
1017.658, 6.967346
1018.140, 7.947021
1018.622, 7.102844
1019.104, 3.944580
1019.586, 1.910095
1020.068, 1.135498
1020.551, 1.020142
1021.033, 1.677307
1021.515, 2.681458
1021.997, 2.993347
1022.479, 2.729736
1022.961, 2.154053
1023.443, 0.1896970
1023.925, 0.3728030
1024.407, 2.539917
1024.890, 6.350159
1025.372, 7.730408
1025.854, 6.650085
1026.336, 5.570496
1026.818, 4.669495
1027.300, 4.085144
1027.782, 3.911865
1028.264, 4.129272
1028.746, 4.930481
1029.229, 6.265442
1029.711, 6.992615
1030.193, 6.983459
1030.675, 6.888550
1031.157, 6.779541
1031.639, 6.743408
1032.121, 7.096985
1032.603, 7.696899
1033.086, 8.058044
1033.568, 7.985901
1034.050, 7.772095
1034.532, 7.332336
1035.014, 6.988708
1035.496, 7.182434
1035.978, 8.142212
1036.460, 7.658081
1036.943, 5.626038
1037.425, 4.148926
1037.907, 5.578125
1038.389, 7.777649
1038.871, 8.468079
1039.353, 7.889893
1039.835, 7.045959
1040.317, 5.140442
1040.799, 4.755249
1041.281, 6.793518
1041.764, 9.696289
1042.246, 11.08160
1042.728, 11.23407
1043.210, 10.89124
1043.692, 10.10437
1044.174, 9.464050
1044.656, 9.359985
1045.138, 9.453125
1045.621, 9.619019
1046.103, 9.830994
1046.585, 9.595581
1047.067, 8.875793
1047.549, 8.422363
1048.031, 8.877930
1048.513, 9.339355
1048.995, 8.237000
1049.478, 6.517090
1049.960, 5.788147
1050.442, 7.744202
1050.924, 8.689819
1051.406, 8.209473
1051.888, 7.402283
1052.370, 7.488098
1052.852, 8.072083
1053.334, 7.520874
1053.817, 5.940735
1054.299, 4.879272
1054.781, 5.699097
1055.263, 6.608521
1055.745, 6.828125
1056.227, 6.490173
1056.709, 5.717468
1057.191, 4.514587
1057.673, 3.899719
1058.156, 4.018066
1058.638, 4.764221
1059.120, 6.888062
1059.602, 9.053894
1060.084, 9.615356
1060.566, 8.128906
1061.048, 6.878174
1061.530, 5.654602
1062.013, 5.053772
1062.495, 5.687073
1062.977, 6.897278
1063.459, 6.948608
1063.941, 6.196960
1064.423, 5.680115
1064.905, 6.411377
1065.387, 6.607910
1065.870, 5.055481
1066.352, 3.223389
1066.834, 2.465027
1067.316, 2.792725
1067.798, 3.090515
1068.280, 3.322571
1068.762, 3.479614
1069.244, 3.162231
1069.726, 3.190674
1070.208, 4.810059
1070.691, 7.287659
1071.173, 7.886536
1071.655, 5.846985
1072.137, 4.653564
1072.619, 4.992188
1073.101, 5.779541
1073.583, 5.842651
1074.065, 5.486572
1074.548, 5.226746
1075.030, 5.159424
1075.512, 4.766785
1075.994, 3.197693
1076.476, 2.315918
1076.958, 3.096130
1077.440, 4.957703
1077.922, 6.239502
1078.405, 6.902832
1078.887, 6.583313
1079.369, 4.357544
1079.851, 2.493408
1080.333, 2.242554
1080.815, 3.069092
1081.297, 4.560059
1081.779, 7.168274
1082.261, 7.598022
1082.744, 5.613220
1083.226, 3.604309
1083.708, 3.412964
1084.190, 4.012878
1084.672, 4.467163
1085.154, 4.793823
1085.636, 5.193909
1086.118, 6.024109
1086.601, 6.148621
1087.083, 5.171631
1087.565, 4.079590
1088.047, 4.436707
1088.529, 5.520203
1089.011, 5.649963
1089.493, 4.645630
1089.975, 3.970642
1090.458, 4.344299
1090.940, 5.087646
1091.422, 6.111755
1091.904, 7.197937
1092.386, 8.067566
1092.868, 8.583191
1093.350, 7.429993
1093.832, 3.463013
1094.314, 0.2536010
1094.797, 0.9648440
1095.279, 3.107483
1095.761, 4.565247
1096.243, 5.267578
1096.725, 4.975403
1097.207, 3.576660
1097.689, 2.541687
1098.171, 2.860352
1098.653, 3.791931
1099.136, 4.984070
1099.618, 6.049561
1100.100, 6.202515
1100.582, 4.434509
1101.064, 3.334473
1101.546, 3.097473
1102.028, 3.175720
1102.510, 3.029053
1102.993, 2.826355
1103.475, 2.989136
1103.957, 3.478149
1104.439, 3.955566
1104.921, 4.523560
1105.403, 4.711731
1105.885, 4.252747
1106.367, 3.549255
1106.849, 3.381348
1107.332, 3.633667
1107.814, 3.533142
1108.296, 2.917603
1108.778, 2.676575
1109.260, 3.400757
1109.742, 4.687195
1110.224, 6.691833
1110.706, 9.083801
1111.188, 10.21442
1111.671, 10.07300
1112.153, 9.218384
1112.635, 7.550903
1113.117, 5.932922
1113.599, 5.144348
1114.081, 4.918823
1114.563, 5.064148
1115.045, 5.672913
1115.528, 5.960388
1116.010, 5.866760
1116.492, 5.724792
1116.974, 5.742981
1117.456, 5.819580
1117.938, 5.788391
1118.420, 5.696045
1118.902, 5.630127
1119.385, 6.155640
1119.867, 5.776489
1120.349, 4.033447
1120.831, 2.192505
1121.313, 1.459473
1121.795, 1.542847
1122.277, 1.636780
1122.759, 1.724060
1123.241, 1.901550
1123.724, 2.437805
1124.206, 2.760132
1124.688, 2.629395
1125.170, 2.281006
1125.652, 2.263855
1126.134, 2.431274
1126.616, 1.433350
1127.098, 0.9331050
1127.580, 2.741577
1128.063, 2.025146
1128.545, 0.9647220
1129.027, 1.161926
1129.509, 2.115662
1129.991, 1.839294
1130.473, 0.2875370
1130.955, 0.6228640
1131.437, 0.2913210
1131.920, 0.3233640
1132.402, 0.3451540
1132.884, 0.1760250
1133.366, 0.2942500
1133.848, 0.7745360
1134.330, 0.7451170
1134.812, 0.1044310
1135.294, 0.5068360
1135.776, 0.7545170
1136.259, 0.8925780
1136.741, 1.164551
1137.223, 1.589905
1137.705, 2.279846
1138.187, 3.780579
1138.669, 4.083557
1139.151, 2.639038
1139.633, 1.378601
1140.115, 2.012878
1140.598, 3.519836
1141.080, 3.660950
1141.562, 2.855103
1142.044, 2.283813
1142.526, 2.478821
1143.008, 2.857849
1143.490, 3.535156
1143.972, 4.081665
1144.455, 3.914612
1144.937, 3.284424
1145.419, 3.000366
1145.901, 3.064880
1146.383, 3.203552
1146.865, 3.816650
1147.347, 3.747314
1147.829, 2.263062
1148.312, 0.3536990
1148.794, 0.4333500
1149.276, 0.2260740
1149.758, 0.2644650
1150.240, 0.9570310
1150.722, 1.542114
1151.204, 1.817688
1151.686, 1.917847
1152.168, 1.800659
1152.651, 1.601440
1153.133, 1.684143
1153.615, 2.024597
1154.097, 2.302246
1154.579, 2.444702
1155.061, 2.468323
1155.543, 2.402466
1156.025, 2.204407
1156.507, 1.702698
1156.990, 0.9650270
1157.472, 0.6433110
1157.954, 0.7387080
1158.436, 1.399719
1158.918, 2.902466
1159.400, 4.455261
1159.882, 5.442810
1160.364, 5.930664
1160.847, 5.847717
1161.329, 5.061035
1161.811, 4.834961
1162.293, 5.294556
1162.775, 5.496216
1163.257, 4.784180
1163.739, 3.763855
1164.221, 2.782715
1164.703, 2.143555
1165.186, 2.502747
1165.668, 5.011841
1166.150, 5.971619
1166.632, 5.129883
1167.114, 3.635559
1167.596, 1.560791
1168.078, 0.1837160
1168.560, 0.3118900
1169.042, 2.369385
1169.525, 4.182434
1170.007, 5.685364
1170.489, 6.108276
1170.971, 5.120667
1171.453, 3.800232
1171.935, 3.063110
1172.417, 2.777771
1172.899, 2.838013
1173.382, 3.148438
1173.864, 3.279846
1174.346, 2.582764
1174.828, 2.526978
1175.310, 3.553589
1175.792, 4.821960
1176.274, 5.397644
1176.756, 5.340393
1177.239, 4.646179
1177.721, 3.372498
1178.203, 2.241272
1178.685, 1.112549
1179.167, 0.8129880
1179.649, 1.787964
1180.131, 3.333496
1180.613, 4.242615
1181.095, 4.678101
1181.578, 5.159851
1182.060, 5.782471
1182.542, 6.135010
1183.024, 6.074707
1183.506, 5.603455
1183.988, 4.419739
1184.470, 3.108826
1184.952, 3.560181
1185.434, 5.100647
1185.917, 5.439270
1186.399, 3.680725
1186.881, 2.529724
1187.363, 4.089783
1187.845, 5.750183
1188.327, 6.386047
1188.809, 6.078003
1189.291, 4.937195
1189.774, 3.246521
1190.256, 2.506897
1190.738, 3.481689
1191.220, 4.633240
1191.702, 5.497986
1192.184, 5.988342
1192.666, 6.003479
1193.148, 5.590088
1193.630, 5.191284
1194.113, 4.816284
1194.595, 4.576843
1195.077, 4.784119
1195.559, 4.653381
1196.041, 3.066772
1196.523, 1.628906
1197.005, 1.580383
1197.487, 2.863831
1197.969, 5.458313
1198.452, 8.938660
1198.934, 10.14899
1199.416, 4.774109
1199.898, 0.1379390
1200.380, 0.8399660
1200.862, 3.204834
1201.344, 3.550842
1201.826, 1.886780
1202.309, 1.139771
1202.791, 1.281982
1203.273, 1.754639
1203.755, 2.542542
1204.237, 3.228516
1204.719, 3.362793
1205.201, 3.417175
1205.683, 4.162354
1206.166, 5.553528
1206.648, 5.678101
1207.130, 4.569031
1207.612, 3.567505
1208.094, 3.815247
1208.576, 4.116638
1209.058, 3.455933
1209.540, 2.578125
1210.022, 2.624329
1210.505, 3.556641
1210.987, 4.213867
1211.469, 4.513550
1211.951, 4.275879
1212.433, 2.392578
1212.915, 1.004822
1213.397, 1.990356
1213.879, 3.911804
1214.361, 4.268799
1214.844, 3.178528
1215.326, 2.353516
1215.808, 1.987183
1216.290, 2.070251
1216.772, 3.360413
1217.254, 4.258301
1217.736, 3.390137
1218.218, 1.797791
1218.701, 1.881897
1219.183, 3.502441
1219.665, 4.379272
1220.147, 4.118225
1220.629, 3.429321
1221.111, 1.478638
1221.593, 0.6477660
1222.075, 2.975220
1222.557, 6.860413
1223.040, 8.127441
1223.522, 7.093994
1224.004, 6.135132
1224.486, 5.685425
1224.968, 5.364868
1225.450, 5.056885
1225.932, 4.669922
1226.414, 4.085388
1226.896, 3.480286
1227.379, 3.557190
1227.861, 4.140198
1228.343, 4.213379
1228.825, 3.469666
1229.307, 2.773010
1229.789, 2.978577
1230.271, 2.889221
1230.753, 1.687988
1231.236, 0.1260380
1231.718, 0.8988040
1232.200, 0.7872920
1232.682, 0.3447880
1233.164, 0.3134160
1233.646, 1.182190
1234.128, 2.931580
1234.610, 4.077271
1235.093, 3.735168
1235.575, 2.419189
1236.057, 1.354309
1236.539, 0.7233890
1237.021, 1.490662
1237.503, 4.655396
1237.985, 6.427734
1238.467, 3.876648
1238.949, 1.558105
1239.432, 1.377930
1239.914, 2.913635
1240.396, 6.056030
1240.878, 9.752197
1241.360, 10.75299
1241.842, 7.161621
1242.324, 3.982483
1242.806, 2.303711
1243.288, 1.277344
1243.771, 0.5189820
1244.253, 0.1453250
1244.735, 0.9127810
1245.217, 2.314941
1245.699, 3.079895
1246.181, 2.428528
1246.663, 2.445862
1247.145, 3.786621
1247.628, 4.822571
1248.110, 4.359070
1248.592, 3.331848
1249.074, 4.209290
1249.556, 5.894348
1250.038, 6.119324
1250.520, 3.226379
1251.002, 1.692749
1251.484, 2.018982
1251.967, 2.688232
1252.449, 2.997864
1252.931, 2.972412
1253.413, 2.253418
1253.895, 1.369446
1254.377, 1.317078
1254.859, 2.659912
1255.341, 3.881348
1255.823, 5.034851
1256.306, 5.786560
1256.788, 5.819275
1257.270, 5.471680
1257.752, 4.883240
1258.234, 4.319519
1258.716, 4.260010
1259.198, 4.840515
1259.680, 5.696106
1260.163, 6.956787
1260.645, 7.305359
1261.127, 5.231995
1261.609, 2.897644
1262.091, 2.440552
1262.573, 2.866089
1263.055, 2.753479
1263.537, 1.927185
1264.020, 1.682495
1264.502, 2.002869
1264.984, 2.043213
1265.466, 0.5688480
1265.948, 0.4320680
1266.430, 0.8272710
1266.912, 2.891174
1267.394, 4.174316
1267.876, 4.597473
1268.359, 4.171204
1268.841, 3.003784
1269.323, 2.227844
1269.805, 2.782837
1270.287, 3.385193
1270.769, 3.383728
1271.251, 3.311584
1271.733, 3.718872
1272.215, 4.495056
1272.698, 4.686523
1273.180, 4.410339
1273.662, 3.963989
1274.144, 3.447754
1274.626, 2.809509
1275.108, 1.995850
1275.590, 1.126343
1276.072, 1.9347999E-02
1276.555, 1.012756
1277.037, 0.7168580
1277.519, 0.5587160
1278.001, 1.852417
1278.483, 3.163818
1278.965, 3.776489
1279.447, 3.457886
1279.929, 2.935547
1280.411, 2.726257
1280.894, 2.703613
1281.376, 2.588379
1281.858, 2.484253
1282.340, 2.639648
1282.822, 3.429810
1283.304, 3.751770
1283.786, 3.414978
1284.268, 3.253906
1284.750, 3.606812
1285.233, 4.095032
1285.715, 4.298218
1286.197, 4.327515
1286.679, 4.398193
1287.161, 4.570923
1287.643, 4.405090
1288.125, 3.844116
1288.607, 3.737854
1289.090, 5.157837
1289.572, 6.827209
1290.054, 5.598328
1290.536, 3.437622
1291.018, 3.018616
1291.500, 4.426208
1291.982, 5.200745
1292.464, 5.347229
1292.947, 4.913940
1293.429, 3.534485
1293.911, 2.131653
1294.393, 0.4633790
1294.875, 0.3809810
1295.357, 1.059875
1295.839, 4.128784
1296.321, 5.411560
1296.803, 5.340332
1297.286, 5.388306
1297.768, 6.507935
1298.250, 5.219910
1298.732, 2.652771
1299.214, 0.1655270
1299.696, 0.4186400
1300.178, 1.270752
1300.660, 0.0000000E+00
##END=



