##NAMES=Annite
##RRUFFID=R060211
##IDEAL CHEMISTRY=KFe^2+^_3_AlSi_3_O_10_(OH)_2_
##LOCALITY=Mont Saint-Hilaire, Rouville County, Quebec, Canada
##OWNER=RRUFF
##SOURCE=Royal Ontario Museum
##DESCRIPTION=Black platy fragment
##STATUS=The identification of this mineral has been confirmed by X-ray diffraction and chemical analysis
##URL=rruff.info/R060211
##MEASURED CHEMISTRY=(K_0.94_[box]_0.03_Na_0.02_)(Fe^2+^_2.07_Mg_0.57_Mn_0.33_Ti_0.03_)(Si_2.98_Al_1.02_)O_10_((OH)_1.72_F_0.28_)
109.2776, 0.0000000E+00
109.7597, 0.3430480
110.2418, 1.1200000E-02
110.7239, 0.4465030
111.2061, 0.9683840
111.6882, 0.5720520
112.1703, 1.2848000E-02
112.6524, 7.8979000E-02
113.1345, 1.269165
113.6166, 4.020599
114.0988, 6.136871
114.5809, 6.942169
115.0630, 6.880402
115.5451, 6.272308
116.0272, 5.010132
116.5093, 3.558746
116.9915, 2.589966
117.4736, 2.357544
117.9557, 2.116211
118.4378, 1.382507
118.9199, 0.8216860
119.4020, 0.8130190
119.8842, 1.504181
120.3663, 2.605560
120.8484, 3.314636
121.3305, 2.532410
121.8126, 2.333282
122.2947, 3.519775
122.7769, 5.255615
123.2590, 6.332245
123.7411, 6.061157
124.2232, 4.672272
124.7053, 3.336243
125.1874, 1.572235
125.6696, 0.3761290
126.1517, 0.3720090
126.6338, 1.268402
127.1159, 2.096008
127.5980, 2.157654
128.0801, 1.689636
128.5623, 1.704956
129.0444, 2.743225
129.5265, 4.064819
130.0086, 4.895538
130.4907, 5.314026
130.9728, 5.304108
131.4550, 4.333374
131.9371, 2.955292
132.4192, 1.961151
132.9013, 1.787659
133.3834, 2.227417
133.8655, 2.649872
134.3477, 3.219696
134.8298, 3.559082
135.3119, 3.293396
135.7940, 2.676880
136.2761, 2.271942
136.7582, 2.489929
137.2404, 3.376282
137.7225, 4.819275
138.2046, 7.620575
138.6867, 9.666840
139.1688, 10.34998
139.6509, 9.729736
140.1331, 8.611786
140.6152, 7.741852
141.0973, 7.207275
141.5794, 6.652405
142.0615, 5.769501
142.5436, 5.127563
143.0258, 5.258514
143.5079, 6.266266
143.9900, 7.503021
144.4721, 7.874756
144.9542, 6.906342
145.4363, 6.492249
145.9185, 6.984894
146.4006, 7.901459
146.8827, 9.004700
147.3648, 10.07852
147.8469, 10.78503
148.3290, 10.37463
148.8112, 8.743164
149.2933, 7.724304
149.7754, 8.343842
150.2575, 9.990173
150.7396, 11.04425
151.2217, 10.58649
151.7039, 9.551025
152.1860, 9.241150
152.6681, 9.576447
153.1502, 10.14252
153.6323, 10.63055
154.1144, 10.99731
154.5966, 11.14151
155.0787, 11.04996
155.5608, 10.73648
156.0429, 10.07275
156.5250, 9.031525
157.0071, 7.959167
157.4893, 7.417114
157.9714, 7.711975
158.4535, 7.739960
158.9356, 7.151733
159.4177, 6.340973
159.8998, 5.546722
160.3820, 4.863281
160.8641, 4.328430
161.3462, 4.073273
161.8283, 4.448883
162.3104, 4.626984
162.7925, 4.536835
163.2747, 4.219727
163.7568, 3.691101
164.2389, 2.967438
164.7210, 2.089050
165.2031, 1.224243
165.6852, 5.6458000E-02
166.1674, 0.7428280
166.6495, 0.8611450
167.1316, 0.1617740
167.6137, 0.4503480
168.0958, 0.6584170
168.5779, 0.5916750
169.0601, 1.017670
169.5422, 2.715820
170.0243, 4.017212
170.5064, 4.062775
170.9885, 3.082397
171.4706, 1.905701
171.9528, 0.8991700
172.4349, 0.1695860
172.9170, 0.1121830
173.3991, 0.3439940
173.8812, 0.9998170
174.3633, 1.463989
174.8455, 1.728699
175.3276, 1.948502
175.8097, 2.363144
176.2918, 2.750763
176.7739, 2.675232
177.2560, 1.706299
177.7382, 0.4872590
178.2203, 4.1625999E-02
178.7024, 0.2700650
179.1845, 0.7876430
179.6666, 1.443237
180.1487, 2.052643
180.6309, 2.315094
181.1130, 1.956314
181.5951, 1.244598
182.0772, 0.9421390
182.5593, 1.431900
183.0414, 1.695709
183.5236, 1.117828
184.0057, 0.1797490
184.4878, 0.4184880
184.9699, 0.2032780
185.4520, 0.6666870
185.9341, 1.202866
186.4163, 1.227631
186.8984, 1.079498
187.3805, 0.7030330
187.8626, 0.2165530
188.3447, 0.2091060
188.8268, 0.4717410
189.3090, 0.5710450
189.7911, 0.4991000
190.2732, 0.1197660
190.7553, 0.5361940
191.2374, 0.4031830
191.7195, 0.1083370
192.2017, 0.5957950
192.6838, 0.7410430
193.1659, 0.5347900
193.6480, 0.4154820
194.1301, 0.6708070
194.6122, 0.7296450
195.0944, 0.1004490
195.5765, 1.024796
196.0586, 1.940125
196.5407, 2.010925
197.0228, 1.183060
197.5049, 0.6936650
197.9871, 0.6599730
198.4692, 0.8085330
198.9513, 1.072632
199.4334, 1.420975
199.9155, 1.676605
200.3976, 1.628845
200.8798, 1.323227
201.3619, 1.292496
201.8440, 1.758102
202.3261, 2.375275
202.8082, 2.849106
203.2903, 3.163040
203.7725, 3.433289
204.2546, 3.781601
204.7367, 4.161560
205.2188, 4.436600
205.7009, 4.484833
206.1830, 4.447464
206.6652, 4.515091
207.1473, 4.708679
207.6294, 4.957779
208.1115, 5.296600
208.5936, 5.649826
209.0757, 5.876358
209.5579, 5.845337
210.0400, 5.692276
210.5221, 5.683334
211.0042, 5.853363
211.4863, 6.100372
211.9685, 6.398895
212.4506, 6.724564
212.9327, 7.054092
213.4148, 7.404297
213.8969, 7.733627
214.3790, 7.893997
214.8612, 7.748795
215.3433, 7.650620
215.8254, 7.746841
216.3075, 7.957458
216.7896, 8.180435
217.2717, 8.379623
217.7539, 8.542679
218.2360, 8.595230
218.7181, 8.430405
219.2002, 8.290436
219.6823, 8.128128
220.1644, 8.050018
220.6466, 8.264511
221.1287, 8.945648
221.6108, 9.951157
222.0929, 10.45154
222.5750, 9.599228
223.0571, 9.156174
223.5393, 9.775269
224.0214, 10.87485
224.5035, 11.64952
224.9856, 11.61633
225.4677, 10.93167
225.9498, 10.66551
226.4320, 11.31097
226.9141, 11.85159
227.3962, 12.00629
227.8783, 11.96799
228.3604, 12.08415
228.8425, 12.57057
229.3247, 13.32156
229.8068, 13.74052
230.2889, 13.40518
230.7710, 13.23804
231.2531, 13.68965
231.7352, 14.44693
232.2174, 14.92162
232.6995, 14.76585
233.1816, 14.15216
233.6637, 13.86295
234.1458, 14.09320
234.6279, 14.34531
235.1101, 14.50119
235.5922, 14.57375
236.0743, 14.58553
236.5564, 14.56009
237.0385, 14.54970
237.5206, 14.76169
238.0028, 15.31987
238.4849, 15.84904
238.9670, 16.29390
239.4491, 16.60867
239.9312, 16.65439
240.4133, 16.30763
240.8955, 15.78345
241.3776, 15.56483
241.8597, 15.71590
242.3418, 15.88084
242.8239, 15.97600
243.3060, 16.04662
243.7882, 16.14684
244.2703, 16.33127
244.7524, 16.49371
245.2345, 16.45110
245.7166, 16.16994
246.1987, 15.84578
246.6809, 15.52875
247.1630, 15.27078
247.6451, 15.20560
248.1272, 15.53194
248.6093, 15.85913
249.0914, 15.70453
249.5736, 15.05202
250.0557, 14.28905
250.5378, 13.54225
251.0199, 12.88077
251.5020, 12.50378
251.9841, 12.50948
252.4663, 12.69986
252.9484, 13.01471
253.4305, 13.42265
253.9126, 13.64238
254.3947, 13.22656
254.8768, 12.37605
255.3590, 12.22238
255.8411, 13.45456
256.3232, 14.62018
256.8053, 14.66071
257.2874, 13.78618
257.7695, 12.75984
258.2516, 11.91022
258.7338, 11.24503
259.2159, 10.86821
259.6980, 10.84386
260.1801, 11.06866
260.6622, 11.54620
261.1443, 12.18895
261.6265, 12.82286
262.1086, 13.51411
262.5907, 14.15094
263.0728, 14.14237
263.5549, 13.03604
264.0370, 11.96071
264.5192, 11.34100
265.0013, 11.05383
265.4834, 10.90562
265.9655, 10.82523
266.4476, 10.78381
266.9297, 10.68745
267.4119, 10.54982
267.8940, 10.30302
268.3761, 9.905426
268.8582, 9.429321
269.3403, 8.943283
269.8224, 8.479645
270.3046, 8.042908
270.7867, 7.614059
271.2688, 7.027588
271.7509, 6.779129
272.2330, 7.087433
272.7151, 7.661728
273.1973, 8.290543
273.6794, 8.898224
274.1615, 9.364059
274.6436, 9.381500
275.1257, 8.626724
275.6078, 8.052612
276.0900, 7.802597
276.5721, 7.733871
277.0542, 7.801254
277.5363, 7.975067
278.0184, 8.135452
278.5005, 8.041687
278.9827, 7.571686
279.4648, 7.152252
279.9469, 6.709122
280.4290, 6.370926
280.9111, 6.292358
281.3932, 6.475235
281.8754, 6.742493
282.3575, 6.884064
282.8396, 6.931335
283.3217, 6.733109
283.8038, 6.054901
284.2859, 5.366699
284.7681, 4.885880
285.2502, 4.637817
285.7323, 4.567535
286.2144, 4.655716
286.6965, 4.963409
287.1786, 5.071442
287.6608, 4.896896
288.1429, 4.619659
288.6250, 4.203018
289.1071, 3.732834
289.5892, 3.397644
290.0714, 3.371506
290.5535, 3.657745
291.0356, 3.795578
291.5177, 3.784683
291.9998, 3.636902
292.4819, 3.193237
292.9641, 2.621490
293.4462, 2.247940
293.9283, 2.304932
294.4104, 2.699982
294.8925, 2.792511
295.3746, 2.218155
295.8568, 1.734039
296.3389, 1.473236
296.8210, 1.353210
297.3031, 1.254105
297.7852, 1.117737
298.2673, 0.9650570
298.7495, 0.8601530
299.2316, 0.7774810
299.7137, 0.7853090
300.1958, 1.026596
300.6779, 1.289459
301.1600, 1.329193
301.6422, 1.073639
302.1243, 0.6825260
302.6064, 0.4557190
303.0885, 0.5859220
303.5706, 0.5373230
304.0527, 4.5517001E-02
304.5349, 0.4335630
305.0170, 0.4828340
305.4991, 6.8908997E-02
305.9812, 0.4695890
306.4633, 0.7162930
306.9454, 0.5811160
307.4276, 0.4499660
307.9097, 0.2525630
308.3918, 0.1188660
308.8739, 0.1986390
309.3560, 0.4384770
309.8381, 0.6167910
310.3203, 0.5230100
310.8024, 0.1354370
311.2845, 0.1504520
311.7666, 0.3006740
312.2487, 0.4025730
312.7308, 0.5251620
313.2130, 0.6247250
313.6951, 0.5898280
314.1772, 0.3411710
314.6593, 8.1894003E-02
315.1414, 0.4023900
315.6235, 0.5526120
316.1057, 0.6752930
316.5878, 0.8365170
317.0699, 0.9706270
317.5520, 1.001892
318.0341, 0.8976900
318.5162, 0.6510930
318.9984, 0.2310640
319.4805, 0.9478150
319.9626, 1.499573
320.4447, 0.9227140
320.9268, 1.1337000E-02
321.4089, 0.6305390
321.8911, 0.7471160
322.3732, 0.5748600
322.8553, 0.4177090
323.3374, 0.2973940
323.8195, 0.1435240
324.3016, 0.2593380
324.7838, 0.5243680
325.2659, 0.2666020
325.7480, 0.4421840
326.2301, 1.137222
326.7122, 1.353592
327.1943, 1.026367
327.6765, 0.7415620
328.1586, 0.4762120
328.6407, 0.2682340
329.1228, 0.1297000
329.6049, 5.9647001E-02
330.0870, 4.0848002E-02
330.5692, 5.4260001E-02
331.0513, 0.1160740
331.5334, 0.3487700
332.0155, 1.148285
332.4976, 1.672211
332.9797, 1.710419
333.4619, 1.429749
333.9440, 0.9745640
334.4261, 0.4091490
334.9082, 0.1337740
335.3904, 0.3361050
335.8725, 3.2912999E-02
336.3546, 0.4139560
336.8367, 0.8567500
337.3188, 1.257858
337.8009, 1.501495
338.2831, 1.578918
338.7652, 1.609360
339.2473, 1.771744
339.7294, 2.171646
340.2115, 2.365738
340.6936, 2.230774
341.1758, 2.026917
341.6579, 1.859558
342.1400, 1.735062
342.6221, 1.607391
343.1042, 1.413010
343.5863, 1.152344
344.0685, 1.123581
344.5506, 1.668335
345.0327, 2.108963
345.5148, 2.298080
345.9969, 2.281677
346.4790, 2.096802
346.9612, 1.737595
347.4433, 1.331223
347.9254, 1.320648
348.4075, 2.138718
348.8896, 2.645309
349.3717, 2.471909
349.8539, 2.071457
350.3360, 1.810883
350.8181, 1.809113
351.3002, 1.984650
351.7823, 2.271469
352.2644, 2.772308
352.7466, 3.048828
353.2287, 2.857513
353.7108, 2.617615
354.1929, 2.508301
354.6750, 2.552338
355.1571, 2.717224
355.6393, 3.065094
356.1214, 3.593689
356.6035, 3.718826
357.0856, 2.974915
357.5677, 2.376999
358.0498, 2.317688
358.5320, 2.640854
359.0141, 3.089066
359.4962, 3.567123
359.9783, 4.014221
360.4604, 4.270676
360.9425, 4.328583
361.4247, 4.206100
361.9068, 3.762543
362.3889, 3.215775
362.8710, 2.761276
363.3531, 2.462982
363.8352, 2.317795
364.3174, 2.361313
364.7995, 2.607330
365.2816, 2.890991
365.7637, 3.288605
366.2458, 3.617538
366.7279, 3.709885
367.2101, 3.598160
367.6922, 3.503555
368.1743, 3.644379
368.6564, 3.945526
369.1385, 4.039063
369.6206, 3.809875
370.1028, 3.571594
370.5849, 3.586914
371.0670, 3.714325
371.5491, 3.691589
372.0312, 3.335907
372.5133, 2.893448
372.9955, 2.705597
373.4776, 2.792526
373.9597, 2.943451
374.4418, 3.152740
374.9239, 3.329498
375.4060, 3.311188
375.8882, 3.015427
376.3703, 2.815628
376.8524, 3.095367
377.3345, 3.681274
377.8166, 4.011154
378.2987, 3.948883
378.7809, 3.779465
379.2630, 3.837357
379.7451, 4.086411
380.2272, 4.118042
380.7093, 3.530426
381.1914, 2.772026
381.6736, 2.473221
382.1557, 2.687958
382.6378, 3.000092
383.1199, 3.179756
383.6020, 3.233162
384.0841, 3.239639
384.5663, 3.178635
385.0484, 3.087105
385.5305, 2.877068
386.0126, 2.634087
386.4947, 2.647903
386.9768, 3.069450
387.4590, 3.750351
387.9411, 4.423485
388.4232, 5.162750
388.9053, 5.662346
389.3874, 5.776794
389.8695, 5.659935
390.3517, 5.427994
390.8338, 5.112061
391.3159, 4.831215
391.7980, 4.709282
392.2801, 4.764954
392.7622, 4.827522
393.2444, 4.836662
393.7265, 4.919662
394.2086, 5.211769
394.6907, 5.622482
395.1728, 5.929184
395.6549, 6.001183
396.1371, 5.866608
396.6192, 5.648224
397.1013, 4.958382
397.5834, 4.646492
398.0655, 5.181664
398.5476, 5.939018
399.0298, 6.190277
399.5119, 5.785446
399.9940, 5.264481
400.4761, 5.408798
400.9582, 6.540215
401.4403, 7.196350
401.9225, 7.184280
402.4046, 6.952507
402.8867, 6.486816
403.3688, 5.959373
403.8509, 5.739693
404.3330, 6.150475
404.8152, 7.015343
405.2973, 7.301483
405.7794, 6.538223
406.2615, 5.882645
406.7436, 5.514534
407.2257, 5.362617
407.7079, 5.451073
408.1900, 5.771339
408.6721, 6.046196
409.1542, 5.779068
409.6363, 4.802765
410.1184, 4.220062
410.6006, 4.435074
411.0827, 4.823181
411.5648, 5.190033
412.0469, 5.478416
412.5290, 5.576828
413.0111, 5.309975
413.4933, 4.816978
413.9754, 4.552528
414.4575, 4.568214
414.9396, 4.678658
415.4217, 4.913452
415.9038, 5.150093
416.3860, 5.220192
416.8681, 5.050323
417.3502, 4.826508
417.8323, 4.779243
418.3144, 4.872040
418.7965, 4.741302
419.2787, 4.088326
419.7608, 3.488609
420.2429, 3.767563
420.7250, 4.834351
421.2071, 5.538528
421.6892, 5.158783
422.1714, 4.345200
422.6535, 3.972488
423.1356, 4.104843
423.6177, 4.369270
424.0998, 4.565681
424.5819, 4.688667
425.0641, 4.743828
425.5462, 4.655968
426.0283, 4.597183
426.5104, 4.755173
426.9925, 4.979797
427.4746, 4.954041
427.9568, 4.558342
428.4389, 3.974747
428.9210, 3.445030
429.4031, 2.925110
429.8852, 2.635239
430.3673, 2.863571
430.8495, 3.090576
431.3316, 2.830177
431.8137, 2.187149
432.2958, 1.712708
432.7779, 1.841934
433.2600, 2.465950
433.7422, 2.699837
434.2243, 2.142021
434.7064, 1.656097
435.1885, 1.423538
435.6706, 1.277573
436.1527, 0.9737700
436.6349, 0.4610670
437.1170, 1.7639000E-02
437.5991, 5.9714999E-02
438.0812, 0.5217290
438.5633, 0.8495560
439.0454, 0.7355730
439.5276, 0.5382920
440.0097, 0.3666460
440.4918, 0.2243800
440.9739, 7.8856997E-02
441.4560, 9.4795004E-02
441.9381, 0.2756580
442.4203, 0.3972090
442.9024, 0.4297940
443.3845, 0.4779360
443.8666, 0.5779420
444.3487, 0.7027440
444.8308, 0.8798070
445.3130, 1.111191
445.7951, 1.229515
446.2772, 0.9866100
446.7593, 0.4735030
447.2414, 0.1868590
447.7235, 0.2485660
448.2057, 0.4020610
448.6878, 0.4900280
449.1699, 0.5216830
449.6520, 0.5023350
450.1341, 0.4133610
450.6162, 0.2938000
451.0984, 0.1652680
451.5805, 3.2462999E-02
452.0626, 8.1955001E-02
452.5447, 0.1807250
453.0268, 0.2385710
453.5089, 0.1545490
453.9911, 0.1427840
454.4732, 0.2489700
454.9553, 9.0240002E-02
455.4374, 0.5690920
455.9195, 0.8974000
456.4016, 1.036736
456.8838, 1.023720
457.3659, 0.8408510
457.8480, 0.5115590
458.3301, 0.4709170
458.8122, 0.9090500
459.2943, 1.359741
459.7765, 1.740326
460.2586, 2.057716
460.7407, 2.312515
461.2228, 2.509186
461.7049, 2.689743
462.1870, 2.917969
462.6692, 3.208939
463.1513, 3.502228
463.6334, 3.799873
464.1155, 4.097893
464.5976, 4.444458
465.0797, 4.789177
465.5619, 5.015633
466.0440, 5.030823
466.5261, 4.930183
467.0082, 4.958549
467.4903, 5.096672
467.9724, 5.419273
468.4546, 6.258041
468.9367, 7.076973
469.4188, 7.431625
469.9009, 7.297340
470.3830, 7.060722
470.8651, 6.908928
471.3473, 6.880707
471.8294, 7.197685
472.3115, 8.005798
472.7936, 8.740219
473.2757, 8.827599
473.7578, 8.620033
474.2400, 8.812202
474.7221, 9.753212
475.2042, 10.70564
475.6863, 11.13972
476.1684, 11.18368
476.6505, 11.19464
477.1327, 11.26934
477.6148, 11.35376
478.0969, 11.31510
478.5790, 11.09606
479.0611, 11.27611
479.5432, 12.36504
480.0254, 13.44037
480.5075, 13.77216
480.9896, 13.57197
481.4717, 13.56371
481.9538, 14.16113
482.4359, 15.13743
482.9181, 15.84642
483.4002, 16.16766
483.8823, 16.37335
484.3644, 16.29217
484.8465, 16.23248
485.3286, 16.46082
485.8108, 16.95567
486.2929, 17.48083
486.7750, 17.82412
487.2571, 18.01460
487.7392, 18.32939
488.2213, 18.85678
488.7035, 19.36431
489.1856, 19.71040
489.6677, 20.04816
490.1498, 20.58318
490.6319, 21.36588
491.1140, 22.13492
491.5962, 22.62758
492.0783, 22.86670
492.5604, 23.01211
493.0425, 23.03259
493.5246, 23.05585
494.0067, 23.12878
494.4889, 23.27378
494.9710, 23.57414
495.4531, 24.24802
495.9352, 24.86656
496.4173, 24.93188
496.8994, 24.61240
497.3816, 24.55045
497.8637, 24.99267
498.3458, 25.66845
498.8279, 26.22026
499.3100, 26.63673
499.7921, 26.92768
500.2743, 27.09773
500.7564, 27.14661
501.2385, 26.96079
501.7206, 26.63628
502.2027, 26.44910
502.6848, 26.55981
503.1670, 26.87275
503.6491, 27.13094
504.1312, 27.42594
504.6133, 27.56764
505.0954, 27.33492
505.5775, 27.09762
506.0597, 27.19078
506.5418, 27.55978
507.0239, 27.85315
507.5060, 27.76184
507.9881, 27.38699
508.4702, 27.19194
508.9524, 27.20309
509.4345, 27.33982
509.9166, 27.72073
510.3987, 28.12374
510.8808, 28.35500
511.3629, 28.38568
511.8451, 28.28310
512.3271, 28.01051
512.8093, 27.67493
513.2914, 27.57089
513.7735, 27.78147
514.2556, 27.93258
514.7377, 27.74155
515.2198, 27.28156
515.7020, 26.83910
516.1841, 26.29862
516.6662, 25.95460
517.1483, 26.19196
517.6304, 26.64508
518.1125, 26.60876
518.5947, 25.91343
519.0768, 25.15472
519.5589, 25.00302
520.0410, 25.53430
520.5231, 25.92959
521.0052, 26.25912
521.4874, 26.37543
521.9695, 26.11019
522.4516, 25.66750
522.9337, 25.36999
523.4158, 25.32810
523.8979, 25.32505
524.3801, 24.97817
524.8622, 24.12567
525.3443, 23.60297
525.8264, 23.81974
526.3085, 24.02439
526.7906, 23.77695
527.2728, 23.28629
527.7549, 23.02233
528.2370, 23.26434
528.7191, 23.62067
529.2012, 23.54219
529.6833, 23.05696
530.1655, 22.66998
530.6476, 22.59626
531.1297, 22.51407
531.6118, 21.94756
532.0939, 20.97962
532.5760, 20.23749
533.0582, 19.97095
533.5403, 19.87276
534.0224, 19.62200
534.5045, 19.30910
534.9866, 19.42067
535.4688, 20.22794
535.9509, 21.21062
536.4330, 21.36515
536.9151, 20.12898
537.3972, 19.15755
537.8793, 18.75552
538.3615, 18.42104
538.8436, 17.72157
539.3257, 16.79323
539.8078, 16.08430
540.2899, 15.86552
540.7720, 15.96664
541.2542, 16.02649
541.7363, 16.12308
542.2184, 16.01486
542.7005, 15.36070
543.1826, 14.64417
543.6647, 14.17339
544.1469, 13.94726
544.6290, 13.82354
545.1111, 13.80077
545.5932, 13.75077
546.0753, 13.47431
546.5574, 12.98276
547.0396, 12.45944
547.5217, 11.94337
548.0038, 11.51517
548.4859, 11.32391
548.9680, 11.36456
549.4501, 11.24390
549.9323, 10.75456
550.4144, 10.23250
550.8965, 9.994408
551.3786, 9.966698
551.8607, 9.851349
552.3428, 9.483421
552.8250, 8.968391
553.3071, 8.545990
553.7892, 8.246529
554.2713, 7.945076
554.7534, 7.767921
555.2355, 7.487213
555.7177, 6.803131
556.1998, 5.899567
556.6819, 5.279060
557.1640, 5.299088
557.6461, 5.661133
558.1282, 5.728249
558.6104, 5.471527
559.0925, 5.116409
559.5746, 4.545654
560.0567, 4.063370
560.5388, 4.007286
561.0209, 4.314987
561.5031, 4.518250
561.9852, 4.429230
562.4673, 4.186234
562.9494, 3.790276
563.4315, 3.297081
563.9136, 3.051102
564.3958, 3.244751
564.8779, 3.561584
565.3600, 3.422195
565.8421, 2.538994
566.3242, 2.035637
566.8063, 2.312088
567.2885, 2.581596
567.7706, 2.307190
568.2527, 1.687035
568.7348, 1.192665
569.2169, 1.055374
569.6990, 1.174194
570.1812, 1.427773
570.6633, 1.928169
571.1454, 2.099411
571.6275, 1.589775
572.1096, 1.063004
572.5917, 0.8636320
573.0739, 0.8850480
573.5560, 0.8780590
574.0381, 0.7569350
574.5202, 0.5499500
575.0023, 0.2210310
575.4844, 0.1904300
575.9666, 0.4536590
576.4487, 0.5010990
576.9308, 0.4291530
577.4129, 0.3444900
577.8950, 0.2423100
578.3771, 6.2640002E-03
578.8593, 0.5469970
579.3414, 1.040871
579.8235, 1.409187
580.3056, 1.574562
580.7877, 1.293404
581.2698, 0.5316930
581.7520, 0.2342990
582.2341, 0.3513490
582.7162, 0.2764660
583.1984, 0.6104050
583.6805, 0.3446500
584.1626, 0.1593170
584.6447, 0.3805850
585.1268, 0.7217560
585.6089, 0.7917020
586.0911, 0.4828870
586.5732, 0.1293950
587.0553, 2.7802000E-02
587.5374, 0.1349790
588.0195, 0.3264690
588.5016, 0.6230620
588.9838, 0.8471680
589.4659, 0.8775560
589.9480, 0.7499470
590.4301, 0.5733340
590.9122, 0.2176820
591.3943, 6.9968998E-02
591.8765, 0.5926900
592.3586, 1.175751
592.8407, 0.9758150
593.3228, 4.8447002E-02
593.8049, 0.7227250
594.2870, 0.6447830
594.7692, 5.2193001E-02
595.2513, 0.2600560
595.7334, 0.4740450
596.2155, 0.8944170
596.6976, 0.6842500
597.1797, 0.3117070
597.6619, 5.9199999E-03
598.1440, 0.2068330
598.6261, 0.2026820
599.1082, 0.2060470
599.5903, 0.7169270
600.0724, 0.6697690
600.5546, 6.1577000E-02
601.0367, 0.3390880
601.5188, 0.2182540
602.0009, 9.8243997E-02
602.4830, 0.1950530
602.9651, 8.1092998E-02
603.4473, 1.4137000E-02
603.9294, 5.1099999E-04
604.4115, 7.1364999E-02
604.8936, 0.4308620
605.3757, 0.8620760
605.8578, 0.8522490
606.3400, 0.2257000
606.8221, 0.5555800
607.3042, 0.8090820
607.7863, 0.4307940
608.2684, 0.2127380
608.7505, 0.3442540
609.2327, 0.4190060
609.7148, 0.2305150
610.1969, 3.9597001E-02
610.6790, 0.1530840
611.1611, 4.2647999E-02
611.6432, 0.1420970
612.1254, 0.3028720
612.6075, 0.4320530
613.0896, 0.5032960
613.5717, 0.5129620
614.0538, 0.4740300
614.5359, 0.3778230
615.0181, 0.2453380
615.5002, 0.1268010
615.9823, 4.7531001E-02
616.4644, 6.3721001E-02
616.9465, 0.3389280
617.4286, 0.7547990
617.9108, 0.8053890
618.3929, 0.5307010
618.8750, 0.1545330
619.3571, 0.2069320
619.8392, 0.4607700
620.3214, 0.2923740
620.8035, 0.5203250
621.2856, 1.072044
621.7677, 1.053421
622.2498, 0.9517060
622.7319, 1.105606
623.2141, 1.377884
623.6962, 1.372879
624.1783, 0.8058170
624.6604, 0.1549380
625.1425, 0.1268770
625.6246, 0.1071240
626.1068, 2.4025001E-02
626.5889, 0.2373120
627.0710, 0.4427800
627.5531, 0.5755690
628.0352, 0.6335980
628.5173, 0.5349960
628.9995, 4.0771000E-02
629.4816, 0.2819370
629.9637, 0.2114870
630.4458, 1.4832000E-02
630.9279, 0.1909870
631.4100, 0.2751620
631.8922, 0.3081970
632.3743, 0.3133700
632.8564, 0.2927250
633.3385, 0.2653500
633.8206, 0.2441410
634.3027, 0.1997530
634.7849, 6.9626004E-02
635.2670, 2.4216000E-02
635.7491, 6.3781999E-02
636.2312, 0.3228530
636.7133, 0.5518110
637.1954, 0.6410900
637.6776, 0.6886750
638.1597, 0.8076400
638.6418, 0.9446790
639.1239, 0.9183120
639.6060, 0.6436390
640.0881, 0.3744740
640.5703, 0.4743350
641.0524, 0.9673390
641.5345, 1.190407
642.0166, 0.8197330
642.4987, 0.5686720
642.9808, 0.6582790
643.4630, 0.8793410
643.9451, 1.024063
644.4272, 1.046730
644.9093, 1.030357
645.3914, 1.067863
645.8735, 1.118225
646.3557, 0.9941100
646.8378, 0.6747360
647.3199, 0.6537250
647.8020, 1.282166
648.2841, 2.102455
648.7662, 2.322853
649.2484, 1.817039
649.7305, 1.481644
650.2126, 1.407082
650.6947, 1.470444
651.1768, 1.687553
651.6589, 1.922974
652.1411, 2.043633
652.6232, 2.029076
653.1053, 1.977516
653.5874, 1.996834
654.0695, 2.101669
654.5516, 2.328659
655.0338, 2.761681
655.5159, 3.171982
655.9980, 3.388168
656.4801, 3.540352
656.9622, 3.788910
657.4443, 4.160988
657.9265, 4.431190
658.4086, 4.342896
658.8907, 4.226463
659.3728, 4.548645
659.8549, 5.197258
660.3370, 5.671761
660.8192, 5.742592
661.3013, 5.615494
661.7834, 5.639442
662.2655, 5.824547
662.7476, 6.080475
663.2297, 6.590996
663.7119, 6.989716
664.1940, 7.139992
664.6761, 7.155716
665.1582, 7.147545
665.6403, 7.148781
666.1224, 7.245903
666.6046, 7.500038
667.0867, 7.907677
667.5688, 8.616432
668.0509, 9.626007
668.5330, 10.20360
669.0151, 9.857063
669.4973, 9.091629
669.9794, 8.952721
670.4615, 9.852272
670.9436, 10.24628
671.4257, 9.622223
671.9078, 8.984146
672.3900, 8.882980
672.8721, 9.117271
673.3542, 9.331482
673.8363, 9.387299
674.3184, 9.289322
674.8005, 8.980560
675.2827, 8.485657
675.7648, 8.116936
676.2469, 7.923729
676.7290, 7.704117
677.2111, 7.339081
677.6932, 6.882645
678.1754, 6.505089
678.6575, 6.266441
679.1396, 5.808540
679.6217, 4.616066
680.1038, 3.553223
680.5859, 3.483833
681.0681, 4.047066
681.5502, 4.366684
682.0323, 4.096397
682.5144, 3.521935
682.9965, 2.996681
683.4786, 2.516670
683.9608, 2.289589
684.4429, 2.520035
684.9250, 2.628731
685.4071, 2.207344
685.8892, 1.637062
686.3713, 1.357964
686.8535, 1.425255
687.3356, 1.432930
687.8177, 1.147141
688.2998, 0.7879410
688.7819, 0.5660320
689.2640, 0.4601670
689.7462, 0.3642650
690.2283, 0.2351000
690.7104, 0.1244050
691.1925, 0.1123430
691.6746, 0.2115170
692.1567, 0.2972490
692.6389, 0.3718030
693.1210, 0.4295500
693.6031, 0.3945690
694.0852, 0.3902210
694.5673, 0.6295780
695.0494, 1.107819
695.5316, 1.411102
696.0137, 1.112320
696.4958, 0.6191940
696.9779, 0.5146260
697.4600, 0.7203370
697.9421, 0.8021090
698.4243, 0.5912480
698.9064, 0.3616640
699.3885, 0.4780500
699.8706, 0.9780040
700.3527, 1.333313
700.8348, 1.518631
701.3170, 1.583580
701.7991, 1.429611
702.2812, 1.229416
702.7633, 1.118393
703.2454, 1.119972
703.7275, 1.216103
704.2097, 1.421852
704.6918, 1.692825
705.1739, 2.007072
705.6560, 2.344063
706.1381, 2.535477
706.6202, 2.515900
707.1024, 2.447441
707.5845, 2.502609
708.0666, 2.677696
708.5487, 2.770882
709.0308, 2.648941
709.5129, 2.625580
709.9951, 2.831215
710.4772, 3.088638
710.9593, 3.240822
711.4414, 3.297371
711.9235, 3.370087
712.4056, 3.526787
712.8878, 3.727486
713.3699, 3.926926
713.8520, 4.120659
714.3341, 4.239082
714.8162, 4.238495
715.2983, 4.345711
715.7805, 4.850906
716.2626, 5.619926
716.7447, 5.874390
717.2268, 4.966805
717.7089, 4.507370
718.1910, 5.067085
718.6732, 5.733635
719.1553, 5.827629
719.6374, 5.476746
720.1195, 5.165085
720.6016, 5.135704
721.0837, 5.152588
721.5659, 4.802910
722.0480, 4.190292
722.5301, 3.928215
723.0122, 4.113617
723.4943, 4.429520
723.9764, 4.732773
724.4586, 5.005196
724.9407, 5.198265
725.4228, 5.286980
725.9049, 5.359085
726.3870, 5.531883
726.8691, 5.575180
727.3513, 5.205307
727.8334, 4.667450
728.3155, 4.403099
728.7976, 4.549812
729.2797, 4.802773
729.7618, 4.842079
730.2440, 4.725739
730.7261, 4.678070
731.2082, 4.712379
731.6903, 4.689529
732.1724, 4.540871
732.6545, 4.328369
733.1367, 4.113670
733.6188, 3.872307
734.1009, 3.804207
734.5830, 4.066757
735.0651, 4.311539
735.5472, 4.444435
736.0294, 4.481522
736.5115, 4.394623
736.9936, 4.216026
737.4757, 4.108017
737.9578, 4.247742
738.4399, 4.482681
738.9221, 4.456177
739.4042, 4.190712
739.8863, 4.036804
740.3684, 4.087914
740.8505, 4.247177
741.3326, 4.462212
741.8148, 4.718056
742.2969, 4.838478
742.7790, 4.651413
743.2611, 4.578491
743.7432, 4.681961
744.2253, 4.904793
744.7075, 5.271385
745.1896, 5.717232
745.6717, 6.123375
746.1538, 6.456253
746.6359, 6.630615
747.1180, 6.453094
747.6002, 6.027725
748.0823, 5.700562
748.5644, 5.507950
749.0465, 5.490616
749.5286, 5.707947
750.0107, 6.060860
750.4929, 6.316856
750.9750, 6.450783
751.4571, 6.635017
751.9392, 6.955818
752.4213, 7.126640
752.9034, 6.864922
753.3856, 6.520592
753.8677, 6.648529
754.3498, 7.354355
754.8319, 8.025162
755.3140, 8.123337
755.7961, 7.915268
756.2783, 7.833534
756.7604, 7.880447
757.2425, 7.974693
757.7246, 8.083969
758.2067, 8.121086
758.6888, 7.930023
759.1710, 7.525322
759.6531, 7.625565
760.1352, 8.824196
760.6173, 9.597855
761.0994, 9.291855
761.5815, 8.850372
762.0637, 9.179390
762.5458, 10.06439
763.0279, 10.45837
763.5100, 9.668343
763.9921, 8.750443
764.4742, 8.588974
764.9564, 8.905441
765.4385, 9.288879
765.9206, 9.632477
766.4027, 9.771515
766.8848, 9.605713
767.3669, 9.263611
767.8491, 9.012619
768.3312, 8.825600
768.8133, 8.799133
769.2954, 9.054329
769.7775, 9.308372
770.2596, 9.433685
770.7418, 9.480408
771.2239, 9.532890
771.7060, 9.615150
772.1881, 9.532898
772.6702, 9.041031
773.1523, 8.516434
773.6345, 8.293213
774.1166, 8.260246
774.5987, 8.157982
775.0808, 7.921104
775.5629, 7.709366
776.0450, 7.701042
776.5272, 7.841759
777.0093, 7.853470
777.4914, 7.705635
777.9735, 7.611153
778.4556, 7.649612
778.9377, 7.701416
779.4199, 7.670616
779.9020, 7.563347
780.3841, 7.409874
780.8662, 7.205513
781.3483, 6.962410
781.8304, 6.607101
782.3126, 6.276367
782.7947, 6.063942
783.2768, 5.974106
783.7589, 6.022522
784.2410, 6.223473
784.7231, 6.412903
785.2053, 6.362228
785.6874, 6.129448
786.1695, 5.954803
786.6516, 5.855560
787.1337, 5.693642
787.6158, 5.398758
788.0980, 5.033165
788.5801, 4.658897
789.0622, 4.242485
789.5443, 4.065247
790.0264, 4.407829
790.5085, 4.626610
790.9907, 4.497421
791.4728, 4.251221
791.9549, 4.103279
792.4370, 4.051476
792.9191, 3.956230
793.4012, 3.742462
793.8834, 3.472305
794.3655, 3.105980
794.8476, 2.752388
795.3297, 2.745705
795.8118, 3.079071
796.2939, 3.258820
796.7761, 2.941841
797.2582, 2.357483
797.7403, 2.054268
798.2224, 2.074959
798.7045, 2.207184
799.1866, 2.619919
799.6688, 2.873924
800.1509, 2.659966
800.6330, 2.231926
801.1151, 1.857025
801.5972, 1.550621
802.0793, 1.337357
802.5615, 1.280037
803.0436, 1.262360
803.5257, 1.243126
804.0078, 1.204498
804.4899, 1.124519
804.9720, 1.001030
805.4542, 0.8411560
805.9363, 0.6346280
806.4184, 0.4254070
806.9005, 0.3663710
807.3826, 0.4434430
807.8647, 0.2721480
808.3469, 0.2948380
808.8290, 0.7150880
809.3111, 0.5410390
809.7932, 1.1833000E-02
810.2753, 0.2815250
810.7574, 0.1226580
811.2396, 3.0212000E-02
811.7217, 0.2612840
812.2038, 0.3939900
812.6859, 0.2640690
813.1680, 3.4134001E-02
813.6501, 5.6953002E-02
814.1323, 2.8717000E-02
814.6144, 9.0553001E-02
815.0965, 8.0481999E-02
815.5786, 0.2733000
816.0607, 0.2074510
816.5428, 3.3179998E-02
817.0250, 0.2514880
817.5071, 0.3931350
817.9892, 0.4164350
818.4713, 0.2567830
818.9534, 8.6209998E-03
819.4355, 5.3020000E-02
819.9177, 0.4872060
820.3998, 0.7617030
820.8819, 0.7662850
821.3640, 0.6928940
821.8461, 0.6535450
822.3282, 0.6135830
822.8104, 0.4749870
823.2925, 0.1657070
823.7746, 2.7996000E-02
824.2567, 0.3094830
824.7388, 0.5867420
825.2209, 0.6018450
825.7031, 0.4644580
826.1852, 0.3654670
826.6673, 0.3307270
827.1494, 0.2074660
827.6315, 0.1905900
828.1136, 0.6677210
828.5958, 0.9054030
829.0779, 0.9265400
829.5600, 0.8073840
830.0421, 0.5581090
830.5242, 0.3303110
831.0063, 0.2299040
831.4885, 0.2401390
831.9706, 0.3172260
832.4527, 0.4900670
832.9348, 0.6563340
833.4169, 0.9026260
833.8990, 1.026363
834.3812, 0.8030470
834.8633, 0.4995000
835.3454, 0.4997410
835.8275, 0.8482360
836.3096, 1.077572
836.7917, 0.8647270
837.2739, 0.6698990
837.7560, 0.8631020
838.2381, 1.211899
838.7202, 1.385120
839.2023, 1.343761
839.6844, 1.226048
840.1666, 1.104633
840.6487, 1.026207
841.1308, 1.122616
841.6129, 1.357311
842.0950, 1.463966
842.5771, 1.408100
843.0593, 1.301334
843.5414, 1.183601
844.0235, 1.094006
844.5056, 1.118649
844.9877, 1.300854
845.4698, 1.380264
845.9520, 1.368702
846.4341, 1.233196
846.9162, 0.6992840
847.3983, 0.2446780
847.8804, 0.3787350
848.3625, 1.018764
848.8447, 1.593983
849.3268, 2.025974
849.8089, 2.195164
850.2910, 1.790836
850.7731, 1.249802
851.2552, 1.076595
851.7374, 1.255264
852.2195, 1.587063
852.7016, 1.980820
853.1837, 2.286285
853.6658, 2.199707
854.1479, 1.841663
854.6301, 1.850796
855.1122, 2.244190
855.5943, 2.522991
856.0764, 2.504284
856.5585, 2.370422
857.0406, 2.318562
857.5228, 2.335567
858.0049, 2.247955
858.4870, 1.874920
858.9691, 1.709656
859.4512, 2.008320
859.9333, 2.300125
860.4155, 2.204006
860.8976, 1.966213
861.3797, 2.140854
861.8618, 2.932598
862.3439, 3.481300
862.8260, 3.141502
863.3082, 2.694801
863.7903, 2.803421
864.2724, 3.229942
864.7545, 3.558983
865.2366, 3.682289
865.7188, 3.658512
866.2009, 3.467743
866.6830, 3.209644
867.1651, 3.111202
867.6472, 3.184700
868.1293, 3.382111
868.6115, 3.700642
869.0936, 3.886490
869.5757, 3.751007
870.0578, 3.478271
870.5399, 3.475132
871.0220, 3.842613
871.5042, 3.995625
871.9863, 3.819126
872.4684, 3.586372
872.9505, 3.234100
873.4326, 2.990707
873.9147, 3.120518
874.3969, 3.559486
874.8790, 3.934429
875.3611, 4.251236
875.8432, 4.407181
876.3253, 4.253304
876.8074, 4.043900
877.2896, 3.948662
877.7717, 3.943932
878.2538, 3.994884
878.7359, 4.101196
879.2180, 4.238144
879.7001, 4.431824
880.1823, 4.608082
880.6644, 4.615086
881.1465, 4.492363
881.6286, 4.351383
882.1107, 4.199451
882.5928, 4.041698
883.0750, 3.903038
883.5571, 3.782093
884.0392, 3.600254
884.5213, 3.297249
885.0034, 3.315605
885.4855, 3.921642
885.9677, 4.351791
886.4498, 4.111336
886.9319, 3.533440
887.4140, 3.157494
887.8961, 2.997673
888.3782, 2.943844
888.8604, 3.030788
889.3425, 3.184155
889.8246, 3.546223
890.3067, 3.842800
890.7888, 3.707146
891.2709, 3.287163
891.7531, 3.138660
892.2352, 3.568729
892.7173, 3.926212
893.1994, 3.643864
893.6815, 3.149570
894.1636, 2.905617
894.6458, 2.882454
895.1279, 2.883736
895.6100, 2.858967
896.0921, 2.989353
896.5742, 3.564167
897.0563, 4.302261
897.5385, 4.359585
898.0206, 3.796452
898.5027, 3.404762
898.9848, 3.327538
899.4669, 3.396130
899.9490, 3.545376
900.4312, 3.672485
900.9133, 3.497524
901.3954, 2.871918
901.8775, 2.649277
902.3596, 3.100521
902.8417, 3.498196
903.3239, 3.684860
903.8060, 3.665447
904.2881, 3.262943
904.7702, 2.590778
905.2523, 2.376408
905.7344, 3.191776
906.2166, 3.792091
906.6987, 3.757317
907.1808, 3.512897
907.6629, 3.329315
908.1450, 3.175663
908.6271, 2.859333
909.1093, 2.350075
909.5914, 2.084713
910.0735, 2.637657
910.5556, 3.354477
911.0377, 3.446682
911.5198, 3.169559
912.0020, 3.062370
912.4841, 3.195370
912.9662, 3.314453
913.4483, 3.253468
913.9304, 3.137829
914.4125, 3.209110
914.8947, 3.435951
915.3768, 3.574135
915.8589, 3.613827
916.3410, 3.527897
916.8231, 3.261356
917.3052, 3.047760
917.7874, 3.152805
918.2695, 3.553047
918.7516, 4.061634
919.2337, 4.942883
919.7158, 5.285671
920.1979, 4.674149
920.6801, 3.935947
921.1622, 3.424595
921.6443, 3.116997
922.1264, 3.040749
922.6085, 3.242882
923.0906, 3.336975
923.5728, 3.110504
924.0549, 2.949612
924.5370, 3.130093
925.0191, 3.346252
925.5012, 3.203281
925.9833, 2.828991
926.4655, 2.738213
926.9476, 3.173569
927.4297, 3.566246
927.9118, 3.409683
928.3939, 3.102432
928.8760, 3.093510
929.3582, 3.302158
929.8403, 3.509342
930.3224, 3.646992
930.8045, 3.743275
931.2866, 3.855297
931.7687, 3.869423
932.2509, 3.413849
932.7330, 2.655190
933.2151, 2.413445
933.6972, 2.752773
934.1793, 3.000500
934.6614, 2.794361
935.1436, 2.532070
935.6257, 2.830822
936.1078, 3.642109
936.5899, 3.928745
937.0720, 3.564682
937.5541, 3.165287
938.0363, 2.815815
938.5184, 2.544525
939.0005, 2.359898
939.4826, 2.242447
939.9647, 2.214348
940.4468, 2.300812
940.9290, 2.416180
941.4111, 2.653355
941.8932, 2.800755
942.3753, 2.682587
942.8574, 2.536663
943.3395, 2.657902
943.8217, 2.974537
944.3038, 3.090511
944.7859, 2.882263
945.2680, 2.533417
945.7501, 1.874603
946.2322, 1.325565
946.7144, 1.211388
947.1965, 1.445061
947.6786, 1.953125
948.1607, 2.648582
948.6428, 3.081036
949.1249, 2.786911
949.6071, 2.347839
950.0892, 2.343410
950.5713, 2.511848
951.0534, 2.433670
951.5355, 2.120167
952.0176, 1.834957
952.4998, 1.696613
952.9819, 1.638397
953.4640, 1.651764
953.9461, 1.657852
954.4282, 1.246540
954.9103, 0.5236360
955.3925, 0.4309310
955.8746, 1.167770
956.3567, 1.940418
956.8388, 2.221874
957.3209, 2.095181
957.8030, 1.622623
958.2852, 0.7298320
958.7673, 0.4230000
959.2494, 0.8699950
959.7315, 1.237072
960.2136, 1.241592
960.6957, 1.143845
961.1779, 1.205952
961.6600, 1.378929
962.1421, 1.392319
962.6242, 1.128063
963.1063, 0.9391100
963.5884, 0.8185040
964.0706, 0.7880170
964.5527, 0.9205250
965.0348, 1.101337
965.5169, 1.224621
965.9990, 1.284092
966.4811, 1.256157
966.9633, 1.044849
967.4454, 0.8771740
967.9275, 0.8537100
968.4096, 0.8391720
968.8917, 0.7497020
969.3738, 0.6015780
969.8560, 0.3903270
970.3381, 0.1237750
970.8202, 1.0487000E-02
971.3023, 0.2109490
971.7844, 0.4403840
972.2665, 0.4316250
972.7487, 0.3136020
973.2308, 0.1971400
973.7129, 0.1205250
974.1950, 0.1485440
974.6771, 0.3053400
975.1592, 0.4375040
975.6414, 0.3818050
976.1235, 0.2387500
976.6056, 0.1258320
977.0877, 4.6767998E-02
977.5698, 9.2350002E-03
978.0519, 1.1284000E-02
978.5341, 5.1631998E-02
979.0162, 0.1352880
979.4983, 0.1896480
979.9804, 5.3539000E-02
980.4625, 0.1992260
980.9446, 0.2656560
981.4268, 0.1565590
981.9089, 1.6232001E-02
982.3910, 0.1182670
982.8731, 0.1270640
983.3552, 0.1279370
983.8373, 0.4470560
984.3195, 0.2111020
984.8016, 0.6272470
985.2837, 0.8765370
985.7658, 0.3740160
986.2479, 6.6530001E-03
986.7300, 3.5057001E-02
987.2122, 0.3243180
987.6943, 0.7696910
988.1764, 1.280857
988.6585, 1.339489
989.1406, 0.7537000
989.6227, 0.2608410
990.1049, 0.1522480
990.5870, 0.4075470
991.0691, 0.5915370
991.5512, 0.4816440
992.0333, 0.4968640
992.5154, 2.281643
992.9976, 2.940220
993.4797, 1.359127
993.9618, 0.3549880
994.4439, 0.5710180
994.9260, 0.8256650
995.4081, 0.4059980
995.8903, 0.2250060
996.3724, 0.3907780
996.8545, 5.5500001E-02
997.3366, 0.2224810
997.8187, 0.3253400
998.3008, 0.3744430
998.7830, 0.3852080
999.2651, 0.3725550
999.7472, 0.3248940
1000.229, 0.2699580
1000.711, 0.2363740
1001.194, 0.2321280
1001.676, 0.3098260
1002.158, 0.6778910
1002.640, 0.9122200
1003.122, 0.6586880
1003.604, 0.2355270
1004.086, 0.1590770
1004.568, 0.4084700
1005.050, 0.2253000
1005.533, 0.4638710
1006.015, 0.9120560
1006.497, 0.2411730
1006.979, 0.5594830
1007.461, 0.4269490
1007.943, 0.1642150
1008.425, 0.5069730
1008.907, 0.5624390
1009.390, 0.5818600
1009.872, 0.6731030
1010.354, 0.7575530
1010.836, 0.7416840
1011.318, 0.6810680
1011.800, 0.5877530
1012.282, 0.5414470
1012.764, 0.8494870
1013.246, 1.462009
1013.729, 1.880783
1014.211, 1.841976
1014.693, 1.574337
1015.175, 1.264385
1015.657, 0.9931110
1016.139, 1.046936
1016.621, 1.370781
1017.103, 1.747005
1017.586, 2.112171
1018.068, 2.232212
1018.550, 1.938663
1019.032, 1.547283
1019.514, 1.675716
1019.996, 1.551220
1020.478, 1.526260
1020.960, 1.819939
1021.442, 1.701511
1021.925, 2.099712
1022.407, 2.441814
1022.889, 2.321075
1023.371, 1.933426
1023.853, 1.634800
1024.335, 1.425198
1024.817, 1.410034
1025.299, 1.615395
1025.781, 1.816135
1026.264, 1.959854
1026.746, 2.094315
1027.228, 2.284580
1027.710, 2.433895
1028.192, 2.255730
1028.674, 1.665913
1029.156, 1.456829
1029.638, 1.748653
1030.120, 2.032841
1030.603, 2.227570
1031.085, 2.275799
1031.567, 2.098682
1032.049, 1.770504
1032.531, 1.468597
1033.013, 1.154915
1033.495, 1.051674
1033.977, 1.256027
1034.460, 1.471535
1034.942, 1.671402
1035.424, 1.793152
1035.906, 1.742634
1036.388, 1.592026
1036.870, 1.541653
1037.352, 1.589916
1037.834, 1.755596
1038.317, 2.350006
1038.799, 2.563042
1039.281, 1.849010
1039.763, 1.067482
1040.245, 0.8560520
1040.727, 1.077698
1041.209, 1.369854
1041.691, 1.813805
1042.173, 2.047756
1042.656, 1.926315
1043.138, 1.769310
1043.620, 1.507259
1044.102, 1.393913
1044.584, 1.732449
1045.066, 2.310535
1045.548, 2.571106
1046.030, 2.367485
1046.512, 2.334866
1046.995, 2.818855
1047.477, 3.115410
1047.959, 2.890240
1048.441, 2.499062
1048.923, 2.212505
1049.405, 2.008259
1049.887, 1.721855
1050.369, 1.230576
1050.852, 1.124313
1051.334, 2.003723
1051.816, 2.626110
1052.298, 2.291771
1052.780, 1.767982
1053.262, 1.672394
1053.744, 1.883255
1054.226, 2.078384
1054.708, 2.243099
1055.191, 2.296616
1055.673, 2.168713
1056.155, 1.989643
1056.637, 1.673885
1057.119, 1.447758
1057.601, 1.552906
1058.083, 1.874855
1058.565, 2.192463
1059.047, 2.471893
1059.530, 2.620422
1060.012, 2.478489
1060.494, 2.343231
1060.976, 2.413307
1061.458, 2.476601
1061.940, 2.254993
1062.422, 1.924049
1062.904, 1.882092
1063.387, 2.210884
1063.869, 2.460957
1064.351, 2.369755
1064.833, 2.280048
1065.315, 2.423336
1065.797, 2.649017
1066.279, 2.905930
1066.761, 3.064045
1067.244, 2.772911
1067.726, 2.033882
1068.208, 1.692715
1068.690, 2.490246
1069.172, 3.219204
1069.654, 3.258633
1070.136, 3.076431
1070.618, 3.079102
1071.100, 3.146439
1071.583, 2.973255
1072.065, 2.551216
1072.547, 2.237595
1073.029, 2.224052
1073.511, 2.261860
1073.993, 2.230465
1074.475, 2.210503
1074.957, 2.243172
1075.439, 2.337986
1075.922, 2.567429
1076.404, 2.894264
1076.886, 3.066074
1077.368, 2.914173
1077.850, 2.768261
1078.332, 2.821590
1078.814, 2.893761
1079.297, 2.882038
1079.779, 2.791634
1080.261, 2.568001
1080.743, 2.276428
1081.225, 2.199764
1081.707, 2.502502
1082.189, 2.690674
1082.671, 2.431763
1083.153, 2.157539
1083.635, 2.202728
1084.118, 2.345306
1084.600, 2.313515
1085.082, 2.122540
1085.564, 1.902843
1086.046, 1.663559
1086.528, 1.546780
1087.010, 1.715378
1087.492, 1.904003
1087.975, 2.001869
1088.457, 2.015285
1088.939, 1.926914
1089.421, 1.779995
1089.903, 1.686665
1090.385, 1.682995
1090.867, 1.577904
1091.349, 1.106709
1091.832, 0.7716260
1092.314, 0.8971140
1092.796, 1.173889
1093.278, 1.403896
1093.760, 1.557312
1094.242, 1.617882
1094.724, 1.582237
1095.206, 1.505417
1095.688, 1.396645
1096.171, 1.263004
1096.653, 1.018806
1097.135, 0.8408200
1097.617, 0.9441260
1098.099, 1.141083
1098.581, 1.126186
1099.063, 0.8894730
1099.545, 0.7147520
1100.027, 0.7868270
1100.510, 0.7229160
1100.992, 0.2372400
1101.474, 0.1921960
1101.956, 0.3221360
1102.438, 0.2465670
1102.920, 8.8900002E-04
1103.402, 0.3529430
1103.884, 0.5708270
1104.367, 0.5598450
1104.849, 0.5491910
1105.331, 0.6250800
1105.813, 0.6490060
1106.295, 0.5549050
1106.777, 0.3941570
1107.259, 0.1745340
1107.741, 6.4892001E-02
1108.224, 0.2247580
1108.706, 0.2950550
1109.188, 0.2903100
1109.670, 0.1729280
1110.152, 3.7895001E-02
1110.634, 6.5009996E-02
1111.116, 0.2101900
1111.598, 0.5596730
1112.080, 0.9441680
1112.563, 0.9854010
1113.045, 0.6193200
1113.527, 0.4592170
1114.009, 0.5898480
1114.491, 0.7982060
1114.973, 1.312695
1115.455, 1.563072
1115.937, 1.075752
1116.419, 0.3549390
1116.902, 5.1201001E-02
1117.384, 0.1325190
1117.866, 0.2082290
1118.348, 0.3323290
1118.830, 0.3236690
1119.312, 2.9587001E-02
1119.794, 0.1374630
1120.276, 6.4819001E-02
1120.759, 0.2892910
1121.241, 0.1464840
1121.723, 0.2038420
1122.205, 0.1685520
1122.687, 0.3691520
1123.169, 0.7766380
1123.651, 1.099392
1124.133, 1.095547
1124.615, 0.5786930
1125.098, 0.1075360
1125.580, 9.8826997E-02
1126.062, 0.3138120
1126.544, 0.2443080
1127.026, 9.4650000E-02
1127.508, 0.1212310
1127.990, 1.010994
1128.472, 1.365723
1128.954, 0.9260830
1129.437, 0.5306430
1129.919, 0.5982060
1130.401, 0.8407820
1130.883, 0.9183200
1131.365, 0.8510060
1131.847, 0.6404690
1132.329, 0.3096770
1132.811, 0.4301300
1133.294, 1.027100
1133.776, 1.350300
1134.258, 1.147522
1134.740, 0.7758480
1135.222, 0.5121990
1135.704, 0.3537600
1136.186, 0.3476560
1136.668, 0.4410930
1137.151, 0.4195820
1137.633, 0.2918470
1138.115, 6.7551002E-02
1138.597, 0.2098770
1139.079, 0.2424010
1139.561, 0.1423000
1140.043, 0.5763170
1140.525, 0.5455020
1141.007, 0.7604220
1141.490, 0.4446530
1141.972, 0.7565570
1142.454, 0.8171880
1142.936, 0.6710660
1143.418, 0.7245180
1143.900, 1.081295
1144.382, 1.283524
1144.864, 0.8457910
1145.346, 0.3774380
1145.829, 0.7401430
1146.311, 1.293758
1146.793, 1.097408
1147.275, 0.4966160
1147.757, 0.2654150
1148.239, 0.4840930
1148.721, 0.7617260
1149.203, 0.9634480
1149.686, 1.014240
1150.168, 0.7347950
1150.650, 0.4343910
1151.132, 0.2890400
1151.614, 0.2885400
1152.096, 0.4870760
1152.578, 0.7921100
1153.060, 0.9722710
1153.542, 0.9715580
1154.025, 1.084995
1154.507, 1.646809
1154.989, 2.012806
1155.471, 1.891033
1155.953, 1.575645
1156.435, 1.096386
1156.917, 0.6401790
1157.399, 0.4761770
1157.881, 0.5886080
1158.364, 0.6743550
1158.846, 0.6494710
1159.328, 0.6787610
1159.810, 0.8399160
1160.292, 1.009613
1160.774, 1.249168
1161.256, 1.385525
1161.738, 1.216381
1162.221, 0.8693920
1162.703, 0.6352010
1163.185, 0.5050810
1163.667, 0.5972210
1164.149, 1.070232
1164.631, 1.283592
1165.113, 1.073677
1165.595, 0.7674870
1166.078, 0.4906880
1166.560, 0.3114510
1167.042, 0.3372230
1167.524, 0.5147630
1168.006, 0.5521010
1168.488, 0.4405860
1168.970, 0.3287280
1169.452, 0.2192340
1169.934, 0.2597080
1170.417, 0.4966320
1170.899, 0.7268330
1171.381, 0.7938230
1171.863, 0.8220980
1172.345, 1.116539
1172.827, 1.523533
1173.309, 1.375271
1173.791, 1.436653
1174.273, 1.369869
1174.756, 0.9677960
1175.238, 0.9329800
1175.720, 0.3722500
1176.202, 7.1540996E-02
1176.684, 0.1717870
1177.166, 0.6765560
1177.648, 1.082619
1178.130, 1.379135
1178.613, 1.478069
1179.095, 1.426529
1179.577, 1.325001
1180.059, 1.225796
1180.541, 1.113014
1181.023, 0.9678460
1181.505, 0.8851360
1181.987, 0.9732700
1182.469, 1.081730
1182.952, 1.105049
1183.434, 1.095551
1183.916, 1.113403
1184.398, 1.133175
1184.880, 1.107910
1185.362, 1.053989
1185.844, 0.9273830
1186.326, 0.5049900
1186.808, 0.3237040
1187.291, 0.7215960
1187.773, 1.074665
1188.255, 1.059608
1188.737, 0.9198380
1189.219, 0.9123990
1189.701, 0.9648670
1190.183, 0.8176840
1190.665, 0.3710480
1191.148, 0.2911950
1191.630, 0.7342190
1192.112, 1.120304
1192.594, 1.407593
1193.076, 1.426418
1193.558, 1.002430
1194.040, 0.5267870
1194.522, 0.5325890
1195.005, 0.8701360
1195.487, 0.8899770
1195.969, 0.6041980
1196.451, 0.4009020
1196.933, 0.3177830
1197.415, 0.4261970
1197.897, 0.7113570
1198.379, 0.9507450
1198.861, 1.008354
1199.344, 0.9487880
1199.826, 0.8549800
1200.308, 0.7194440
1200.790, 0.4430160
1201.272, 0.1491550
1201.754, 0.1305920
1202.236, 0.3520360
1202.718, 0.6420940
1203.200, 0.9334490
1203.683, 1.191681
1204.165, 1.439373
1204.647, 1.516247
1205.129, 1.072437
1205.611, 0.6450690
1206.093, 0.8436970
1206.575, 1.226440
1207.057, 1.221710
1207.540, 0.9048120
1208.022, 0.6379010
1208.504, 0.4952890
1208.986, 0.3766860
1209.468, 0.1533700
1209.950, 0.1137470
1210.432, 0.5706410
1210.914, 0.9252170
1211.396, 0.6696820
1211.879, 0.3407440
1212.361, 0.5938110
1212.843, 1.226143
1213.325, 1.390839
1213.807, 0.9517140
1214.289, 0.6922230
1214.771, 0.6220970
1215.253, 0.7344780
1215.735, 1.102226
1216.218, 1.262157
1216.700, 0.9218790
1217.182, 0.4729730
1217.664, 0.4092480
1218.146, 0.6109620
1218.628, 0.6379620
1219.110, 0.5773160
1219.592, 1.083565
1220.075, 1.985378
1220.557, 2.134827
1221.039, 1.389389
1221.521, 0.7282680
1222.003, 0.6940770
1222.485, 0.8988230
1222.967, 1.049679
1223.449, 1.135719
1223.932, 1.079144
1224.414, 0.9927940
1224.896, 1.061939
1225.378, 1.211044
1225.860, 1.214592
1226.342, 1.073349
1226.824, 1.082878
1227.306, 1.480350
1227.788, 1.627510
1228.271, 0.9652140
1228.753, 0.4587970
1229.235, 0.7168770
1229.717, 1.084316
1230.199, 1.002205
1230.681, 0.7300680
1231.163, 0.8742180
1231.645, 1.415714
1232.127, 1.434624
1232.610, 0.6969990
1233.092, 0.1321830
1233.574, 0.2470130
1234.056, 0.3020100
1234.538, 8.9615002E-02
1235.020, 0.4106370
1235.502, 0.2491910
1235.984, 5.6244001E-02
1236.467, 0.1648600
1236.949, 1.2234000E-02
1237.431, 0.1157490
1237.913, 6.0261000E-02
1238.395, 0.2390250
1238.877, 0.2185780
1239.359, 4.2266998E-02
1239.841, 0.4754830
1240.323, 0.8796160
1240.806, 1.142799
1241.288, 1.208534
1241.770, 0.8544010
1242.252, 0.4468960
1242.734, 0.3374940
1243.216, 0.4179950
1243.698, 0.6378060
1244.180, 0.8902930
1244.662, 0.9834140
1245.145, 0.8958930
1245.627, 0.8139340
1246.109, 0.7402230
1246.591, 0.7541010
1247.073, 1.023186
1247.555, 1.170639
1248.037, 0.9277040
1248.519, 0.7103540
1249.002, 0.8843770
1249.484, 1.202038
1249.966, 1.186798
1250.448, 0.8652650
1250.930, 0.7118530
1251.412, 0.7404750
1251.894, 0.8001480
1252.376, 0.8839800
1252.859, 0.8485450
1253.341, 0.6515460
1253.823, 0.4124260
1254.305, 0.2010610
1254.787, 0.1102100
1255.269, 0.3622060
1255.751, 0.7498780
1256.233, 0.8985790
1256.715, 0.8929790
1257.198, 0.7585530
1257.680, 0.6529690
1258.162, 1.045105
1258.644, 1.892258
1259.126, 2.234703
1259.608, 1.399654
1260.090, 0.6624640
1260.572, 0.7960850
1261.054, 0.9337770
1261.537, 0.5479160
1262.019, 0.1545790
1262.501, 0.2595020
1262.983, 0.5991360
1263.465, 0.7470890
1263.947, 0.7199590
1264.429, 0.6692470
1264.911, 0.5509070
1265.394, 0.6021390
1265.876, 0.9196210
1266.358, 0.9007800
1266.840, 0.3372960
1267.322, 6.9499998E-03
1267.804, 0.3134610
1268.286, 0.8215680
1268.768, 0.9588580
1269.250, 0.8273660
1269.733, 0.4513970
1270.215, 3.6720000E-02
1270.697, 0.2892760
1271.179, 0.9040370
1271.661, 0.9117050
1272.143, 0.3482630
1272.625, 8.1211001E-02
1273.107, 0.4363100
1273.589, 0.7818640
1274.072, 0.7511670
1274.554, 0.6020810
1275.036, 0.2998890
1275.518, 0.1061740
1276.000, 0.2691420
1276.482, 0.5582810
1276.964, 0.7595940
1277.446, 0.8658600
1277.929, 0.8845440
1278.411, 0.8127250
1278.893, 0.6866990
1279.375, 0.4904060
1279.857, 0.2932240
1280.339, 8.3426997E-02
1280.821, 9.5670000E-03
1281.303, 6.9877997E-02
1281.786, 7.1346000E-02
1282.268, 0.0000000E+00
##END=



