##NAMES=Bianchite
##RRUFFID=R070020
##IDEAL CHEMISTRY=Zn^2+^S^6+^O_4_&#183;6H_2_O
##LOCALITY=Equatorial part of Midatlantic Ridge, 5000 m depth, Atlantic Ocean
##OWNER=RRUFF
##SOURCE=Michael Scott
##DESCRIPTION=White efflorescence associated with wurtzite
##STATUS=The identification of this mineral is not yet confirmed.
##URL=rruff.info/R070020
246.1780, 0.0000000E+00
246.6601, 57.81250
247.1422, 103.1328
247.6243, 134.5703
248.1064, 159.6797
248.5885, 81.23438
249.0707, 8.304688
249.5528, 23.42969
250.0349, 0.1875000
250.5170, 36.99219
250.9991, 49.82031
251.4812, 45.43750
251.9634, 75.90625
252.4455, 185.3828
252.9276, 305.8906
253.4097, 329.9688
253.8918, 240.3672
254.3739, 163.3359
254.8561, 182.1250
255.3382, 258.9531
255.8203, 295.2422
256.3024, 257.5547
256.7845, 199.5000
257.2667, 192.9609
257.7488, 233.6562
258.2309, 262.2422
258.7130, 226.8984
259.1951, 182.0547
259.6772, 220.2500
260.1594, 361.2500
260.6415, 515.0156
261.1236, 607.3672
261.6057, 639.4688
262.0878, 635.1250
262.5699, 546.8828
263.0521, 456.8594
263.5342, 450.9688
264.0163, 526.1328
264.4984, 596.0000
264.9805, 591.9688
265.4626, 534.5156
265.9448, 542.7812
266.4269, 703.2422
266.9090, 842.4531
267.3911, 847.2891
267.8732, 754.5078
268.3553, 673.3672
268.8375, 653.1719
269.3196, 682.5938
269.8017, 738.5156
270.2838, 877.6719
270.7659, 946.5938
271.2480, 843.3516
271.7302, 661.9453
272.2123, 547.6016
272.6944, 548.6406
273.1765, 615.7578
273.6586, 673.9375
274.1407, 726.5547
274.6229, 758.5000
275.1050, 765.4531
275.5871, 752.7344
276.0692, 710.9375
276.5513, 644.0234
277.0334, 590.1875
277.5156, 595.9297
277.9977, 679.5703
278.4798, 718.2109
278.9619, 666.1250
279.4440, 616.1562
279.9261, 613.1094
280.4083, 655.3203
280.8904, 726.1719
281.3725, 818.8750
281.8546, 929.2969
282.3367, 1001.570
282.8188, 1008.883
283.3010, 1010.992
283.7831, 1033.641
284.2652, 1057.008
284.7473, 1042.492
285.2294, 970.2422
285.7115, 867.5547
286.1937, 812.8203
286.6758, 852.3359
287.1579, 875.1562
287.6400, 867.7969
288.1221, 846.8203
288.6042, 819.2891
289.0864, 789.7969
289.5685, 770.6562
290.0506, 788.2969
290.5327, 874.0156
291.0148, 903.8672
291.4969, 836.3750
291.9791, 752.7031
292.4612, 685.1094
292.9433, 637.8047
293.4254, 603.2656
293.9075, 577.2500
294.3896, 559.7891
294.8718, 541.3594
295.3539, 521.3672
295.8360, 501.3906
296.3181, 484.5938
296.8002, 469.9688
297.2823, 453.2812
297.7645, 428.4297
298.2466, 406.6250
298.7287, 424.9766
299.2108, 511.9688
299.6929, 568.0312
300.1750, 511.6094
300.6572, 439.3047
301.1393, 451.6172
301.6214, 580.9453
302.1035, 729.1406
302.5856, 776.9531
303.0677, 720.2656
303.5499, 671.3203
304.0320, 631.6484
304.5141, 625.6719
304.9962, 700.4844
305.4783, 845.1953
305.9604, 936.0703
306.4426, 853.5938
306.9247, 656.9844
307.4068, 529.5234
307.8889, 503.5625
308.3710, 517.6953
308.8531, 548.4531
309.3353, 585.5156
309.8174, 597.9609
310.2995, 548.6094
310.7816, 488.3047
311.2637, 475.1094
311.7458, 508.3047
312.2280, 553.5469
312.7101, 607.2344
313.1922, 652.2734
313.6743, 649.5234
314.1564, 571.5781
314.6385, 494.7109
315.1207, 471.6250
315.6028, 476.4531
316.0849, 439.6641
316.5670, 329.7734
317.0491, 204.3516
317.5313, 163.3438
318.0134, 234.3984
318.4955, 273.8203
318.9776, 214.6094
319.4597, 146.0703
319.9418, 174.2266
320.4240, 301.4375
320.9061, 419.0469
321.3882, 417.9844
321.8703, 287.1094
322.3524, 238.9453
322.8345, 357.0469
323.3167, 457.7422
323.7988, 446.9922
324.2809, 363.6562
324.7630, 287.6562
325.2451, 262.4062
325.7272, 281.5938
326.2094, 324.9609
326.6915, 449.6641
327.1736, 523.0000
327.6557, 503.2344
328.1378, 448.9219
328.6199, 404.8750
329.1021, 384.8984
329.5842, 385.7422
330.0663, 409.6797
330.5484, 471.2344
331.0305, 502.4219
331.5126, 471.0000
331.9948, 438.8281
332.4769, 443.2188
332.9590, 470.2812
333.4411, 476.1328
333.9232, 421.9922
334.4053, 324.2891
334.8875, 262.9141
335.3696, 246.4609
335.8517, 256.8281
336.3338, 320.6797
336.8159, 391.6016
337.2980, 414.5156
337.7802, 369.1094
338.2623, 285.1719
338.7444, 181.3438
339.2265, 54.46875
339.7086, 25.80469
340.1907, 22.05469
340.6729, 17.64844
341.1550, 55.93750
341.6371, 91.66406
342.1192, 110.4922
342.6013, 96.78906
343.0834, 61.99219
343.5656, 20.37500
344.0477, 34.16406
344.5298, 57.87500
345.0119, 9.343750
345.4940, 140.2734
345.9761, 229.4062
346.4583, 252.0000
346.9404, 240.3438
347.4225, 188.1875
347.9046, 113.2500
348.3867, 93.21875
348.8688, 177.4609
349.3510, 314.1406
349.8331, 367.5703
350.3152, 287.1406
350.7973, 242.4453
351.2794, 292.6953
351.7615, 377.5391
352.2437, 431.3203
352.7258, 441.6172
353.2079, 439.7109
353.6900, 464.6797
354.1721, 531.2891
354.6542, 528.1562
355.1364, 392.3594
355.6185, 264.4688
356.1006, 201.1875
356.5827, 189.9062
357.0648, 200.9844
357.5469, 220.0391
358.0291, 238.8672
358.5112, 227.6641
358.9933, 157.5312
359.4754, 105.6406
359.9575, 66.67188
360.4396, 55.34375
360.9218, 108.1719
361.4039, 221.7188
361.8860, 319.9141
362.3681, 298.8359
362.8502, 150.0234
363.3323, 51.84375
363.8145, 43.98438
364.2966, 48.34375
364.7787, 7.843750
365.2608, 51.17188
365.7430, 64.62500
366.2251, 24.99219
366.7072, 152.2109
367.1893, 198.2969
367.6714, 153.4219
368.1535, 112.7969
368.6357, 115.6016
369.1178, 144.9688
369.5999, 179.3594
370.0820, 222.7031
370.5641, 251.9297
371.0462, 240.9844
371.5284, 208.3438
372.0105, 200.0000
372.4926, 229.4141
372.9747, 253.7812
373.4568, 211.7266
373.9389, 99.56250
374.4211, 71.13281
374.9032, 231.5625
375.3853, 389.3828
375.8674, 411.0078
376.3495, 326.2578
376.8316, 239.9922
377.3138, 207.3125
377.7959, 216.0312
378.2780, 227.8125
378.7601, 261.7344
379.2422, 273.8125
379.7243, 262.7422
380.2065, 229.6172
380.6886, 152.3047
381.1707, 39.81250
381.6528, 43.57812
382.1349, 11.71094
382.6170, 154.3438
383.0992, 222.0000
383.5813, 72.43750
384.0634, 50.67969
384.5455, 65.14844
385.0276, 13.64844
385.5097, 38.22656
385.9919, 65.58594
386.4740, 70.88281
386.9561, 47.55469
387.4382, 15.00781
387.9203, 50.33594
388.4024, 26.89844
388.8846, 18.94531
389.3667, 73.13281
389.8488, 132.3828
390.3309, 158.6250
390.8130, 83.35938
391.2951, 35.94531
391.7773, 54.60938
392.2594, 54.21094
392.7415, 169.0703
393.2236, 202.6172
393.7057, 173.6094
394.1878, 161.0781
394.6700, 172.3047
395.1521, 195.7188
395.6342, 252.8125
396.1163, 317.3125
396.5984, 312.3750
397.0805, 199.2031
397.5627, 60.65625
398.0448, 23.00781
398.5269, 134.2734
399.0090, 222.0938
399.4911, 305.4453
399.9732, 350.7500
400.4554, 312.8359
400.9375, 215.0469
401.4196, 125.8125
401.9017, 90.49219
402.3838, 104.7188
402.8659, 135.6094
403.3481, 199.0625
403.8302, 245.5859
404.3123, 249.0547
404.7944, 244.7812
405.2765, 276.9375
405.7586, 349.8125
406.2408, 411.5625
406.7229, 385.7266
407.2050, 279.4375
407.6871, 248.8438
408.1692, 351.3203
408.6513, 443.9297
409.1335, 426.3047
409.6156, 344.1641
410.0977, 283.0234
410.5798, 262.4531
411.0619, 282.1328
411.5440, 363.4609
412.0262, 495.6562
412.5083, 601.9922
412.9904, 649.7031
413.4725, 671.2656
413.9546, 723.4297
414.4367, 812.9453
414.9189, 877.3516
415.4010, 883.6016
415.8831, 874.3516
416.3652, 889.9141
416.8473, 929.7266
417.3294, 967.1094
417.8116, 981.5625
418.2937, 979.3125
418.7758, 999.3281
419.2579, 1072.281
419.7400, 1130.023
420.2221, 1149.281
420.7043, 1159.359
421.1864, 1198.000
421.6685, 1269.109
422.1506, 1333.477
422.6327, 1337.836
423.1148, 1274.641
423.5970, 1247.938
424.0791, 1317.914
424.5612, 1349.812
425.0433, 1279.898
425.5254, 1143.672
426.0075, 991.2891
426.4897, 829.6484
426.9718, 688.8906
427.4539, 625.0625
427.9360, 633.8047
428.4181, 607.2031
428.9002, 497.5703
429.3824, 369.7500
429.8645, 297.4688
430.3466, 276.9375
430.8287, 268.6641
431.3108, 282.8125
431.7929, 290.2969
432.2751, 252.3047
432.7572, 176.1719
433.2393, 106.2266
433.7214, 64.48438
434.2035, 51.25000
434.6856, 68.87500
435.1678, 168.5000
435.6499, 228.0234
436.1320, 217.7734
436.6141, 180.8047
437.0962, 145.4062
437.5783, 119.5469
438.0605, 107.7734
438.5426, 118.3672
439.0247, 148.9297
439.5068, 156.2812
439.9889, 136.3125
440.4710, 100.0156
440.9532, 23.57031
441.4353, 52.71094
441.9174, 82.65625
442.3995, 51.53125
442.8816, 6.960938
443.3637, 71.20312
443.8459, 136.2109
444.3280, 165.5938
444.8101, 144.9609
445.2922, 109.0469
445.7743, 84.29688
446.2564, 68.04688
446.7386, 48.10938
447.2207, 6.773438
447.7028, 25.25781
448.1849, 21.17188
448.6670, 8.140625
449.1491, 34.40625
449.6313, 47.96094
450.1134, 56.53906
450.5955, 67.59375
451.0776, 80.83594
451.5597, 98.06250
452.0418, 151.6484
452.5240, 178.9844
453.0061, 104.0000
453.4882, 22.68750
453.9703, 77.00000
454.4524, 17.71875
454.9345, 193.9453
455.4167, 273.3047
455.8988, 215.6172
456.3809, 174.2812
456.8630, 203.0547
457.3451, 232.9844
457.8272, 222.8906
458.3094, 173.5156
458.7915, 110.2344
459.2736, 29.80469
459.7557, 48.75781
460.2378, 86.90625
460.7199, 83.13281
461.2021, 58.98438
461.6842, 17.92969
462.1663, 32.82031
462.6484, 83.81250
463.1305, 149.0547
463.6126, 174.6719
464.0948, 102.5781
464.5769, 10.84375
465.0590, 21.20312
465.5411, 14.67188
466.0232, 95.28906
466.5053, 212.4688
466.9875, 355.1406
467.4696, 428.8672
467.9517, 320.6562
468.4338, 287.1094
468.9159, 440.0000
469.3980, 627.6094
469.8802, 697.1953
470.3623, 630.1719
470.8444, 530.9375
471.3265, 506.5234
471.8086, 547.2109
472.2907, 557.1172
472.7729, 527.4297
473.2550, 485.8828
473.7371, 437.0625
474.2192, 387.4375
474.7013, 349.0625
475.1834, 329.7812
475.6656, 305.0078
476.1477, 233.4922
476.6298, 150.8516
477.1119, 146.7422
477.5940, 239.4453
478.0761, 330.7031
478.5583, 327.3125
479.0404, 230.5000
479.5225, 173.9688
480.0046, 189.0078
480.4867, 200.5547
480.9688, 168.1953
481.4510, 134.2500
481.9331, 164.7578
482.4152, 272.4219
482.8973, 394.1094
483.3794, 443.0312
483.8615, 411.4297
484.3437, 430.2422
484.8258, 580.5078
485.3079, 668.4453
485.7900, 546.7109
486.2721, 338.3594
486.7542, 242.7656
487.2364, 334.2500
487.7185, 472.4922
488.2006, 538.4219
488.6827, 547.7109
489.1649, 554.0469
489.6470, 564.7109
490.1291, 586.3047
490.6112, 631.0234
491.0933, 695.3672
491.5754, 733.8672
492.0576, 724.6328
492.5397, 718.1328
493.0218, 736.9453
493.5039, 762.8281
493.9860, 771.1641
494.4681, 756.6016
494.9503, 741.4297
495.4324, 756.3516
495.9145, 808.4766
496.3966, 794.9844
496.8787, 634.7578
497.3608, 506.1172
497.8430, 475.6641
498.3251, 504.5781
498.8072, 550.7188
499.2893, 605.5625
499.7714, 635.6641
500.2535, 565.9688
500.7357, 424.5078
501.2178, 365.7656
501.6999, 428.5781
502.1820, 522.7031
502.6641, 587.2031
503.1462, 623.9844
503.6284, 641.5469
504.1105, 607.2266
504.5926, 591.1094
505.0747, 655.1094
505.5568, 739.3203
506.0389, 753.2422
506.5211, 679.6797
507.0032, 575.6953
507.4853, 500.2969
507.9674, 453.3203
508.4495, 441.0703
508.9316, 493.6562
509.4138, 544.2578
509.8959, 595.8516
510.3780, 627.5859
510.8601, 605.0469
511.3422, 518.1094
511.8243, 425.2188
512.3065, 392.5234
512.7886, 401.1719
513.2707, 389.0000
513.7528, 343.5000
514.2349, 318.5703
514.7170, 369.0938
515.1992, 462.9531
515.6813, 489.6562
516.1634, 413.3594
516.6455, 330.5703
517.1276, 251.6641
517.6097, 188.0234
518.0919, 173.5703
518.5740, 204.5547
519.0561, 225.1016
519.5382, 181.5859
520.0203, 87.35156
520.5024, 51.08594
520.9846, 116.0547
521.4667, 167.4922
521.9488, 176.1406
522.4309, 169.5234
522.9130, 163.4531
523.3951, 165.4688
523.8773, 184.2266
524.3594, 257.1328
524.8415, 340.8516
525.3236, 330.1797
525.8057, 220.4453
526.2878, 117.5391
526.7700, 69.46094
527.2521, 58.79688
527.7342, 53.53125
528.2163, 56.76562
528.6984, 54.99219
529.1805, 39.72656
529.6627, 24.38281
530.1448, 15.25781
530.6269, 14.62500
531.1090, 24.85156
531.5911, 47.28125
532.0732, 81.39062
532.5554, 131.3516
533.0375, 211.3125
533.5196, 261.1797
534.0017, 245.7578
534.4838, 225.1328
534.9659, 225.1250
535.4481, 246.7266
535.9302, 294.8828
536.4123, 421.7891
536.8944, 512.7422
537.3765, 396.2578
537.8586, 132.2578
538.3408, 52.27344
538.8229, 89.77344
539.3050, 44.82812
539.7871, 18.87500
540.2692, 104.7578
540.7513, 172.9375
541.2335, 257.4766
541.7156, 287.0781
542.1977, 163.1094
542.6798, 2.242188
543.1619, 23.46094
543.6440, 126.3359
544.1262, 310.5469
544.6083, 360.6016
545.0904, 283.5547
545.5725, 229.6250
546.0546, 209.9219
546.5367, 186.7812
547.0189, 128.3359
547.5010, 60.82812
547.9831, 25.28125
548.4652, 34.03906
548.9473, 39.22656
549.4294, 2.859375
549.9116, 39.84375
550.3937, 34.37500
550.8758, 15.72656
551.3579, 51.02344
551.8400, 28.13281
552.3221, 27.96094
552.8043, 28.97656
553.2864, 81.96875
553.7685, 147.1250
554.2506, 131.3594
554.7327, 98.35156
555.2148, 92.09375
555.6970, 102.7969
556.1791, 88.32812
556.6612, 11.66406
557.1433, 77.57031
557.6254, 99.96875
558.1075, 61.19531
558.5897, 28.15625
559.0718, 28.31250
559.5539, 8.546875
560.0360, 114.8125
560.5181, 346.4922
561.0002, 456.1484
561.4824, 337.9453
561.9645, 212.1641
562.4466, 159.3047
562.9287, 154.0234
563.4108, 167.9219
563.8929, 189.2969
564.3751, 202.1406
564.8572, 176.8359
565.3393, 119.6719
565.8214, 138.8984
566.3035, 280.5547
566.7856, 398.5625
567.2678, 446.9688
567.7499, 436.5000
568.2320, 350.4453
568.7141, 178.5703
569.1962, 48.38281
569.6783, 50.52344
570.1605, 102.1250
570.6426, 104.7656
571.1247, 64.98438
571.6068, 41.32812
572.0889, 63.72656
572.5710, 117.4062
573.0532, 176.4453
573.5353, 259.8984
574.0174, 299.0234
574.4995, 267.8672
574.9816, 221.0625
575.4637, 166.9688
575.9459, 116.5859
576.4280, 85.47656
576.9101, 79.96875
577.3922, 92.97656
577.8743, 130.5469
578.3564, 181.3047
578.8386, 197.0859
579.3207, 164.4297
579.8028, 136.6406
580.2849, 149.7266
580.7670, 199.6172
581.2491, 266.7266
581.7313, 409.7188
582.2134, 486.9453
582.6955, 433.4141
583.1776, 341.5859
583.6597, 272.8516
584.1418, 238.6016
584.6240, 239.3047
585.1061, 284.5156
585.5882, 347.5000
586.0703, 360.4609
586.5524, 317.7734
587.0345, 276.5781
587.5167, 245.0547
587.9988, 223.8828
588.4809, 211.8750
588.9630, 210.2812
589.4451, 227.3750
589.9272, 286.4531
590.4094, 340.4609
590.8915, 380.8047
591.3736, 394.5547
591.8557, 340.7656
592.3378, 219.3438
592.8199, 115.9844
593.3021, 118.0703
593.7842, 212.9922
594.2663, 283.9453
594.7484, 330.5938
595.2305, 354.6797
595.7126, 330.9297
596.1948, 296.9766
596.6769, 299.0312
597.1590, 338.7891
597.6411, 362.0312
598.1232, 318.2109
598.6053, 263.9062
599.0875, 266.8906
599.5696, 308.7578
600.0517, 323.7109
600.5338, 285.8203
601.0159, 236.5469
601.4980, 237.0156
601.9802, 291.5859
602.4623, 311.7422
602.9444, 237.0781
603.4265, 202.2109
603.9086, 269.3359
604.3907, 371.6562
604.8729, 445.9844
605.3550, 478.9609
605.8371, 477.5234
606.3192, 435.1406
606.8013, 367.8828
607.2834, 287.4766
607.7656, 198.0078
608.2477, 149.1328
608.7298, 164.6172
609.2119, 227.3281
609.6940, 318.4219
610.1761, 452.8828
610.6583, 551.0234
611.1404, 623.4453
611.6225, 656.5547
612.1046, 602.3047
612.5867, 523.9375
613.0688, 519.6562
613.5510, 614.3359
614.0331, 712.5859
614.5152, 713.4219
614.9973, 644.3828
615.4794, 582.1875
615.9615, 530.3672
616.4437, 547.7578
616.9258, 686.8594
617.4079, 876.8672
617.8900, 979.9688
618.3721, 974.6016
618.8542, 935.8828
619.3364, 799.7656
619.8185, 697.7031
620.3006, 719.8281
620.7827, 819.0156
621.2648, 919.0859
621.7469, 992.2422
622.2291, 1037.453
622.7112, 1048.227
623.1933, 1029.672
623.6754, 1013.000
624.1575, 1005.266
624.6396, 985.2734
625.1218, 930.5312
625.6039, 863.9766
626.0860, 835.8125
626.5681, 854.6250
627.0502, 874.4766
627.5323, 889.7344
628.0145, 905.6484
628.4966, 936.1875
628.9787, 966.7266
629.4608, 972.7422
629.9429, 944.7734
630.4250, 884.3359
630.9072, 766.3203
631.3893, 599.4375
631.8714, 534.8281
632.3535, 617.2422
632.8356, 660.1172
633.3177, 523.0469
633.7999, 315.3594
634.2820, 267.0469
634.7641, 433.0781
635.2462, 535.6797
635.7283, 460.6641
636.2104, 361.2734
636.6926, 353.2422
637.1747, 402.7734
637.6568, 421.6328
638.1389, 374.7578
638.6210, 309.8281
639.1031, 298.0156
639.5853, 335.9375
640.0674, 342.8125
640.5495, 305.3359
641.0316, 273.3984
641.5137, 280.6875
641.9958, 301.6562
642.4780, 282.6953
642.9601, 206.7109
643.4422, 170.2969
643.9243, 241.1875
644.4064, 312.6172
644.8885, 298.6875
645.3707, 233.2812
645.8528, 189.7656
646.3349, 195.4297
646.8170, 224.6797
647.2991, 265.5000
647.7813, 312.4766
648.2634, 261.6016
648.7455, 67.92188
649.2276, 66.80469
649.7097, 34.19531
650.1918, 89.34375
650.6740, 197.8281
651.1561, 299.9609
651.6382, 333.0625
652.1203, 189.5625
652.6024, 70.89062
653.0845, 136.5781
653.5667, 299.1484
654.0488, 403.1094
654.5309, 400.7188
655.0130, 352.6172
655.4951, 313.2500
655.9772, 284.4922
656.4594, 284.8828
656.9415, 323.3125
657.4236, 341.9844
657.9057, 307.1953
658.3878, 255.2734
658.8699, 240.6641
659.3521, 265.8281
659.8342, 280.7812
660.3163, 274.8984
660.7984, 264.7500
661.2805, 245.1406
661.7626, 231.7500
662.2448, 261.0703
662.7269, 331.1484
663.2090, 378.5938
663.6911, 335.8984
664.1732, 232.1094
664.6553, 151.2188
665.1375, 93.14844
665.6196, 53.57812
666.1017, 25.96094
666.5838, 29.28125
667.0659, 107.8125
667.5480, 266.2344
668.0302, 326.9531
668.5123, 206.4922
668.9944, 94.09375
669.4765, 33.89062
669.9586, 10.66406
670.4407, 27.64062
670.9229, 69.71875
671.4050, 81.01562
671.8871, 0.2578130
672.3692, 98.05469
672.8513, 57.83594
673.3335, 101.2344
673.8156, 201.3281
674.2977, 192.8516
674.7798, 180.7578
675.2620, 273.2109
675.7441, 446.5703
676.2262, 501.4844
676.7083, 314.6719
677.1904, 179.2031
677.6725, 151.3047
678.1547, 148.2266
678.6368, 121.3203
679.1189, 68.81250
679.6010, 0.1015630
680.0831, 98.08594
680.5652, 155.3594
681.0474, 61.07031
681.5295, 128.7031
682.0116, 279.2891
682.4937, 371.2031
682.9758, 390.9141
683.4579, 316.3125
683.9401, 189.4219
684.4222, 130.9297
684.9043, 185.9688
685.3864, 209.4062
685.8685, 184.3438
686.3506, 144.7031
686.8328, 87.56250
687.3149, 29.83594
687.7970, 3.843750
688.2791, 7.656250
688.7612, 8.101563
689.2433, 53.32812
689.7255, 104.3516
690.2076, 137.5547
690.6897, 149.6719
691.1718, 125.6328
691.6539, 58.17188
692.1360, 7.226563
692.6182, 0.3281250
693.1003, 85.39844
693.5824, 164.5547
694.0645, 238.9375
694.5466, 304.5000
695.0287, 366.1406
695.5109, 413.1484
695.9930, 429.5625
696.4751, 414.9297
696.9572, 402.0156
697.4393, 408.2734
697.9214, 408.6797
698.4036, 390.3906
698.8857, 358.9844
699.3678, 318.5781
699.8499, 273.1641
700.3320, 233.8438
700.8141, 203.3359
701.2963, 193.0703
701.7784, 260.8438
702.2605, 416.5859
702.7426, 499.9688
703.2247, 459.6641
703.7068, 374.5234
704.1890, 293.7969
704.6711, 223.6719
705.1532, 204.3906
705.6353, 284.8281
706.1174, 344.8906
706.5995, 361.7109
707.0817, 355.0859
707.5638, 331.1719
708.0459, 300.3516
708.5280, 284.6562
709.0101, 296.1094
709.4922, 315.1719
709.9744, 323.9375
710.4565, 322.7734
710.9386, 312.0938
711.4207, 291.9688
711.9028, 259.6797
712.3849, 209.0625
712.8671, 159.3828
713.3492, 152.7812
713.8313, 208.9453
714.3134, 237.1406
714.7955, 200.2500
715.2776, 183.8047
715.7598, 219.9766
716.2419, 279.5547
716.7240, 331.8281
717.2061, 372.3359
717.6882, 389.7812
718.1703, 359.0625
718.6525, 321.1797
719.1346, 302.3828
719.6167, 305.9141
720.0988, 353.8750
720.5809, 443.3906
721.0630, 508.3203
721.5452, 478.5078
722.0273, 378.8906
722.5094, 313.0938
722.9915, 284.5781
723.4736, 283.6797
723.9557, 332.7969
724.4379, 378.1250
724.9200, 367.4453
725.4021, 311.1484
725.8842, 259.6719
726.3663, 201.6250
726.8484, 158.7344
727.3306, 124.7891
727.8127, 115.8594
728.2948, 174.1875
728.7769, 263.4844
729.2590, 286.8750
729.7411, 196.7031
730.2233, 107.5234
730.7054, 191.0234
731.1875, 364.6953
731.6696, 394.2812
732.1517, 276.3984
732.6339, 178.6094
733.1160, 177.4453
733.5981, 227.5781
734.0802, 266.4844
734.5623, 300.7656
735.0444, 266.1562
735.5266, 83.50781
736.0087, 42.03906
736.4908, 17.24219
736.9729, 55.61719
737.4550, 81.93750
737.9371, 59.24219
738.4193, 46.78125
738.9014, 79.46875
739.3835, 120.6016
739.8656, 145.6328
740.3477, 166.9141
740.8298, 208.3125
741.3120, 266.6016
741.7941, 309.4844
742.2762, 312.6172
742.7583, 298.6406
743.2404, 328.4062
743.7225, 394.6250
744.2047, 384.8203
744.6868, 273.4453
745.1689, 186.7656
745.6510, 215.1250
746.1331, 303.7812
746.6152, 316.3594
747.0974, 190.0547
747.5795, 149.3438
748.0616, 279.1016
748.5437, 397.1562
749.0258, 448.7266
749.5079, 444.9609
749.9901, 376.3516
750.4722, 247.6562
750.9543, 147.6250
751.4364, 134.2188
751.9185, 165.4766
752.4006, 240.7734
752.8828, 320.6484
753.3649, 290.8125
753.8470, 141.3125
754.3291, 1.492188
754.8112, 30.04688
755.2933, 26.45312
755.7755, 85.70312
756.2576, 150.0859
756.7397, 199.0781
757.2218, 232.5156
757.7039, 243.3047
758.1860, 216.5938
758.6682, 165.9141
759.1503, 131.6094
759.6324, 112.5469
760.1145, 110.9844
760.5966, 153.6719
761.0787, 186.1953
761.5609, 142.6016
762.0430, 87.06250
762.5251, 144.7500
763.0072, 336.7109
763.4893, 478.8359
763.9714, 396.9609
764.4536, 229.1250
764.9357, 137.0781
765.4178, 110.3203
765.8999, 118.3047
766.3820, 150.8125
766.8641, 186.5391
767.3463, 208.4844
767.8284, 217.0547
768.3105, 213.1406
768.7926, 196.8438
769.2747, 162.0625
769.7568, 81.61719
770.2390, 35.48438
770.7211, 120.6562
771.2032, 272.7109
771.6853, 288.4297
772.1674, 70.72656
772.6495, 41.80469
773.1317, 85.25000
773.6138, 221.7422
774.0959, 240.9766
774.5780, 192.7344
775.0601, 155.0781
775.5422, 146.4141
776.0244, 149.2656
776.5065, 139.9297
776.9886, 144.2812
777.4707, 233.7109
777.9528, 357.2188
778.4349, 374.9922
778.9171, 260.7344
779.3992, 103.3750
779.8813, 40.48438
780.3634, 142.4141
780.8455, 59.64844
781.3276, 254.8125
781.8098, 377.6953
782.2919, 180.9141
782.7740, 22.97656
783.2561, 39.47656
783.7382, 63.04688
784.2203, 125.2422
784.7025, 135.5938
785.1846, 132.2812
785.6667, 101.2266
786.1488, 73.73438
786.6309, 53.10156
787.1130, 49.56250
787.5952, 82.70312
788.0773, 150.2734
788.5594, 213.8281
789.0415, 268.4062
789.5236, 293.4688
790.0057, 242.8828
790.4879, 158.6406
790.9700, 131.8203
791.4521, 164.3594
791.9342, 171.5234
792.4163, 92.58594
792.8984, 15.06250
793.3806, 29.35938
793.8627, 44.60938
794.3448, 89.18750
794.8269, 91.57031
795.3090, 85.01562
795.7911, 74.78906
796.2733, 82.21094
796.7554, 154.6250
797.2375, 316.3984
797.7196, 390.5312
798.2017, 306.5391
798.6838, 223.0703
799.1660, 173.0078
799.6481, 131.6875
800.1302, 56.10156
800.6123, 35.39844
801.0944, 56.51562
801.5765, 70.83594
802.0587, 184.8281
802.5408, 181.0469
803.0229, 135.9531
803.5050, 143.8594
803.9871, 184.2812
804.4692, 162.4219
804.9514, 38.21094
805.4335, 81.50781
805.9156, 51.44531
806.3977, 73.72656
806.8798, 132.8750
807.3619, 129.8516
807.8441, 143.5859
808.3262, 202.6719
808.8083, 241.1250
809.2904, 178.4844
809.7725, 39.57812
810.2546, 8.632813
810.7368, 143.7891
811.2189, 210.6172
811.7010, 120.4844
812.1831, 42.79688
812.6652, 113.8984
813.1473, 265.4453
813.6295, 324.5703
814.1116, 246.0781
814.5937, 206.1953
815.0758, 270.2734
815.5579, 332.2188
816.0400, 351.2734
816.5222, 330.8047
817.0043, 260.5391
817.4864, 153.0938
817.9685, 71.38281
818.4506, 71.42188
818.9327, 94.34375
819.4149, 78.32812
819.8970, 46.50000
820.3791, 37.99219
820.8612, 57.05469
821.3433, 97.65625
821.8254, 159.1953
822.3076, 211.3516
822.7897, 185.5938
823.2718, 96.19531
823.7539, 71.19531
824.2360, 119.5000
824.7181, 173.3281
825.2003, 212.9141
825.6824, 227.8594
826.1645, 198.7422
826.6466, 127.6797
827.1287, 88.21094
827.6108, 92.71875
828.0930, 104.6875
828.5751, 123.7500
829.0572, 144.1406
829.5393, 166.5781
830.0214, 186.9297
830.5035, 192.6172
830.9857, 186.8438
831.4678, 173.8281
831.9499, 139.2266
832.4320, 114.8672
832.9141, 142.1875
833.3962, 181.0625
833.8784, 155.8750
834.3605, 66.01562
834.8426, 16.42188
835.3247, 119.8125
835.8068, 235.9375
836.2889, 171.3359
836.7711, 28.94531
837.2532, 29.67188
837.7353, 169.5312
838.2174, 261.1719
838.6995, 210.1094
839.1816, 106.4062
839.6638, 101.7891
840.1459, 176.8750
840.6280, 164.7578
841.1101, 57.55469
841.5922, 23.74219
842.0743, 42.47656
842.5565, 24.70312
843.0386, 1.531250
843.5207, 37.31250
844.0028, 97.54688
844.4849, 206.3594
844.9670, 283.8750
845.4492, 320.2734
845.9313, 325.0000
846.4134, 284.8750
846.8955, 220.7266
847.3776, 182.9453
847.8597, 179.3516
848.3419, 180.9922
848.8240, 193.1875
849.3061, 198.8125
849.7882, 182.2109
850.2703, 160.6953
850.7524, 158.3906
851.2346, 172.4297
851.7167, 169.1875
852.1988, 112.4062
852.6809, 63.24219
853.1630, 77.66406
853.6451, 117.4844
854.1273, 126.5625
854.6094, 116.7891
855.0915, 147.8281
855.5736, 241.0469
856.0557, 327.9531
856.5378, 320.5938
857.0200, 257.3750
857.5021, 229.6250
857.9842, 233.6562
858.4663, 254.1562
858.9484, 290.2656
859.4305, 317.3750
859.9127, 306.0938
860.3948, 263.9531
860.8769, 197.2578
861.3590, 96.00781
861.8411, 75.17188
862.3232, 168.3594
862.8054, 245.8125
863.2875, 241.0312
863.7696, 204.4844
864.2517, 195.2344
864.7338, 210.2656
865.2159, 226.9375
865.6981, 252.7812
866.1802, 263.2734
866.6623, 247.7812
867.1444, 226.0391
867.6265, 218.3438
868.1086, 210.8594
868.5908, 164.7344
869.0729, 44.99219
869.5550, 10.85938
870.0371, 100.6719
870.5192, 207.7656
871.0013, 189.4531
871.4835, 128.6875
871.9656, 155.3047
872.4477, 264.1172
872.9298, 320.4219
873.4119, 233.9531
873.8940, 112.0547
874.3762, 12.73438
874.8583, 45.84375
875.3404, 11.15625
875.8225, 84.40625
876.3046, 147.4375
876.7867, 129.9688
877.2689, 86.61719
877.7510, 59.10156
878.2331, 50.53125
878.7152, 72.71094
879.1973, 121.6953
879.6794, 190.0000
880.1616, 273.6484
880.6437, 331.9453
881.1258, 333.3594
881.6079, 305.0312
882.0900, 312.4609
882.5721, 357.0078
883.0543, 362.8516
883.5364, 323.0312
884.0185, 272.6875
884.5006, 217.9219
884.9827, 173.5781
885.4648, 158.3203
885.9470, 169.7344
886.4291, 183.5625
886.9112, 202.8828
887.3933, 218.3906
887.8754, 239.0547
888.3575, 241.8750
888.8397, 193.1641
889.3218, 128.4141
889.8039, 115.1641
890.2860, 164.7656
890.7681, 191.6250
891.2502, 152.0312
891.7324, 138.6250
892.2145, 220.7266
892.6966, 300.7891
893.1787, 290.8047
893.6608, 213.9609
894.1429, 144.2812
894.6251, 90.27344
895.1072, 57.33594
895.5893, 54.13281
896.0714, 64.03906
896.5535, 86.12500
897.0356, 108.6094
897.5178, 102.3750
897.9999, 73.42188
898.4820, 84.30469
898.9641, 203.8828
899.4462, 312.6641
899.9283, 277.3125
900.4105, 182.5156
900.8926, 142.6094
901.3747, 154.4062
901.8568, 166.1719
902.3389, 157.1094
902.8210, 127.7656
903.3032, 53.81250
903.7853, 22.69531
904.2674, 11.88281
904.7495, 123.6875
905.2316, 178.0938
905.7137, 155.7188
906.1959, 115.0703
906.6780, 88.92188
907.1601, 87.13281
907.6422, 155.5234
908.1243, 284.0703
908.6064, 276.8516
909.0886, 122.6094
909.5707, 14.45312
910.0528, 11.42188
910.5349, 59.66406
911.0170, 120.7188
911.4991, 184.6562
911.9813, 197.2969
912.4634, 142.3047
912.9455, 127.5156
913.4276, 180.8281
913.9097, 221.5859
914.3918, 209.5078
914.8740, 178.4531
915.3561, 171.0469
915.8382, 186.7422
916.3203, 195.0625
916.8024, 190.1562
917.2845, 189.5469
917.7667, 215.5547
918.2488, 222.0781
918.7309, 154.2578
919.2130, 63.21094
919.6951, 44.63281
920.1772, 116.6641
920.6594, 148.0312
921.1415, 95.39844
921.6237, 43.17969
922.1058, 2.648438
922.5879, 19.62500
923.0700, 16.30469
923.5521, 9.093750
924.0342, 56.65625
924.5164, 137.7188
924.9985, 185.6797
925.4806, 181.1406
925.9627, 151.3359
926.4448, 83.81250
926.9269, 16.49219
927.4091, 4.226563
927.8912, 22.14062
928.3733, 55.71875
928.8554, 90.41406
929.3375, 103.6328
929.8196, 55.51562
930.3018, 1.507813
930.7839, 13.17188
931.2660, 10.02344
931.7481, 90.66406
932.2302, 211.9141
932.7123, 254.6641
933.1945, 96.53906
933.6766, 68.53906
934.1587, 10.32031
934.6408, 186.5547
935.1229, 216.8594
935.6050, 126.0156
936.0872, 64.81250
936.5693, 84.75000
937.0514, 121.2891
937.5335, 112.2031
938.0156, 83.45312
938.4977, 83.62500
938.9799, 101.1484
939.4620, 102.9297
939.9441, 86.45312
940.4262, 65.60156
940.9083, 46.93750
941.3904, 36.34375
941.8726, 46.42188
942.3547, 69.14844
942.8368, 70.95312
943.3189, 56.64844
943.8010, 66.45312
944.2831, 106.9844
944.7653, 135.6719
945.2474, 124.7266
945.7295, 89.94531
946.2116, 51.46094
946.6937, 11.17188
947.1758, 13.39062
947.6580, 59.94531
948.1401, 90.68750
948.6222, 88.31250
949.1043, 84.53906
949.5864, 110.1797
950.0685, 141.7109
950.5507, 94.67969
951.0328, 48.85938
951.5149, 58.12500
951.9970, 106.2656
952.4791, 228.3516
952.9612, 228.8203
953.4434, 187.8906
953.9255, 177.8672
954.4076, 193.5703
954.8897, 215.8984
955.3718, 256.7109
955.8539, 254.6406
956.3361, 193.4844
956.8182, 120.2266
957.3003, 29.71094
957.7824, 24.72656
958.2645, 42.56250
958.7466, 211.0938
959.2288, 257.3594
959.7109, 103.0312
960.1930, 8.210938
960.6751, 5.085938
961.1572, 37.28125
961.6393, 99.93750
962.1215, 167.0312
962.6036, 193.3125
963.0857, 177.4922
963.5678, 170.7188
964.0499, 208.2031
964.5320, 195.0000
965.0142, 58.78125
965.4963, 54.25000
965.9784, 45.59375
966.4605, 17.36719
966.9426, 22.92188
967.4247, 39.25781
967.9069, 43.47656
968.3890, 103.4688
968.8711, 179.7812
969.3532, 59.16406
969.8353, 42.74219
970.3174, 57.23438
970.7996, 240.1484
971.2817, 274.2578
971.7638, 121.8984
972.2459, 32.43750
972.7280, 103.1094
973.2101, 144.9141
973.6923, 71.82031
974.1744, 8.015625
974.6565, 7.203125
975.1386, 40.60156
975.6207, 57.58594
976.1028, 28.10156
976.5850, 14.78125
977.0671, 37.50781
977.5492, 67.87500
978.0313, 102.7656
978.5134, 136.1641
978.9955, 175.5312
979.4777, 207.0312
979.9598, 199.0391
980.4419, 141.7734
980.9240, 69.46094
981.4061, 68.31250
981.8882, 142.8594
982.3704, 41.41406
982.8525, 97.96875
983.3346, 151.6797
983.8167, 134.4844
984.2988, 112.4609
984.7809, 99.32812
985.2631, 81.04688
985.7452, 29.24219
986.2273, 3.820313
986.7094, 56.75000
987.1915, 133.6172
987.6736, 183.7109
988.1558, 207.7422
988.6379, 232.3672
989.1200, 272.7031
989.6021, 284.2422
990.0842, 218.1484
990.5663, 153.3516
991.0485, 137.1641
991.5306, 137.5000
992.0127, 134.1875
992.4948, 125.7969
992.9769, 131.3438
993.4590, 157.2656
993.9412, 192.7266
994.4233, 265.7344
994.9054, 309.8516
995.3875, 241.7656
995.8696, 154.0234
996.3517, 160.8125
996.8339, 245.6250
997.3160, 323.7578
997.7981, 378.2812
998.2802, 383.2344
998.7623, 285.6562
999.2444, 180.9766
999.7266, 93.09375
1000.209, 58.25000
1000.691, 150.1328
1001.173, 329.3828
1001.655, 462.9766
1002.137, 504.8125
1002.619, 517.4609
1003.101, 508.8438
1003.583, 503.2656
1004.066, 524.6719
1004.548, 551.0391
1005.030, 556.9609
1005.512, 544.6250
1005.994, 524.1797
1006.476, 489.4844
1006.958, 490.3516
1007.440, 574.3750
1007.923, 672.1875
1008.405, 763.8438
1008.887, 825.4375
1009.369, 817.5703
1009.851, 770.0078
1010.333, 758.2734
1010.815, 808.4297
1011.297, 878.2656
1011.779, 971.7891
1012.262, 1054.195
1012.744, 1080.438
1013.226, 1103.828
1013.708, 1209.898
1014.190, 1361.219
1014.672, 1420.281
1015.154, 1324.086
1015.636, 1286.578
1016.119, 1427.281
1016.601, 1609.938
1017.083, 1791.258
1017.565, 1957.523
1018.047, 2092.773
1018.529, 2205.562
1019.011, 2318.242
1019.493, 2435.344
1019.975, 2553.969
1020.458, 2666.164
1020.940, 2788.367
1021.422, 2962.125
1021.904, 3119.391
1022.386, 3173.391
1022.868, 3167.094
1023.350, 3211.125
1023.832, 3340.070
1024.314, 3445.812
1024.797, 3527.500
1025.279, 3534.914
1025.761, 3366.375
1026.243, 3201.586
1026.725, 3221.281
1027.207, 3335.461
1027.689, 3346.633
1028.171, 3230.008
1028.654, 3055.555
1029.136, 2753.812
1029.618, 2510.617
1030.100, 2429.984
1030.582, 2370.602
1031.064, 2225.023
1031.546, 2037.141
1032.028, 1893.148
1032.510, 1802.516
1032.993, 1708.727
1033.475, 1609.688
1033.957, 1500.805
1034.439, 1353.508
1034.921, 1226.219
1035.403, 1176.953
1035.885, 1155.648
1036.367, 1068.750
1036.849, 909.9453
1037.332, 827.1016
1037.814, 951.8516
1038.296, 955.8047
1038.778, 700.1719
1039.260, 459.8984
1039.742, 381.2266
1040.224, 373.1797
1040.706, 299.1406
1041.189, 163.2891
1041.671, 64.12500
1042.153, 20.56250
1042.635, 17.96094
1043.117, 154.6250
1043.599, 274.1875
1044.081, 217.8359
1044.563, 118.6406
1045.046, 128.9766
1045.528, 224.3359
1046.010, 262.3359
1046.492, 224.9219
1046.974, 182.5156
1047.456, 121.3516
1047.938, 101.6562
1048.420, 163.7188
1048.902, 227.3047
1049.385, 217.4219
1049.867, 154.8672
1050.349, 100.0625
1050.831, 46.32812
1051.313, 48.96094
1051.795, 120.5625
1052.277, 192.5312
1052.759, 255.3047
1053.242, 272.5000
1053.724, 207.3516
1054.206, 103.6719
1054.688, 51.80469
1055.170, 51.00781
1055.652, 89.41406
1056.134, 168.9141
1056.616, 208.1641
1057.099, 188.7812
1057.581, 159.3672
1058.063, 147.2109
1058.545, 152.6406
1059.027, 182.8281
1059.509, 233.2812
1059.991, 256.5703
1060.473, 251.8438
1060.955, 259.9062
1061.438, 283.6406
1061.920, 289.3516
1062.402, 261.6094
1062.884, 249.0234
1063.366, 321.4453
1063.848, 418.7734
1064.330, 394.6406
1064.812, 303.8750
1065.294, 283.7500
1065.777, 327.6562
1066.259, 385.9375
1066.741, 435.1562
1067.223, 449.8516
1067.705, 393.5781
1068.187, 326.0469
1068.669, 324.8984
1069.151, 363.9453
1069.634, 399.5312
1070.116, 439.3828
1070.598, 531.0781
1071.080, 666.6250
1071.562, 740.4062
1072.044, 676.7969
1072.526, 603.2656
1073.008, 633.1172
1073.490, 692.2500
1073.973, 714.6953
1074.455, 712.4531
1074.937, 697.3828
1075.419, 680.3594
1075.901, 694.6797
1076.383, 762.9375
1076.865, 786.1406
1077.347, 675.7344
1077.829, 554.2422
1078.312, 462.3047
1078.794, 417.8672
1079.276, 465.2344
1079.758, 562.8672
1080.240, 622.4531
1080.722, 627.5547
1081.204, 622.5859
1081.686, 624.2812
1082.169, 618.1875
1082.651, 578.9297
1083.133, 535.3672
1083.615, 501.5547
1084.097, 478.6641
1084.579, 471.0156
1085.061, 477.7734
1085.543, 473.0156
1086.026, 440.8203
1086.508, 426.2344
1086.990, 441.8828
1087.472, 457.5938
1087.954, 473.3516
1088.436, 468.0312
1088.918, 406.2266
1089.400, 315.0938
1089.882, 297.1094
1090.365, 378.1406
1090.847, 398.0312
1091.329, 342.2031
1091.811, 289.1406
1092.293, 259.8516
1092.775, 229.9688
1093.257, 181.6406
1093.739, 125.0078
1094.221, 74.50000
1094.704, 31.71094
1095.186, 0.4062500
1095.668, 14.92188
1096.150, 30.14844
1096.632, 144.0781
1097.114, 263.0000
1097.596, 358.1016
1098.078, 386.6719
1098.561, 271.6406
1099.043, 107.6797
1099.525, 124.6719
1100.007, 248.7734
1100.489, 280.8203
1100.971, 228.4219
1101.453, 174.2266
1101.935, 146.3047
1102.417, 156.5781
1102.900, 224.9453
1103.382, 289.4453
1103.864, 281.9219
1104.346, 239.1016
1104.828, 184.6250
1105.310, 137.6016
1105.792, 137.8438
1106.274, 173.1953
1106.756, 185.5547
1107.239, 156.2734
1107.721, 114.7812
1108.203, 58.58594
1108.685, 15.68750
1109.167, 9.335938
1109.649, 4.390625
1110.131, 80.75781
1110.613, 186.8828
1111.096, 184.7812
1111.578, 59.94531
1112.060, 1.625000
1112.542, 88.47656
1113.024, 153.9062
1113.506, 175.4062
1113.988, 166.3984
1114.470, 109.3828
1114.953, 47.86719
1115.435, 34.21094
1115.917, 53.07812
1116.399, 30.55469
1116.881, 65.14062
1117.363, 73.80469
1117.845, 34.41406
1118.327, 132.0781
1118.809, 198.8047
1119.292, 202.7109
1119.774, 106.9844
1120.256, 15.33594
1120.738, 25.88281
1121.220, 50.31250
1121.702, 24.27344
1122.184, 89.23438
1122.666, 91.74219
1123.148, 28.13281
1123.631, 96.18750
1124.113, 46.40625
1124.595, 2.953125
1125.077, 64.01562
1125.559, 174.8750
1126.041, 232.7266
1126.523, 241.1562
1127.005, 183.1406
1127.488, 88.75000
1127.970, 18.01562
1128.452, 14.55469
1128.934, 10.25000
1129.416, 34.09375
1129.898, 88.82812
1130.380, 147.1562
1130.862, 191.5156
1131.344, 210.1016
1131.827, 206.9844
1132.309, 168.9219
1132.791, 119.3203
1133.273, 105.7734
1133.755, 135.6406
1134.237, 169.9297
1134.719, 204.4609
1135.201, 235.0859
1135.683, 286.5234
1136.166, 303.0000
1136.648, 217.7500
1137.130, 122.8906
1137.612, 129.4219
1138.094, 195.8828
1138.576, 153.5859
1139.058, 46.73438
1139.540, 120.0781
1140.023, 27.15625
1140.505, 37.64062
1140.987, 29.27344
1141.469, 9.609375
1141.951, 13.00781
1142.433, 34.41406
1142.915, 72.49219
1143.397, 117.4688
1143.880, 116.9922
1144.362, 85.85156
1144.844, 132.2031
1145.326, 239.6328
1145.808, 243.7188
1146.290, 108.3906
1146.772, 11.42188
1147.254, 5.664063
1147.736, 45.99219
1148.219, 53.67969
1148.701, 54.79688
1149.183, 107.1562
1149.665, 179.6641
1150.147, 222.6250
1150.629, 237.1406
1151.111, 258.5547
1151.593, 297.5469
1152.075, 279.9375
1152.558, 72.81250
1153.040, 54.21094
1153.522, 79.88281
1154.004, 240.2031
1154.486, 294.2812
1154.968, 276.2969
1155.450, 214.7734
1155.932, 123.6172
1156.415, 73.35156
1156.897, 74.50000
1157.379, 83.58594
1157.861, 96.47656
1158.343, 134.7344
1158.825, 222.1562
1159.307, 276.2656
1159.789, 224.0234
1160.271, 145.1641
1160.754, 164.4531
1161.236, 250.1406
1161.718, 244.2344
1162.200, 158.3281
1162.682, 74.24219
1163.164, 5.148438
1163.646, 10.35938
1164.128, 33.55469
1164.610, 75.95312
1165.093, 72.46094
1165.575, 65.87500
1166.057, 108.8984
1166.539, 172.6094
1167.021, 237.8516
1167.503, 287.5469
1167.985, 301.0781
1168.467, 277.1172
1168.950, 199.3906
1169.432, 67.63281
1169.914, 2.062500
1170.396, 96.71875
1170.878, 191.8906
1171.360, 255.5547
1171.842, 289.7344
1172.324, 275.8906
1172.807, 248.9141
1173.289, 243.2109
1173.771, 253.4609
1174.253, 263.3516
1174.735, 269.6016
1175.217, 269.8750
1175.699, 270.9062
1176.181, 256.8750
1176.663, 222.0625
1177.146, 192.9844
1177.628, 179.4766
1178.110, 203.2578
1178.592, 304.2031
1179.074, 432.8672
1179.556, 445.5000
1180.038, 378.5312
1180.520, 375.1016
1181.002, 422.7500
1181.485, 419.5625
1181.967, 365.1484
1182.449, 357.9375
1182.931, 446.4688
1183.413, 519.4375
1183.895, 475.2031
1184.377, 412.4531
1184.859, 386.8516
1185.342, 383.2422
1185.824, 394.1406
1186.306, 410.7578
1186.788, 435.3203
1187.270, 463.1250
1187.752, 457.1484
1188.234, 386.8438
1188.716, 348.1328
1189.198, 351.8359
1189.681, 371.1094
1190.163, 414.5156
1190.645, 439.0859
1191.127, 412.8750
1191.609, 368.1641
1192.091, 346.1172
1192.573, 335.2422
1193.055, 393.3828
1193.537, 495.1953
1194.020, 469.7891
1194.502, 332.5000
1194.984, 259.6328
1195.466, 285.5703
1195.948, 298.3594
1196.430, 226.9414
1196.912, 169.0781
1197.394, 226.6094
1197.877, 314.8750
1198.359, 372.6328
1198.841, 394.1953
1199.323, 351.6133
1199.805, 283.0312
1200.287, 218.2695
1200.769, 167.3164
1201.251, 149.5703
1201.734, 187.3633
1202.216, 217.8320
1202.698, 238.8359
1203.180, 241.6562
1203.662, 199.6250
1204.144, 182.6719
1204.626, 242.6406
1205.108, 333.8711
1205.590, 374.4023
1206.073, 365.8359
1206.555, 306.0195
1207.037, 199.8984
1207.519, 110.9883
1208.001, 43.36719
1208.483, 11.26562
1208.965, 16.37109
1209.447, 86.88281
1209.929, 245.2812
1210.412, 358.3789
1210.894, 222.4062
1211.376, 54.78906
1211.858, 121.7305
1212.340, 241.0820
1212.822, 176.5078
1213.304, 28.14844
1213.786, 1.261719
1214.269, 93.58984
1214.751, 173.3086
1215.233, 230.9531
1215.715, 217.6406
1216.197, 12.41797
1216.679, 57.47656
1217.161, 144.0312
1217.643, 341.1406
1218.125, 383.3359
1218.608, 350.6133
1219.090, 342.1211
1219.572, 344.1445
1220.054, 293.2734
1220.536, 204.4297
1221.018, 192.8594
1221.500, 244.5664
1221.982, 267.2188
1222.464, 246.7617
1222.947, 220.2109
1223.429, 203.8945
1223.911, 178.5000
1224.393, 87.03125
1224.875, 41.32031
1225.357, 192.1914
1225.839, 355.9375
1226.321, 381.9727
1226.804, 325.0430
1227.286, 227.0234
1227.768, 122.7969
1228.250, 121.1406
1228.732, 260.9844
1229.214, 315.6328
1229.696, 245.4883
1230.178, 199.3438
1230.661, 199.6719
1231.143, 186.3516
1231.625, 173.8242
1232.107, 140.5625
1232.589, 74.22656
1233.071, 10.44922
1233.553, 35.50391
1234.035, 105.2266
1234.517, 95.30469
1235.000, 40.77344
1235.482, 23.50391
1235.964, 41.12500
1236.446, 50.03516
1236.928, 41.76953
1237.410, 53.93750
1237.892, 124.5195
1238.374, 164.3750
1238.856, 100.0625
1239.339, 47.02344
1239.821, 86.95312
1240.303, 126.3203
1240.785, 83.89062
1241.267, 12.90625
1241.749, 7.917969
1242.231, 14.45703
1242.713, 27.00000
1243.196, 28.17188
1243.678, 36.67578
1244.160, 99.06641
1244.642, 92.55859
1245.124, 0.0000000E+00
##END=



