##NAMES=Calaverite
##RRUFFID=R060134
##IDEAL CHEMISTRY=AuTe_2_
##LOCALITY=Cripple Creek, Teller County, Colorado, USA
##OWNER=RRUFF
##SOURCE=University of Arizona Mineral Museum
##DESCRIPTION=Silver thick prismatic crystals with gold tarnish associated with quartz
##STATUS=The identification of this mineral is confirmed by single-crystal X-ray diffraction and chemical analysis.
##URL=rruff.info/R060134
##MEASURED CHEMISTRY=(Au_1.89_Ag_0.11_)_Î£=2_Te_4.00_
133.9695, 0.0000000E+00
134.4516, 0.3461750
134.9337, 0.5922740
135.4159, 2.5606999E-02
135.8980, 0.2807220
136.3801, 0.2279620
136.8622, 0.1577220
137.3443, 0.6924090
137.8264, 0.1793570
138.3086, 0.7154630
138.7907, 1.002160
139.2728, 0.7903190
139.7549, 1.226086
140.2370, 1.527179
140.7191, 1.699358
141.2013, 1.336709
141.6834, 1.672568
142.1655, 1.731256
142.6476, 1.779571
143.1297, 2.216770
143.6118, 1.940159
144.0939, 2.378321
144.5761, 2.539820
145.0582, 2.837932
145.5403, 2.861906
146.0224, 2.973116
146.5045, 3.210473
146.9866, 3.372523
147.4688, 3.462181
147.9509, 3.264739
148.4330, 3.435910
148.9151, 3.458256
149.3972, 3.473856
149.8793, 3.353973
150.3615, 3.008611
150.8436, 2.871484
151.3257, 2.992505
151.8078, 3.388448
152.2899, 3.947790
152.7720, 4.957849
153.2542, 5.648214
153.7363, 5.440094
154.2184, 4.712870
154.7005, 4.139328
155.1826, 4.208951
155.6647, 4.741273
156.1469, 4.946780
156.6290, 4.379031
157.1111, 3.846189
157.5932, 3.565354
158.0753, 3.486086
158.5574, 3.445103
159.0396, 3.479096
159.5217, 3.535904
160.0038, 3.483775
160.4859, 3.195856
160.9680, 2.910902
161.4501, 2.766235
161.9323, 2.733260
162.4144, 2.686975
162.8965, 2.490694
163.3786, 2.081614
163.8607, 1.774884
164.3428, 1.589810
164.8250, 1.496332
165.3071, 1.542333
165.7892, 1.720605
166.2713, 1.867733
166.7534, 1.751382
167.2355, 1.321084
167.7177, 0.9806630
168.1998, 0.8190670
168.6819, 0.7504650
169.1640, 0.6606560
169.6461, 0.5092300
170.1282, 0.3753210
170.6104, 0.4396730
171.0925, 0.6767020
171.5746, 0.7549680
172.0567, 0.4065520
172.5388, 0.1152220
173.0209, 0.1167400
173.5031, 7.5787999E-02
173.9852, 7.4833997E-02
174.4673, 9.4544001E-02
174.9494, 0.1343080
175.4315, 0.1784670
175.9136, 0.1246330
176.3958, 0.2455630
176.8779, 6.2157001E-02
177.3600, 0.1781000
177.8421, 0.1542470
178.3242, 0.2509870
178.8063, 6.3702002E-02
179.2885, 0.1552860
179.7706, 1.3980001E-03
180.2527, 7.4097998E-02
180.7348, 2.1550000E-02
181.2169, 9.7057000E-02
181.6990, 0.1319440
182.1812, 0.1634480
182.6633, 5.9317000E-02
183.1454, 0.2189370
183.6275, 6.2536001E-02
184.1096, 3.2979000E-02
184.5917, 6.2017001E-02
185.0738, 0.1104700
185.5560, 0.4119280
186.0381, 0.1246970
186.5202, 0.3840090
187.0023, 0.4724030
187.4844, 0.7504910
187.9665, 0.6121500
188.4487, 0.5998340
188.9308, 1.000377
189.4129, 1.169314
189.8950, 0.9731450
190.3771, 1.247785
190.8592, 0.6681770
191.3414, 0.8061030
191.8235, 1.291472
192.3056, 1.108381
192.7877, 1.385568
193.2698, 1.479963
193.7519, 0.7808600
194.2341, 1.468390
194.7162, 1.697792
195.1983, 2.033880
195.6804, 2.145357
196.1625, 2.145812
196.6446, 1.970260
197.1268, 1.703749
197.6089, 1.553599
198.0910, 1.628948
198.5731, 1.792958
199.0552, 1.796473
199.5373, 1.597443
200.0195, 1.482410
200.5016, 1.715350
200.9837, 2.204586
201.4658, 2.478747
201.9479, 2.270049
202.4300, 1.923985
202.9122, 1.840885
203.3943, 2.048002
203.8764, 2.301872
204.3585, 2.386194
204.8406, 2.300798
205.3227, 2.294951
205.8048, 2.447582
206.2870, 2.305479
206.7691, 2.837078
207.2512, 3.156740
207.7333, 3.274516
208.2154, 2.592847
208.6975, 2.936293
209.1797, 2.867066
209.6618, 2.781333
210.1439, 3.270494
210.6260, 2.705821
211.1081, 3.187654
211.5902, 3.275582
212.0724, 3.311769
212.5545, 3.192435
213.0366, 3.139507
213.5187, 3.217630
214.0008, 3.328938
214.4829, 3.407573
214.9651, 3.443815
215.4472, 3.477541
215.9293, 3.584867
216.4114, 3.870955
216.8935, 3.997628
217.3756, 3.835326
217.8578, 3.634102
218.3399, 3.578528
218.8220, 3.703197
219.3041, 3.891582
219.7862, 3.960474
220.2683, 3.824290
220.7505, 3.732714
221.2326, 3.727495
221.7147, 3.735053
222.1968, 3.682583
222.6789, 3.559232
223.1610, 3.429804
223.6432, 3.390322
224.1253, 3.486442
224.6074, 3.593306
225.0895, 3.738511
225.5716, 3.872515
226.0537, 3.916522
226.5358, 3.859637
227.0180, 3.822947
227.5001, 3.767467
227.9822, 4.129605
228.4643, 4.338744
228.9464, 4.406610
229.4285, 3.896710
229.9107, 4.132441
230.3928, 4.049328
230.8749, 3.915587
231.3570, 4.199118
231.8391, 3.859645
232.3212, 3.786820
232.8034, 3.797614
233.2855, 3.851655
233.7676, 3.914141
234.2497, 3.962055
234.7318, 3.990694
235.2139, 3.819077
235.6961, 3.494279
236.1782, 3.265433
236.6603, 3.340557
237.1424, 3.564541
237.6245, 3.546164
238.1066, 3.012044
238.5888, 2.497771
239.0709, 2.901231
239.5530, 3.086701
240.0351, 3.108540
240.5172, 2.349663
240.9993, 2.619985
241.4815, 2.449185
241.9636, 2.284133
242.4457, 2.690108
242.9278, 2.035395
243.4099, 2.441394
243.8920, 2.414410
244.3742, 2.592464
244.8563, 2.357494
245.3384, 2.253149
245.8205, 2.561426
246.3026, 2.638785
246.7847, 2.358338
247.2668, 2.553242
247.7490, 1.898690
248.2311, 1.989751
248.7132, 2.396523
249.1953, 2.133904
249.6774, 2.336091
250.1595, 2.360807
250.6417, 1.589475
251.1238, 2.206050
251.6059, 2.216708
252.0880, 1.616177
252.5701, 2.185281
253.0522, 1.671269
253.5344, 1.544248
254.0165, 1.708052
254.4986, 1.567791
254.9807, 1.913912
255.4628, 1.791462
255.9449, 1.745782
256.4271, 1.304959
256.9092, 1.620742
257.3913, 1.789488
257.8734, 1.824269
258.3555, 1.325076
258.8376, 1.523414
259.3198, 1.441133
259.8019, 1.340743
260.2840, 1.628640
260.7661, 1.201130
261.2482, 1.482939
261.7303, 1.487567
262.2125, 1.615891
262.6946, 1.478492
263.1767, 1.419973
263.6588, 1.636340
264.1409, 1.697053
264.6230, 1.485260
265.1052, 1.626600
265.5873, 1.679928
266.0694, 1.568944
266.5515, 1.427102
267.0336, 1.349339
267.5157, 0.9856750
267.9979, 1.261827
268.4800, 1.364623
268.9621, 1.314851
269.4442, 0.6481160
269.9263, 0.7875870
270.4084, 1.417229
270.8906, 1.689743
271.3727, 1.610070
271.8548, 1.363438
272.3369, 1.146821
272.8190, 0.8867180
273.3011, 0.5835270
273.7833, 0.9265530
274.2654, 1.108213
274.7475, 1.149470
275.2296, 0.5712550
275.7117, 0.7886310
276.1938, 0.6772720
276.6760, 0.5503680
277.1581, 0.8691030
277.6402, 0.3711740
278.1223, 0.8640920
278.6044, 0.9721220
279.0865, 1.012871
279.5686, 1.028271
280.0508, 1.061088
280.5329, 1.109601
281.0150, 1.016110
281.4971, 0.5883380
281.9792, 0.2470190
282.4613, 0.2195070
282.9435, 0.4013090
283.4256, 0.5495080
283.9077, 0.4919630
284.3898, 0.2619800
284.8719, 0.1749530
285.3540, 0.4145560
285.8362, 0.5694230
286.3183, 0.4249070
286.8004, 0.1302090
287.2825, 3.4173001E-02
287.7646, 0.2177700
288.2467, 0.1259140
288.7289, 0.3378010
289.2110, 0.3955420
289.6931, 0.1636270
290.1752, 7.4377000E-02
290.6573, 6.7610000E-03
291.1394, 0.1007120
291.6216, 0.2502210
292.1037, 0.2163520
292.5858, 0.1263670
293.0679, 0.1467630
293.5500, 0.3160390
294.0321, 0.1644470
294.5143, 0.1124510
294.9964, 0.3821950
295.4785, 0.4120320
295.9606, 0.6070400
296.4427, 0.5531270
296.9248, 8.6754002E-02
297.4070, 0.1123160
297.8891, 0.2497420
298.3712, 0.7266230
298.8533, 0.8793340
299.3354, 0.6564480
299.8175, 0.3754210
300.2997, 0.3838360
300.7818, 0.7517800
301.2639, 0.8855100
301.7460, 0.5493880
302.2281, 0.1681380
302.7102, 1.8123001E-02
303.1924, 0.1066370
303.6745, 0.3126370
304.1566, 0.5902010
304.6387, 0.9177970
305.1208, 1.024876
305.6029, 0.6439810
306.0851, 0.3224990
306.5672, 0.4455840
307.0493, 0.8820400
307.5314, 1.181470
308.0135, 1.065201
308.4956, 0.6363490
308.9778, 0.3532620
309.4599, 0.2568860
309.9420, 0.2220190
310.4241, 0.2729760
310.9062, 0.3531960
311.3883, 0.3328360
311.8705, 0.1431100
312.3526, 0.1241990
312.8347, 4.2059999E-03
313.3168, 2.8873000E-02
313.7989, 8.1191003E-02
314.2810, 8.1403002E-02
314.7632, 8.6549995E-03
315.2453, 2.2241000E-02
315.7274, 8.0118001E-02
316.2095, 3.8752999E-02
316.6916, 4.7281999E-02
317.1737, 0.1977740
317.6559, 0.4283440
318.1380, 0.3716700
318.6201, 0.2276740
319.1022, 8.0424003E-02
319.5843, 0.1573460
320.0664, 0.1430630
320.5485, 9.0655997E-02
321.0306, 2.7010001E-03
321.5128, 2.1120000E-03
321.9949, 0.1349450
322.4770, 4.4167001E-02
322.9591, 6.3450001E-02
323.4412, 7.9857998E-02
323.9233, 2.0858999E-02
324.4055, 3.4492999E-02
324.8876, 8.5180001E-03
325.3697, 2.7602000E-02
325.8518, 0.1060870
326.3339, 0.2249380
326.8160, 0.2328690
327.2982, 5.6903001E-02
327.7803, 6.5406002E-02
328.2624, 1.8394999E-02
328.7445, 0.1525480
329.2266, 0.1520470
329.7087, 0.1037290
330.1909, 0.1104210
330.6730, 0.2543910
331.1551, 0.2445930
331.6372, 7.9984002E-02
332.1193, 0.1045830
332.6014, 9.0361997E-02
333.0836, 8.2891002E-02
333.5657, 2.2750001E-03
334.0478, 0.3029030
334.5299, 0.2150560
335.0120, 4.9180002E-03
335.4941, 2.5736000E-02
335.9763, 3.7475999E-02
336.4584, 1.6767001E-02
336.9405, 3.8082998E-02
337.4226, 8.3406001E-02
337.9047, 1.7239001E-02
338.3868, 1.9076999E-02
338.8690, 8.2810998E-02
339.3511, 1.2170000E-03
339.8332, 4.3175999E-02
340.3153, 7.6289997E-02
340.7974, 0.1407830
341.2795, 0.1080220
341.7617, 0.1896210
342.2438, 0.4873140
342.7259, 0.7733010
343.2080, 1.030989
343.6901, 1.216067
344.1722, 1.225592
344.6544, 1.002528
345.1365, 0.7457230
345.6186, 0.8536720
346.1007, 1.866564
346.5828, 2.500572
347.0649, 2.417079
347.5471, 2.099655
348.0292, 1.968492
348.5113, 2.109581
348.9934, 2.400337
349.4755, 2.715728
349.9576, 2.672324
350.4398, 3.006456
350.9219, 3.188992
351.4040, 3.206840
351.8861, 2.609601
352.3682, 2.806066
352.8503, 2.685796
353.3325, 2.553759
353.8146, 2.862252
354.2967, 2.354931
354.7788, 2.655083
355.2609, 2.625558
355.7430, 2.760323
356.2252, 2.573480
356.7073, 1.649392
357.1894, 0.8637450
357.6715, 1.218047
358.1536, 1.410155
358.6357, 1.449513
359.1179, 0.8745740
359.5999, 1.090321
360.0821, 0.9822810
360.5642, 0.8555110
361.0463, 1.171202
361.5284, 0.6716340
362.0105, 0.9812010
362.4926, 0.9707720
362.9748, 1.110991
363.4569, 0.9252840
363.9390, 0.8377840
364.4211, 1.070269
364.9032, 1.125476
365.3853, 0.9021300
365.8675, 1.045099
366.3496, 0.5342590
366.8317, 0.6000020
367.3138, 0.9242700
367.7959, 0.7317060
368.2780, 1.100855
368.7602, 1.382786
369.2423, 1.465423
369.7244, 0.7514810
370.2065, 1.056010
370.6886, 0.9495120
371.1707, 0.8262480
371.6529, 1.276339
372.1350, 0.6713130
372.6171, 1.118957
373.0992, 1.126778
373.5813, 0.3905460
374.0634, 0.6797330
374.5456, 0.5591000
375.0277, 0.4297680
375.5098, 0.8741720
375.9919, 0.2631700
376.4740, 0.7101680
376.9561, 0.7320010
377.4383, 0.9264500
377.9204, 0.7027230
378.4025, 0.6157940
378.8846, 0.9496230
379.3667, 1.041899
379.8488, 0.7702810
380.3310, 0.9765620
380.8131, 0.3336690
381.2952, 0.4422040
381.7773, 0.8657150
382.2594, 0.6221230
382.7415, 0.8406580
383.2237, 0.8845040
383.7058, 0.1379910
384.1879, 0.7796740
384.6700, 0.8212430
385.1521, 0.2368540
385.6342, 0.8226090
386.1164, 0.3180910
386.5985, 0.1976160
387.0806, 0.3692350
387.5627, 0.2481150
388.0448, 0.6100250
388.5269, 0.5111020
389.0091, 0.2584900
389.4912, 0.1550750
389.9733, 3.7696000E-02
390.4554, 1.6488999E-02
390.9375, 3.8038999E-02
391.4196, 0.1366160
391.9018, 0.2214630
392.3839, 0.2881720
392.8660, 0.3088740
393.3481, 0.2316410
393.8302, 0.1404310
394.3123, 0.2165440
394.7945, 0.5421410
395.2766, 0.7505110
395.7587, 0.6318560
396.2408, 0.3258250
396.7229, 2.1407001E-02
397.2050, 6.3377000E-02
397.6872, 0.1897210
398.1693, 2.2580000E-03
398.6514, 0.3609830
399.1335, 0.6072380
399.6156, 0.2147910
400.0977, 5.9363000E-02
400.5798, 0.2224840
401.0620, 0.1054350
401.5441, 2.9317999E-02
402.0262, 4.2579998E-03
402.5083, 6.4190999E-02
402.9904, 5.4882001E-02
403.4725, 4.1150998E-02
403.9547, 4.0532999E-02
404.4368, 0.1139700
404.9189, 0.2578140
405.4010, 0.2907670
405.8831, 1.1579000E-02
406.3652, 4.2536002E-02
406.8474, 2.4834000E-02
407.3295, 7.0679998E-03
407.8116, 0.1407390
408.2937, 9.5893003E-02
408.7758, 3.2058999E-02
409.2579, 3.6433998E-02
409.7401, 0.1473300
410.2222, 2.7496999E-02
410.7043, 2.1098001E-02
411.1864, 0.1610500
411.6685, 0.2153900
412.1506, 6.8898000E-02
412.6328, 0.1864230
413.1149, 5.5089999E-02
413.5970, 4.9520000E-03
414.0791, 0.1300870
414.5612, 4.9310001E-03
415.0433, 2.5077000E-02
415.5255, 3.1700000E-02
416.0076, 5.2935999E-02
416.4897, 5.6143001E-02
416.9718, 4.2920001E-03
417.4539, 4.0959999E-02
417.9360, 7.7898003E-02
418.4182, 0.2143110
418.9003, 0.2853140
419.3824, 0.1885800
419.8645, 1.6944000E-02
420.3466, 4.7091000E-02
420.8287, 0.1967790
421.3109, 0.4112250
421.7930, 0.4735670
422.2751, 0.4429990
422.7572, 0.3737320
423.2393, 0.2770390
423.7214, 0.1614590
424.2036, 1.7224001E-02
424.6857, 2.0443000E-02
425.1678, 2.0715000E-02
425.6499, 2.0318000E-02
426.1320, 0.3965110
426.6141, 0.5494830
427.0963, 0.5039290
427.5784, 0.4467750
428.0605, 0.4814570
428.5426, 0.5419120
429.0247, 0.5074590
429.5068, 0.3652870
429.9890, 0.2390280
430.4711, 0.2082130
430.9532, 0.2547960
431.4353, 0.3076090
431.9174, 0.4202020
432.3995, 0.4614600
432.8817, 0.2860340
433.3638, 4.8000002E-05
433.8459, 7.2499999E-04
434.3280, 6.3160001E-03
434.8101, 6.9328003E-02
435.2922, 0.1510780
435.7744, 0.5297240
436.2565, 0.7494930
436.7386, 0.7091870
437.2207, 0.5791110
437.7028, 0.4249870
438.1849, 0.2794480
438.6671, 0.2216560
439.1492, 0.3232210
439.6313, 0.5398600
440.1134, 0.6207420
440.5955, 0.4205300
441.0776, 0.2622210
441.5598, 0.1535690
442.0418, 0.1178000
442.5240, 0.2376460
443.0061, 0.5060950
443.4882, 0.7393590
443.9703, 0.6447020
444.4524, 8.6479999E-02
444.9345, 2.5400001E-04
445.4167, 0.2030150
445.8988, 0.5877500
446.3809, 0.8247320
446.8630, 0.9227410
447.3451, 0.9256380
447.8272, 0.8411120
448.3094, 0.7090670
448.7915, 0.6611910
449.2736, 0.7391690
449.7557, 0.7658530
450.2378, 0.6013870
450.7199, 0.4339440
451.2021, 0.4267170
451.6842, 0.5881650
452.1663, 0.7503770
452.6484, 0.7404230
453.1305, 0.6097010
453.6126, 0.6292180
454.0948, 0.9127720
454.5769, 1.108841
455.0590, 0.8029120
455.5411, 0.2589530
456.0232, 2.9161001E-02
456.5053, 0.2115390
456.9875, 0.5364700
457.4696, 0.4953120
457.9517, 0.1397030
458.4338, 7.3183000E-02
458.9159, 1.4341000E-02
459.3980, 0.2030440
459.8802, 0.2518680
460.3623, 9.5119998E-02
460.8444, 7.8780003E-02
461.3265, 0.4344780
461.8086, 0.8046770
462.2907, 0.8242820
462.7729, 0.5289410
463.2550, 0.2579640
463.7371, 0.2379370
464.2192, 0.4413390
464.7013, 0.6369640
465.1834, 0.9510180
465.6656, 1.103382
466.1477, 0.8801200
466.6298, 0.5621120
467.1119, 0.4249860
467.5940, 0.5293520
468.0761, 0.7359560
468.5583, 0.8938550
469.0404, 1.019376
469.5225, 1.017277
470.0046, 0.6762090
470.4867, 0.4263730
470.9688, 0.4384810
471.4510, 0.6302110
471.9331, 0.8586520
472.4152, 1.052888
472.8973, 1.147187
473.3794, 0.9583800
473.8615, 0.3672770
474.3437, 2.4910001E-03
474.8258, 0.1712330
475.3079, 0.4624960
475.7900, 0.6747660
476.2721, 0.7827630
476.7542, 0.7892840
477.2364, 0.5899240
477.7185, 0.3076580
478.2006, 0.2690020
478.6827, 0.5303650
479.1648, 0.7591220
479.6469, 0.7477370
480.1291, 0.6328720
480.6112, 0.6307200
481.0933, 0.8211170
481.5754, 0.9479870
482.0575, 0.7799540
482.5396, 0.4691250
483.0217, 0.3426960
483.5038, 0.4836890
483.9860, 0.7021510
484.4681, 0.8515340
484.9502, 0.9253580
485.4323, 0.9022050
485.9144, 0.6709450
486.3965, 0.4679250
486.8787, 0.4192790
487.3608, 0.4638550
487.8429, 0.4833300
488.3250, 0.4305210
488.8071, 0.3455370
489.2892, 0.2935230
489.7714, 0.2527230
490.2535, 0.3034550
490.7356, 0.5380250
491.2177, 0.7609830
491.6998, 0.9003300
492.1819, 0.9462730
492.6641, 0.8547280
493.1462, 0.5592610
493.6283, 0.1809360
494.1104, 0.1512450
494.5925, 0.6798390
495.0746, 0.9867540
495.5568, 0.6196410
496.0389, 0.1528890
496.5210, 1.1204000E-02
497.0031, 0.1590260
497.4852, 0.4090620
497.9673, 0.6601810
498.4495, 0.8654650
498.9316, 0.8393840
499.4137, 0.5178270
499.8958, 0.2425140
500.3779, 0.2497750
500.8600, 0.4231580
501.3422, 0.4965730
501.8243, 0.3680320
502.3064, 0.3326270
502.7885, 0.3726030
503.2706, 0.7046580
503.7527, 0.8767520
504.2349, 0.8974610
504.7170, 0.3133800
505.1991, 0.5103240
505.6812, 0.3942950
506.1633, 0.2041420
506.6454, 0.1102410
507.1276, 0.1070580
507.6097, 0.2312280
508.0918, 0.4163170
508.5739, 0.5646440
509.0560, 0.6349210
509.5381, 0.6248480
510.0203, 0.5050130
510.5024, 0.1795480
510.9845, 7.9673998E-02
511.4666, 0.5293950
511.9487, 0.8852090
512.4308, 0.8811370
512.9130, 0.5980330
513.3951, 0.1844660
513.8772, 2.2480000E-02
514.3593, 0.2282560
514.8414, 0.3112320
515.3235, 3.7549000E-02
515.8057, 4.4663001E-02
516.2878, 0.2288280
516.7699, 0.4985540
517.2520, 0.4218240
517.7341, 5.0283000E-02
518.2162, 1.2217000E-02
518.6984, 3.7560001E-02
519.1805, 9.9252999E-02
519.6626, 0.1228840
520.1447, 0.4608420
520.6268, 0.6492460
521.1089, 0.5300140
521.5911, 0.2326500
522.0732, 7.5854003E-02
522.5553, 8.2168996E-02
523.0374, 0.1068510
523.5195, 0.1211750
524.0016, 0.1468450
524.4838, 0.1743740
524.9659, 0.2226920
525.4480, 8.7476000E-02
525.9301, 0.4365890
526.4122, 0.6257380
526.8943, 0.6635040
527.3765, 9.6469000E-02
527.8586, 0.3104200
528.3407, 0.2113930
528.8228, 5.6938998E-02
529.3049, 5.6747999E-02
529.7870, 6.4626999E-02
530.2692, 8.9414999E-02
530.7513, 0.1609020
531.2334, 0.1341470
531.7155, 0.2093680
532.1976, 0.4493930
532.6797, 0.6432150
533.1619, 0.6917540
533.6440, 0.6511200
534.1261, 0.5396350
534.6082, 0.3432130
535.0903, 0.2109810
535.5724, 0.3589850
536.0546, 0.6162670
536.5367, 0.5166510
537.0188, 3.1505000E-02
537.5009, 6.4646997E-02
537.9830, 1.5574000E-02
538.4651, 0.6206050
538.9473, 1.052880
539.4294, 0.9393480
539.9115, 0.7490390
540.3936, 0.5572850
540.8757, 0.3856870
541.3578, 0.2421960
541.8400, 0.1368230
542.3221, 0.1207960
542.8042, 0.2704840
543.2863, 0.5909240
543.7684, 0.7636100
544.2505, 0.6541100
544.7326, 0.5503580
545.2147, 0.4828470
545.6968, 0.4601130
546.1790, 0.5077050
546.6611, 0.6260890
547.1432, 0.7474990
547.6253, 0.8152410
548.1074, 0.8274200
548.5895, 0.7323630
549.0717, 0.4495640
549.5538, 0.2293670
550.0359, 0.3144940
550.5180, 0.5348440
551.0001, 0.6284460
551.4822, 0.5044800
551.9644, 0.3692840
552.4465, 0.3994780
552.9286, 0.5013230
553.4107, 0.4183720
553.8928, 9.4374001E-02
554.3749, 4.5752998E-02
554.8571, 0.1141020
555.3392, 0.8101840
555.8213, 1.068042
556.3034, 0.4815010
556.7855, 2.0333000E-02
557.2676, 2.8926000E-02
557.7498, 0.2507380
558.2319, 0.3946120
558.7140, 0.3849920
559.1961, 0.2995850
559.6782, 0.2088680
560.1603, 0.1127970
560.6425, 8.1855997E-02
561.1246, 0.1443770
561.6067, 0.2457650
562.0888, 0.3612800
562.5709, 0.4824010
563.0530, 0.6381740
563.5352, 0.8550260
564.0173, 0.9623330
564.4994, 0.7214230
564.9815, 0.2497540
565.4636, 6.9225997E-02
565.9457, 3.5271000E-02
566.4279, 4.8765000E-02
566.9100, 3.3199999E-03
567.3921, 4.3363001E-02
567.8742, 0.1736380
568.3563, 0.6368890
568.8384, 0.9577590
569.3206, 0.9324830
569.8027, 0.7299840
570.2848, 0.5140550
570.7669, 0.3309450
571.2490, 0.2268280
571.7311, 0.2244400
572.2133, 0.2971500
572.6954, 0.3009430
573.1775, 0.1860260
573.6596, 0.1253420
574.1417, 0.1392210
574.6238, 0.1980700
575.1060, 0.3160520
575.5881, 0.4743690
576.0702, 0.5744840
576.5523, 0.5479290
577.0344, 0.4158790
577.5165, 0.2002610
577.9987, 1.6703000E-02
578.4808, 8.1271000E-02
578.9629, 6.8784997E-02
579.4450, 5.6646999E-02
579.9271, 2.5625000E-02
580.4092, 0.4567420
580.8914, 0.7390780
581.3735, 0.6369370
581.8556, 0.4032380
582.3377, 0.3306240
582.8198, 0.4129950
583.3019, 0.4692020
583.7841, 0.3865210
584.2662, 0.2293460
584.7483, 0.1817320
585.2304, 0.4355750
585.7125, 0.4756930
586.1946, 4.0240999E-02
586.6768, 6.3527003E-02
587.1589, 6.4884998E-02
587.6410, 7.2380002E-03
588.1231, 0.1732990
588.6052, 0.5626550
589.0873, 0.8923420
589.5695, 0.9227820
590.0516, 0.6002210
590.5337, 0.3683960
591.0158, 0.3462240
591.4979, 0.4009200
591.9800, 0.4098060
592.4622, 0.3939090
592.9443, 0.4425620
593.4264, 0.6735050
593.9085, 0.8976670
594.3906, 0.9430820
594.8727, 0.8524940
595.3549, 0.7369590
595.8370, 0.6631640
596.3191, 0.5976450
596.8012, 0.4833640
597.2833, 0.2988980
597.7654, 0.2219230
598.2476, 0.3554210
598.7297, 0.4605330
599.2118, 0.4409870
599.6939, 0.3599450
600.1760, 0.2951570
600.6581, 0.2722210
601.1403, 0.2809510
601.6224, 0.3259030
602.1045, 0.4041190
602.5866, 0.4411350
603.0687, 0.4275130
603.5508, 0.3926120
604.0330, 0.3248420
604.5151, 0.2547450
604.9972, 0.2128660
605.4793, 0.1936930
605.9614, 0.2448080
606.4435, 0.5022560
606.9257, 0.7898460
607.4078, 0.8197430
607.8899, 0.5934930
608.3720, 0.3514350
608.8541, 0.2431000
609.3362, 0.2324020
609.8184, 0.2043710
610.3005, 4.4698000E-02
610.7826, 3.7312999E-02
611.2647, 0.3767710
611.7468, 0.6923090
612.2289, 0.7036680
612.7111, 0.4936060
613.1932, 0.2851850
613.6753, 0.2117500
614.1574, 0.2320750
614.6395, 0.2682150
615.1216, 0.3282460
615.6038, 0.3650130
616.0859, 0.3797750
616.5680, 0.3498200
617.0501, 0.2442180
617.5322, 7.7422000E-02
618.0143, 6.3656002E-02
618.4965, 6.0304999E-02
618.9786, 0.1416620
619.4607, 5.0314002E-02
619.9428, 5.8217000E-02
620.4249, 7.2062001E-02
620.9070, 0.3770460
621.3892, 0.5984500
621.8713, 0.6526520
622.3534, 0.5421790
622.8355, 0.4421410
623.3176, 0.3412830
623.7997, 0.2533520
624.2819, 0.1630710
624.7640, 0.1090640
625.2461, 0.1470870
625.7282, 0.2686380
626.2103, 0.3816590
626.6924, 0.4405410
627.1745, 0.4335830
627.6566, 0.2883270
628.1387, 1.2105000E-02
628.6208, 2.6628001E-02
629.1030, 2.3267999E-02
629.5851, 1.3405000E-02
630.0672, 6.9633000E-02
630.5493, 8.9015000E-02
631.0314, 0.1029610
631.5135, 8.5706003E-02
631.9957, 9.8344997E-02
632.4778, 0.1852170
632.9599, 0.3306470
633.4420, 0.5127820
633.9241, 0.7301810
634.4063, 0.9436880
634.8884, 1.120625
635.3705, 1.275015
635.8526, 1.308006
636.3347, 1.157109
636.8168, 0.9769530
637.2990, 0.7567340
637.7811, 0.5666620
638.2632, 0.5033770
638.7453, 0.5936640
639.2274, 0.6814480
639.7095, 0.6401640
640.1917, 0.5321170
640.6738, 0.4578240
641.1559, 0.4256470
641.6380, 0.4378130
642.1201, 0.5031990
642.6022, 0.6066800
643.0844, 0.6983390
643.5665, 0.7590940
644.0486, 0.8287550
644.5307, 0.8900200
645.0128, 0.9813270
645.4949, 1.174316
645.9771, 1.375057
646.4592, 1.446198
646.9413, 1.324860
647.4234, 1.117374
647.9055, 0.9648140
648.3876, 0.8663860
648.8698, 0.7748220
649.3519, 0.6620600
649.8340, 0.6140120
650.3161, 0.7385990
650.7982, 0.9512390
651.2803, 1.090930
651.7625, 1.160060
652.2446, 1.121749
652.7267, 0.8758780
653.2088, 0.5686640
653.6909, 0.2974550
654.1730, 0.1103390
654.6552, 0.1694840
655.1373, 0.5931810
655.6194, 1.173306
656.1015, 1.350814
656.5836, 0.9052460
657.0657, 0.6343080
657.5479, 0.7065810
658.0300, 0.8423260
658.5121, 0.9974330
658.9942, 1.117858
659.4763, 1.096843
659.9584, 0.8683240
660.4406, 0.5943200
660.9227, 0.3899220
661.4048, 0.2558230
661.8869, 0.1976930
662.3690, 0.2170910
662.8511, 0.2889550
663.3333, 0.3997960
663.8154, 0.5472420
664.2975, 0.7205210
664.7796, 1.129796
665.2617, 1.262038
665.7438, 0.8661330
666.2260, 0.3980550
666.7081, 8.3630003E-02
667.1902, 3.4247000E-02
667.6723, 9.3653999E-02
668.1544, 0.5339920
668.6365, 1.044175
669.1187, 1.264722
669.6008, 1.200833
670.0829, 0.9274160
670.5650, 0.3562610
671.0471, 1.3525000E-02
671.5292, 5.9850000E-02
672.0114, 1.6074000E-02
672.4935, 7.5556003E-02
672.9756, 0.3087660
673.4577, 0.4935100
673.9398, 0.6118950
674.4219, 0.6387010
674.9041, 0.4629000
675.3862, 0.1640550
675.8683, 2.1988999E-02
676.3504, 0.2239560
676.8325, 0.6033960
677.3146, 0.7584570
677.7968, 0.6353730
678.2789, 0.5699780
678.7610, 0.5954140
679.2431, 0.6544820
679.7252, 0.7593350
680.2073, 0.8680380
680.6895, 0.8630310
681.1716, 0.6824590
681.6537, 0.5013820
682.1358, 0.4498490
682.6179, 0.4449220
683.1000, 0.3168050
683.5822, 8.2020000E-02
684.0643, 5.7709999E-03
684.5464, 0.2415760
685.0285, 0.6485340
685.5106, 0.6702990
685.9927, 1.3378000E-02
686.4749, 3.1580001E-02
686.9570, 2.5134001E-02
687.4391, 0.3838610
687.9212, 0.3719440
688.4033, 0.1613210
688.8854, 0.1288640
689.3676, 0.4484920
689.8497, 0.7179840
690.3318, 0.4852760
690.8139, 1.4687000E-02
691.2960, 2.1397000E-02
691.7781, 3.8892999E-02
692.2603, 7.6150000E-03
692.7424, 4.1026998E-02
693.2245, 4.3040000E-02
693.7066, 3.4028001E-02
694.1887, 3.5110999E-02
694.6708, 1.2268000E-02
695.1530, 0.1016660
695.6351, 0.3035690
696.1172, 0.3609630
696.5993, 0.3490680
697.0814, 0.4352370
697.5635, 0.6922520
698.0457, 0.8950380
698.5278, 0.7596110
699.0099, 0.3886870
699.4920, 9.7030997E-02
699.9741, 1.6169000E-02
700.4562, 2.6125999E-02
700.9384, 1.6287999E-02
701.4205, 6.2119998E-03
701.9026, 2.1702999E-02
702.3847, 0.1422980
702.8668, 0.1979950
703.3489, 3.1207001E-02
703.8311, 0.3135860
704.3132, 0.3776730
704.7953, 0.2708060
705.2774, 0.1835050
705.7595, 0.1777580
706.2416, 0.2072610
706.7238, 0.2195800
707.2059, 0.2248570
707.6880, 0.2951800
708.1701, 0.4505110
708.6522, 0.5094930
709.1343, 0.3485800
709.6164, 0.1093080
710.0985, 2.8543999E-02
710.5806, 0.1361990
711.0627, 0.1719230
711.5449, 3.0367000E-02
712.0270, 2.7354000E-02
712.5091, 2.9498000E-02
712.9912, 1.9700000E-02
713.4733, 7.3136002E-02
713.9554, 0.1671630
714.4376, 0.2588200
714.9197, 0.3673300
715.4018, 0.4683870
715.8839, 0.4325390
716.3660, 0.2263860
716.8481, 0.1575330
717.3303, 0.4048160
717.8124, 0.7067300
718.2945, 0.7449400
718.7766, 0.5428400
719.2587, 0.3887570
719.7408, 0.3404630
720.2230, 0.3044460
720.7051, 0.2032420
721.1872, 0.1174630
721.6693, 0.1561810
722.1514, 0.3193430
722.6335, 0.5400420
723.1157, 0.8018790
723.5978, 1.043725
724.0799, 1.083328
724.5620, 0.9050350
725.0441, 0.6685340
725.5262, 0.3523600
726.0084, 9.7893998E-02
726.4905, 0.1120220
726.9726, 0.3076180
727.4547, 0.3282230
727.9368, 1.5480000E-02
728.4189, 0.1847300
728.9011, 0.1249180
729.3832, 0.6167940
729.8653, 0.5963150
730.3474, 0.1574670
730.8295, 8.5703999E-02
731.3116, 0.1162310
731.7938, 2.3378000E-02
732.2759, 0.2850670
732.7580, 0.7049280
733.2401, 0.8676700
733.7222, 0.6563470
734.2043, 0.3934840
734.6865, 0.2353180
735.1686, 0.1623150
735.6507, 0.1327180
736.1328, 0.1663160
736.6149, 0.1744430
737.0970, 3.9340999E-02
737.5792, 2.2380000E-03
738.0613, 0.1891910
738.5434, 0.5595970
739.0255, 0.7826520
739.5076, 0.7574860
739.9897, 0.5945690
740.4719, 0.3865010
740.9540, 0.1474590
741.4361, 2.1470001E-03
741.9182, 9.1856003E-02
742.4003, 9.9730000E-02
742.8824, 2.9829999E-02
743.3646, 0.3336050
743.8467, 0.5301590
744.3288, 0.6053730
744.8109, 0.6792180
745.2930, 0.7235270
745.7751, 0.7765110
746.2573, 0.9177020
746.7394, 1.040046
747.2215, 0.9614800
747.7036, 0.7018890
748.1857, 0.5073560
748.6678, 0.5969330
749.1500, 0.8044960
749.6321, 0.7633000
750.1142, 0.4788340
750.5963, 0.2581470
751.0784, 0.1711470
751.5605, 0.1258590
752.0427, 4.1448999E-02
752.5248, 1.8716000E-02
753.0069, 9.0990001E-03
753.4890, 6.2600002E-03
753.9711, 1.7810000E-02
754.4532, 7.0941001E-02
754.9354, 0.2025340
755.4175, 0.2765280
755.8996, 0.2870300
756.3817, 0.1985470
756.8638, 1.6115000E-02
757.3459, 4.1063000E-02
757.8281, 0.1299670
758.3102, 0.6921390
758.7923, 0.8838450
759.2744, 0.6542670
759.7565, 0.3731740
760.2386, 0.1937780
760.7208, 9.4016001E-02
761.2029, 3.5695001E-02
761.6850, 2.4181001E-02
762.1671, 6.4997002E-02
762.6492, 0.2723030
763.1313, 0.7496230
763.6135, 1.016445
764.0956, 1.084278
764.5777, 0.3559870
765.0598, 0.6555540
765.5419, 0.5432520
766.0240, 0.4141060
766.5062, 0.8584470
766.9883, 0.2461290
767.4704, 0.6075120
767.9525, 0.7318210
768.4346, 0.6898490
768.9167, 0.5532000
769.3989, 0.3606480
769.8810, 0.1337890
770.3631, 7.2269998E-02
770.8452, 0.3938600
771.3273, 0.4918790
771.8094, 8.0466002E-02
772.2916, 1.2944000E-02
772.7737, 7.3753998E-02
773.2558, 5.2678999E-02
773.7379, 1.7886000E-02
774.2200, 2.2201000E-02
774.7021, 1.1585000E-02
775.1843, 3.4919001E-02
775.6664, 0.1660400
776.1485, 0.5625600
776.6306, 1.057275
777.1127, 1.233848
777.5948, 0.9010640
778.0770, 0.3529930
778.5591, 1.3464000E-02
779.0412, 3.7760999E-02
779.5233, 2.0058000E-02
780.0054, 5.9199999E-03
780.4875, 0.1545490
780.9697, 0.4284360
781.4518, 0.6300840
781.9339, 0.4906800
782.4160, 4.9428999E-02
782.8981, 2.3380000E-02
783.3802, 2.9472999E-02
783.8624, 0.2032800
784.3445, 0.3631820
784.8266, 0.4274840
785.3087, 0.2910820
785.7908, 1.5840000E-03
786.2729, 5.5499999E-03
786.7551, 1.5233000E-02
787.2372, 0.3269540
787.7193, 0.2980860
788.2014, 6.5738000E-02
788.6835, 1.9300000E-04
789.1656, 1.2522000E-02
789.6478, 5.1713999E-02
790.1299, 6.2017001E-02
790.6120, 1.7433001E-02
791.0941, 3.6557000E-02
791.5762, 0.7525440
792.0583, 1.144571
792.5404, 0.7727890
793.0225, 0.3375930
793.5046, 0.1109630
793.9868, 4.5612998E-02
794.4689, 6.5456003E-02
794.9510, 0.1462230
795.4331, 4.0389001E-02
795.9152, 0.4153020
796.3973, 0.6368830
796.8795, 0.7134530
797.3616, 0.2102090
797.8437, 0.4558410
798.3258, 0.4015070
798.8079, 0.3349280
799.2900, 0.6816880
799.7722, 0.2573000
800.2543, 0.5958150
800.7364, 0.6359110
801.2185, 0.8156950
801.7006, 0.6936380
802.1827, 0.6887090
802.6649, 0.8416180
803.1470, 0.9629560
803.6291, 0.8875550
804.1112, 0.5418290
804.5933, 0.2264750
805.0754, 7.8313001E-02
805.5576, 4.4764001E-02
806.0397, 0.1323170
806.5218, 0.2825730
807.0039, 0.3611660
807.4860, 0.3260390
807.9681, 0.2668690
808.4503, 0.2811490
808.9324, 0.3576000
809.4145, 0.4552710
809.8966, 0.5927570
810.3787, 0.6138040
810.8608, 0.4103130
811.3430, 0.2241640
811.8251, 0.3395430
812.3072, 0.6911720
812.7893, 0.7908250
813.2714, 0.3488410
813.7535, 9.0255000E-02
814.2357, 0.2582500
814.7178, 0.5092400
815.1999, 0.5964300
815.6820, 0.5921590
816.1641, 0.6987840
816.6462, 0.9926570
817.1284, 1.207488
817.6105, 1.009483
818.0926, 0.6017780
818.5747, 0.3627230
819.0568, 0.2910730
819.5389, 0.3054110
820.0211, 0.3883610
820.5032, 0.4367760
820.9853, 0.2914710
821.4674, 1.3055000E-02
821.9495, 0.1011660
822.4316, 0.9793970
822.9138, 1.521796
823.3959, 1.314337
823.8780, 0.9352420
824.3601, 0.7305010
824.8422, 0.6549340
825.3243, 0.5712660
825.8065, 0.4177860
826.2886, 0.3523670
826.7707, 0.5405530
827.2528, 0.7537330
827.7349, 0.7597580
828.2170, 0.6301490
828.6992, 0.5839140
829.1813, 0.6884950
829.6634, 0.3969360
830.1455, 0.7552500
830.6276, 0.9579350
831.1097, 1.016619
831.5919, 0.4965290
832.0740, 0.7285420
832.5561, 0.6615600
833.0382, 0.5886840
833.5203, 0.9354000
834.0024, 0.5047100
834.4846, 0.6006140
834.9667, 0.8964600
835.4488, 1.075115
835.9309, 1.142874
836.4130, 0.7675600
836.8951, 0.9599400
837.3773, 0.9230450
837.8594, 0.8809410
838.3415, 1.158369
838.8236, 0.8475750
839.3057, 0.9338080
839.7878, 1.358970
840.2700, 0.7274990
840.7521, 1.139432
841.2342, 1.143726
841.7163, 0.7188020
842.1984, 0.4358120
842.6805, 0.5374800
843.1627, 0.8726060
843.6448, 0.9477380
844.1269, 0.7280250
844.6090, 0.6228240
845.0911, 0.7257550
845.5732, 0.8827600
846.0554, 1.004458
846.5375, 1.090819
847.0196, 1.129596
847.5017, 1.124057
847.9838, 1.046142
848.4659, 0.7914130
848.9481, 0.5970650
849.4302, 0.5428700
849.9123, 0.5866690
850.3944, 0.7036000
850.8765, 0.8759350
851.3586, 1.008232
851.8408, 0.9927060
852.3229, 0.9899080
852.8050, 1.159796
853.2871, 1.413241
853.7692, 1.615627
854.2513, 1.736181
854.7335, 1.679788
855.2156, 1.401268
855.6977, 1.044746
856.1798, 0.8445630
856.6619, 0.8236410
857.1440, 0.9958670
857.6262, 1.472067
858.1083, 1.622981
858.5904, 0.7898940
859.0725, 1.091766
859.5546, 1.274728
860.0367, 1.346789
860.5189, 0.9757910
861.0010, 1.121155
861.4831, 1.052590
861.9652, 0.8868220
862.4473, 0.7329890
862.9294, 0.6793030
863.4116, 0.7202020
863.8937, 0.8265920
864.3758, 1.027170
864.8579, 1.162515
865.3400, 1.106195
865.8221, 0.9800930
866.3043, 0.8497480
866.7864, 0.7219000
867.2685, 0.6318690
867.7506, 0.5944790
868.2327, 0.6298120
868.7148, 0.7997590
869.1970, 1.025470
869.6791, 0.9870590
870.1612, 0.6842810
870.6433, 0.5246500
871.1254, 0.6057800
871.6075, 0.7880430
872.0897, 0.9967530
872.5718, 1.199461
873.0539, 1.283047
873.5360, 1.173255
874.0181, 1.116853
874.5002, 1.125108
874.9823, 1.180124
875.4644, 1.387508
875.9465, 1.572112
876.4286, 1.500069
876.9108, 1.166812
877.3929, 0.8493280
877.8750, 0.6048340
878.3571, 0.4446890
878.8392, 0.4200280
879.3214, 0.4711990
879.8035, 0.5878020
880.2856, 0.7137480
880.7677, 0.6722500
881.2498, 0.3568230
881.7319, 5.2707002E-02
882.2141, 0.1849560
882.6962, 0.6033370
883.1783, 0.8436860
883.6604, 0.9163120
884.1425, 1.026235
884.6246, 1.254667
885.1068, 1.419377
885.5889, 1.306511
886.0710, 0.9618580
886.5531, 0.6823410
887.0352, 0.4782220
887.5173, 0.3096730
887.9995, 0.1792540
888.4816, 7.1993001E-02
888.9637, 2.3321999E-02
889.4458, 7.1462996E-02
889.9279, 1.4870000E-03
890.4100, 4.6386000E-02
890.8922, 4.6565000E-02
891.3743, 0.1518210
891.8564, 0.4521620
892.3385, 0.4564900
892.8206, 0.3274830
893.3027, 0.2355500
893.7849, 0.2231200
894.2670, 0.2259740
894.7491, 0.2299660
895.2312, 0.2519700
895.7133, 0.3336870
896.1954, 0.4230240
896.6776, 0.4394090
897.1597, 0.3792880
897.6418, 0.2217600
898.1239, 3.6238000E-02
898.6060, 5.4572001E-02
899.0881, 5.9735999E-02
899.5703, 0.6097150
900.0524, 0.5647330
900.5345, 2.5648000E-02
901.0166, 7.8086004E-02
901.4987, 1.5768001E-02
901.9808, 4.3567002E-02
902.4630, 0.1468440
902.9451, 7.7101998E-02
903.4272, 1.8422000E-02
903.9093, 4.2408999E-02
904.3914, 6.1172001E-02
904.8735, 1.1995000E-02
905.3557, 6.4802997E-02
905.8378, 1.3537000E-02
906.3199, 4.8404001E-02
906.8020, 1.2532000E-02
907.2841, 0.1898480
907.7662, 0.2840290
908.2484, 0.1191960
908.7305, 2.6280001E-02
909.2126, 3.3473998E-02
909.6947, 1.0858000E-02
910.1768, 0.1246300
910.6589, 0.3956920
911.1411, 0.4620910
911.6232, 4.0886998E-02
912.1053, 3.0655000E-02
912.5874, 2.3615001E-02
913.0695, 9.5490003E-03
913.5516, 0.2287230
914.0338, 6.0213000E-02
914.5159, 4.8792001E-02
914.9980, 6.4185999E-02
915.4801, 3.2106999E-02
915.9622, 4.8757002E-02
916.4443, 2.2303000E-02
916.9265, 0.1341580
917.4086, 0.4194480
917.8907, 0.4142450
918.3728, 2.3902999E-02
918.8549, 2.8346000E-02
919.3370, 4.0417001E-02
919.8192, 3.1590001E-03
920.3013, 1.5516000E-02
920.7834, 6.7806996E-02
921.2655, 0.1505510
921.7476, 0.3655030
922.2297, 0.3790970
922.7119, 4.1793000E-02
923.1940, 0.2925860
923.6761, 0.2794620
924.1582, 1.4446000E-02
924.6403, 2.8488001E-02
925.1224, 1.1242000E-02
925.6046, 7.3900998E-02
926.0867, 0.1845390
926.5688, 0.2883640
927.0509, 0.3586690
927.5330, 0.4042570
928.0151, 0.4490830
928.4973, 0.4839580
928.9794, 0.4565480
929.4615, 0.3212910
929.9436, 0.1739270
930.4257, 4.5643002E-02
930.9078, 1.3186000E-02
931.3900, 0.1576620
931.8721, 0.4643640
932.3542, 0.5794660
932.8363, 0.4043350
933.3184, 0.1759600
933.8005, 0.1369360
934.2827, 0.2098790
934.7648, 0.1384330
935.2469, 2.1550000E-02
935.7290, 4.8384000E-02
936.2111, 0.4966610
936.6932, 0.7942290
937.1754, 0.6065330
937.6575, 0.2249590
938.1396, 0.2179070
938.6217, 0.6294340
939.1038, 0.8024500
939.5859, 0.6811690
940.0681, 0.4704630
940.5502, 0.1366490
941.0323, 2.1314001E-02
941.5144, 4.6766002E-02
941.9965, 5.1920000E-03
942.4786, 1.7672000E-02
942.9608, 0.2931120
943.4429, 0.5709340
943.9250, 0.7949070
944.4071, 0.8854060
944.8892, 0.7119100
945.3713, 0.4626080
945.8535, 0.2979420
946.3356, 0.2301740
946.8177, 0.2627520
947.2998, 0.4978630
947.7819, 0.6700620
948.2640, 0.5210290
948.7462, 0.3564710
949.2283, 0.6188020
949.7104, 1.052270
950.1925, 1.000630
950.6746, 0.3122510
951.1567, 4.0801998E-02
951.6389, 1.8440000E-03
952.1210, 0.4887480
952.6031, 0.7044350
953.0852, 0.6836750
953.5673, 0.5187490
954.0494, 0.2735660
954.5316, 0.1571560
955.0137, 0.2862360
955.4958, 0.4911290
955.9779, 0.5093610
956.4600, 0.3813500
956.9421, 0.3638070
957.4242, 0.4429110
957.9063, 0.4147910
958.3884, 0.2039330
958.8705, 3.4709999E-03
959.3527, 5.3450000E-03
959.8348, 8.7435998E-02
960.3169, 0.3330010
960.7990, 0.7703280
961.2811, 0.9842470
961.7632, 0.9207270
962.2454, 0.7412580
962.7275, 0.4127830
963.2096, 0.1365800
963.6917, 0.1587810
964.1738, 0.4486330
964.6559, 0.6659580
965.1381, 0.8880390
965.6202, 0.9002130
966.1023, 0.5013320
966.5844, 0.1209250
967.0665, 8.0537997E-02
967.5486, 1.6190000E-03
968.0308, 1.8114001E-02
968.5129, 0.4325040
968.9950, 0.6976060
969.4771, 0.5010580
969.9592, 0.3135720
970.4413, 0.2938340
970.9235, 0.3075270
971.4056, 0.1933560
971.8877, 2.6543999E-02
972.3698, 0.1006160
972.8519, 0.4709530
973.3340, 0.7376660
973.8162, 0.5919380
974.2983, 0.3446300
974.7804, 0.1815490
975.2625, 0.1104480
975.7446, 0.1928050
976.2267, 0.3756100
976.7089, 0.4758470
977.1910, 0.4251950
977.6731, 0.3133140
978.1552, 2.1309000E-02
978.6373, 4.7756001E-02
979.1194, 2.7683999E-02
979.6016, 0.4780330
980.0837, 0.7731490
980.5658, 0.8602840
981.0479, 0.1297040
981.5300, 0.4276810
982.0121, 0.3307310
982.4943, 0.2253310
982.9764, 0.6976740
983.4585, 0.1133350
983.9406, 0.5765650
984.4227, 0.2795100
984.9048, 0.2542110
985.3870, 0.3004730
985.8691, 0.2926420
986.3512, 0.2422560
986.8333, 0.1556800
987.3154, 5.9830002E-03
987.7975, 0.1049590
988.2797, 0.5818630
988.7618, 0.8233080
989.2439, 0.4881820
989.7260, 4.0622000E-02
990.2081, 5.5103000E-02
990.6902, 0.4637520
991.1724, 0.5998480
991.6545, 0.2663180
992.1366, 0.1212750
992.6187, 0.2773220
993.1008, 0.5194520
993.5829, 0.9311600
994.0651, 1.266141
994.5472, 1.093775
995.0293, 0.3927100
995.5114, 3.7797999E-02
995.9935, 2.7822001E-02
996.4756, 1.8025000E-02
996.9578, 1.5486000E-02
997.4399, 4.1740999E-02
997.9220, 0.5031280
998.4041, 1.017975
998.8862, 0.9277510
999.3683, 0.1598740
999.8505, 1.1148000E-02
1000.333, 6.0467001E-02
1000.815, 4.4597998E-02
1001.297, 3.5355002E-02
1001.779, 0.2249620
1002.261, 4.7155000E-02
1002.743, 7.7769998E-03
1003.225, 8.2675003E-02
1003.707, 0.4766780
1004.190, 0.9919640
1004.672, 0.7387590
1005.154, 0.3653570
1005.636, 0.2662110
1006.118, 0.3514970
1006.600, 0.6474550
1007.082, 1.000256
1007.564, 0.9890170
1008.046, 0.4539730
1008.529, 1.2324000E-02
1009.011, 0.1605950
1009.493, 0.5398030
1009.975, 0.6414210
1010.457, 0.5565050
1010.939, 0.4390950
1011.421, 0.3304850
1011.903, 0.2519580
1012.385, 0.2144650
1012.868, 0.2032300
1013.350, 0.2339310
1013.832, 0.2616070
1014.314, 0.1647940
1014.796, 3.1310001E-03
1015.278, 4.2240001E-02
1015.760, 1.1956000E-02
1016.242, 1.7460000E-02
1016.725, 3.6782999E-02
1017.207, 1.6412999E-02
1017.689, 0.1845030
1018.171, 0.7282470
1018.653, 1.018516
1019.135, 1.056107
1019.617, 0.7777320
1020.099, 0.1936930
1020.581, 6.2859999E-03
1021.064, 0.2951630
1021.546, 0.9853210
1022.028, 1.035426
1022.510, 0.5093600
1022.992, 0.3828720
1023.474, 0.2780560
1023.956, 0.7641090
1024.438, 1.039233
1024.921, 1.110961
1025.403, 0.3882880
1025.885, 0.6910530
1026.367, 0.5873030
1026.849, 0.4666490
1027.331, 0.5501080
1027.813, 0.1641300
1028.295, 5.6867000E-02
1028.777, 1.2048000E-02
1029.260, 0.1969960
1029.742, 0.5046050
1030.224, 0.8422040
1030.706, 1.003145
1031.188, 0.9708790
1031.670, 0.8549770
1032.152, 0.5778610
1032.634, 0.4439380
1033.116, 0.6422470
1033.599, 0.8003670
1034.081, 0.5368960
1034.563, 2.9262001E-02
1035.045, 4.2353000E-02
1035.527, 8.8795997E-02
1036.009, 0.2872750
1036.491, 0.4131470
1036.973, 0.5330040
1037.456, 0.6680860
1037.938, 0.7957060
1038.420, 0.8504790
1038.902, 0.8277840
1039.384, 0.7204930
1039.866, 0.4773370
1040.348, 0.3004520
1040.830, 0.1171970
1041.313, 7.9200998E-02
1041.795, 0.3255240
1042.277, 0.6396890
1042.759, 0.9381150
1043.241, 1.161381
1043.723, 1.084703
1044.205, 0.5308550
1044.687, 0.1670500
1045.169, 0.1178410
1045.651, 0.1329730
1046.134, 0.1412140
1046.616, 0.1883570
1047.098, 0.3733470
1047.580, 0.6229570
1048.062, 0.7146050
1048.544, 0.5724990
1049.026, 0.4719620
1049.508, 0.4909030
1049.991, 0.5017070
1050.473, 0.4839120
1050.955, 0.4218030
1051.437, 0.1876150
1051.919, 3.9044999E-02
1052.401, 1.2301000E-02
1052.883, 0.6680230
1053.365, 1.072424
1053.848, 0.8566580
1054.330, 0.6260840
1054.812, 0.6025660
1055.294, 0.6650600
1055.776, 0.7766080
1056.258, 0.8647180
1056.740, 0.7202990
1057.222, 0.2331100
1057.704, 4.2719999E-03
1058.187, 0.4567190
1058.669, 0.8774450
1059.151, 0.9584380
1059.633, 0.8547070
1060.115, 0.6633440
1060.597, 0.4109900
1061.079, 9.3295999E-02
1061.561, 2.5539999E-03
1062.043, 4.7621999E-02
1062.526, 0.2264460
1063.008, 0.7937120
1063.490, 0.8540960
1063.972, 0.7251160
1064.454, 0.6241520
1064.936, 0.5809340
1065.418, 0.5996350
1065.900, 0.6934760
1066.383, 0.8139860
1066.865, 1.101667
1067.347, 1.215924
1067.829, 0.7637100
1068.311, 0.2852070
1068.793, 0.3140840
1069.275, 0.6234240
1069.757, 0.7471320
1070.240, 0.5964750
1070.722, 0.4029930
1071.204, 0.1376920
1071.686, 2.6484000E-02
1072.168, 0.3192250
1072.650, 0.6451290
1073.132, 0.6414170
1073.614, 0.4863050
1074.096, 0.4892290
1074.578, 0.6863780
1075.061, 0.8862480
1075.543, 1.088972
1076.025, 1.135769
1076.507, 0.8324010
1076.989, 0.4952330
1077.471, 0.4239060
1077.953, 0.4569160
1078.435, 0.2142230
1078.918, 3.0220000E-03
1079.400, 4.1117001E-02
1079.882, 0.3587580
1080.364, 0.9850540
1080.846, 1.105438
1081.328, 0.9328540
1081.810, 0.3433190
1082.292, 6.6100000E-03
1082.774, 4.9054999E-02
1083.257, 0.1547520
1083.739, 0.4987820
1084.221, 0.4758730
1084.703, 0.4080520
1085.185, 0.4596520
1085.667, 0.5035910
1086.149, 0.4184470
1086.631, 0.2946050
1087.114, 0.2378870
1087.596, 0.2292600
1088.078, 0.1533120
1088.560, 5.1406998E-02
1089.042, 3.9106999E-02
1089.524, 4.1336000E-02
1090.006, 5.4299001E-02
1090.488, 0.4821170
1090.970, 1.037858
1091.453, 1.001658
1091.935, 0.5685180
1092.417, 0.3202140
1092.899, 0.3946040
1093.381, 0.5460540
1093.863, 0.9004930
1094.345, 0.9802580
1094.827, 0.1863040
1095.309, 0.1917040
1095.792, 2.4117000E-02
1096.274, 0.3692300
1096.756, 0.6049070
1097.238, 0.1615070
1097.720, 3.3771999E-02
1098.202, 0.1907680
1098.684, 0.4770300
1099.166, 0.5297420
1099.649, 0.4963190
1100.131, 0.4183370
1100.613, 0.3546170
1101.095, 0.4049320
1101.577, 0.5644320
1102.059, 0.6692460
1102.541, 0.6782040
1103.023, 0.6323180
1103.505, 0.4046560
1103.988, 0.2876720
1104.470, 0.5764810
1104.952, 0.9381070
1105.434, 1.042977
1105.916, 0.9034080
1106.398, 0.6949360
1106.880, 0.3238650
1107.362, 0.1775920
1107.844, 0.5255640
1108.327, 0.8140640
1108.809, 0.8054330
1109.291, 0.6746580
1109.773, 0.5203790
1110.255, 0.3847080
1110.737, 0.3843710
1111.219, 0.5943170
1111.701, 0.6990880
1112.184, 0.5178510
1112.666, 0.4511650
1113.148, 0.7713490
1113.630, 1.044588
1114.112, 0.9241680
1114.594, 0.5878540
1115.076, 0.3360210
1115.558, 0.1621700
1116.041, 0.1485170
1116.523, 0.4869560
1117.005, 0.6513470
1117.487, 0.4480290
1117.969, 0.2625240
1118.451, 0.2838590
1118.933, 0.4143230
1119.415, 0.5314290
1119.897, 0.6389290
1120.380, 0.7770610
1120.862, 1.019304
1121.344, 1.058118
1121.826, 0.8248770
1122.308, 0.4900790
1122.790, 8.2449997E-03
1123.272, 4.7772001E-02
1123.754, 6.0084000E-02
1124.236, 0.2675750
1124.719, 0.3747890
1125.201, 7.6430002E-03
1125.683, 1.7535999E-02
1126.165, 3.8940001E-02
1126.647, 5.6336999E-02
1127.129, 0.3607880
1127.611, 0.5462850
1128.093, 0.4125170
1128.576, 9.1438003E-02
1129.058, 5.9997000E-02
1129.540, 6.8915002E-02
1130.022, 4.4782002E-02
1130.504, 0.1755020
1130.986, 0.4909570
1131.468, 0.4549820
1131.950, 0.2225640
1132.432, 2.5862999E-02
1132.915, 9.3310000E-03
1133.397, 5.5032998E-02
1133.879, 0.6716840
1134.361, 0.7903210
1134.843, 0.3614770
1135.325, 7.0653997E-02
1135.807, 2.1850001E-03
1136.289, 9.6258000E-02
1136.771, 0.2970570
1137.254, 0.5552590
1137.736, 0.8684610
1138.218, 1.110488
1138.700, 0.9740690
1139.182, 0.5977320
1139.664, 0.4318000
1140.146, 0.4511460
1140.628, 0.6163690
1141.111, 0.8785220
1141.593, 0.8826930
1142.075, 0.4426430
1142.557, 4.1777000E-02
1143.039, 5.7592999E-02
1143.521, 6.6931002E-02
1144.003, 0.2652530
1144.485, 0.4379400
1144.968, 0.3944280
1145.450, 0.2326250
1145.932, 0.3484320
1146.414, 0.8274830
1146.896, 1.247149
1147.378, 1.296934
1147.860, 1.215193
1148.342, 1.257127
1148.824, 1.265703
1149.307, 1.025323
1149.789, 0.6359330
1150.271, 0.1993470
1150.753, 7.9060001E-03
1151.235, 8.2254998E-02
1151.717, 0.1542250
1152.199, 0.5403250
1152.681, 0.5663380
1153.163, 0.4525150
1153.646, 0.2964260
1154.128, 0.2080440
1154.610, 0.3685820
1155.092, 0.6385170
1155.574, 0.6462770
1156.056, 0.3288290
1156.538, 8.6484998E-02
1157.020, 2.4785999E-02
1157.503, 7.0390001E-02
1157.985, 0.2618570
1158.467, 0.4889890
1158.949, 0.7656070
1159.431, 0.9895800
1159.913, 1.045860
1160.395, 0.9314050
1160.877, 0.6499370
1161.359, 7.8532003E-02
1161.842, 2.9820999E-02
1162.324, 0.1847630
1162.806, 0.6535400
1163.288, 0.7548140
1163.770, 0.6422580
1164.252, 0.2787450
1164.734, 8.4292002E-02
1165.216, 0.1222240
1165.698, 1.041525
1166.181, 1.217482
1166.663, 0.3558370
1167.145, 3.9726000E-02
1167.627, 4.8866000E-02
1168.109, 0.2725890
1168.591, 0.7136250
1169.073, 1.043950
1169.555, 0.9613580
1170.037, 0.6006560
1170.520, 0.4865900
1171.002, 0.6110430
1171.484, 0.5915960
1171.966, 0.4094720
1172.448, 0.4573010
1172.930, 0.8317340
1173.412, 1.049467
1173.894, 0.7688130
1174.377, 0.3298210
1174.859, 0.2579910
1175.341, 0.4161500
1175.823, 0.4054020
1176.305, 0.3022250
1176.787, 0.3606710
1177.269, 0.5708330
1177.751, 0.7585970
1178.234, 0.8557360
1178.716, 0.8538850
1179.198, 0.6973600
1179.680, 0.3461100
1180.162, 0.6396170
1180.644, 0.8149470
1181.126, 0.8768910
1181.608, 0.4900160
1182.090, 0.6845300
1182.573, 0.6498230
1183.055, 0.6055850
1183.537, 0.8740460
1184.019, 0.5549230
1184.501, 0.8249110
1184.983, 0.8621240
1185.465, 1.005889
1185.947, 0.9189640
1186.429, 0.9033080
1186.912, 1.109282
1187.394, 1.196876
1187.876, 1.084809
1188.358, 1.239597
1188.840, 0.7268710
1189.322, 0.5439870
1189.804, 0.5668400
1190.286, 0.5449470
1190.769, 0.3171190
1191.251, 0.1245310
1191.733, 0.2570200
1192.215, 0.4962590
1192.697, 0.2127200
1193.179, 6.8692997E-02
1193.661, 0.4363850
1194.143, 9.7172000E-02
1194.625, 6.1804999E-02
1195.108, 3.5264000E-02
1195.590, 0.2353530
1196.072, 0.4502910
1196.554, 0.5265620
1197.036, 0.3220480
1197.518, 9.9109998E-03
1198.000, 8.8815004E-02
1198.482, 0.5452410
1198.964, 0.6621450
1199.447, 0.4555740
1199.929, 0.3113590
1200.411, 0.3156260
1200.893, 0.4099420
1201.375, 0.5675310
1201.857, 0.6824690
1202.339, 0.5939420
1202.821, 0.4367020
1203.304, 0.4418100
1203.786, 0.5199940
1204.268, 0.5018740
1204.750, 0.4165300
1205.232, 0.3713570
1205.714, 0.3872290
1206.196, 0.4855780
1206.678, 0.7372490
1207.161, 0.8776300
1207.643, 0.5888370
1208.125, 0.3068510
1208.607, 0.4021110
1209.089, 0.5904670
1209.571, 0.5974170
1210.053, 0.4455740
1210.535, 0.2491780
1211.017, 1.4159000E-02
1211.500, 3.6492001E-02
1211.982, 0.3729170
1212.464, 0.5897780
1212.946, 0.2659380
1213.428, 0.1002760
1213.910, 0.5183800
1214.392, 0.9658710
1214.874, 0.8586110
1215.356, 0.3917210
1215.839, 0.1447820
1216.321, 0.1214440
1216.803, 0.3455570
1217.285, 0.8988690
1217.767, 1.127310
1218.249, 0.8979420
1218.731, 0.5157900
1219.213, 9.1499001E-02
1219.696, 7.2719000E-02
1220.178, 0.2199670
1220.660, 0.8229960
1221.142, 0.9678430
1221.624, 0.7802710
1222.106, 0.6556760
1222.588, 0.5863080
1223.070, 0.4800030
1223.552, 0.3234640
1224.035, 0.2660870
1224.517, 0.3791690
1224.999, 0.5109810
1225.481, 0.5533340
1225.963, 0.5650870
1226.445, 0.6207140
1226.927, 0.6438950
1227.409, 0.5203350
1227.891, 0.3217080
1228.374, 0.1021570
1228.856, 7.9388000E-02
1229.338, 1.3243000E-02
1229.820, 0.5588960
1230.302, 0.9658630
1230.784, 1.075513
1231.266, 1.059686
1231.748, 0.8837740
1232.231, 0.6938730
1232.713, 0.5567160
1233.195, 0.4757590
1233.677, 0.4502660
1234.159, 0.4850400
1234.641, 0.6585220
1235.123, 1.066419
1235.605, 1.106839
1236.088, 0.6751340
1236.570, 0.4147990
1237.052, 0.4998250
1237.534, 0.7195340
1238.016, 0.9568650
1238.498, 1.121128
1238.980, 1.061168
1239.462, 0.8569400
1239.944, 0.6655830
1240.427, 0.4507690
1240.909, 0.3140550
1241.391, 0.2317520
1241.873, 0.3356310
1242.355, 0.6181260
1242.837, 0.8603660
1243.319, 0.9612080
1243.801, 0.8847400
1244.283, 0.4334420
1244.766, 4.9769999E-03
1245.248, 3.5290001E-03
1245.730, 2.0218000E-02
1246.212, 0.1035830
1246.694, 0.4243880
1247.176, 0.5670280
1247.658, 0.5181230
1248.140, 0.4588300
1248.622, 0.4016940
1249.105, 0.3599180
1249.587, 0.3637050
1250.069, 0.3513260
1250.551, 0.3171170
1251.033, 0.2337240
1251.515, 8.3910003E-03
1251.997, 1.5126000E-02
1252.479, 0.2012300
1252.962, 0.8864220
1253.444, 1.160687
1253.926, 1.051913
1254.408, 0.9376580
1254.890, 0.8471930
1255.372, 0.9203150
1255.854, 1.160066
1256.336, 1.196743
1256.818, 0.8133530
1257.301, 0.3189570
1257.783, 1.2571000E-02
1258.265, 1.2900000E-03
1258.747, 4.0483002E-02
1259.229, 8.7190000E-03
1259.711, 0.1284180
1260.193, 0.4580110
1260.675, 0.6800610
1261.157, 0.7499580
1261.640, 0.6130240
1262.122, 0.1811520
1262.604, 3.0213000E-02
1263.086, 8.2860002E-03
1263.568, 0.1466700
1264.050, 0.3383140
1264.532, 0.4839580
1265.014, 0.5083350
1265.497, 0.4873620
1265.979, 0.4665110
1266.461, 0.4830120
1266.943, 0.6689110
1267.425, 1.064762
1267.907, 1.177832
1268.389, 0.9783240
1268.871, 0.8476140
1269.354, 0.8401230
1269.836, 0.6655040
1270.318, 0.1553280
1270.800, 2.6621999E-02
1271.282, 0.1778130
1271.764, 0.7705550
1272.246, 0.6890440
1272.728, 0.2844630
1273.210, 0.4563930
1273.693, 0.8875100
1274.175, 0.8508690
1274.657, 0.4269230
1275.139, 0.3078190
1275.621, 0.6359190
1276.103, 0.8500290
1276.585, 0.6279420
1277.067, 0.4057780
1277.549, 0.2436470
1278.032, 0.2177780
1278.514, 0.5812400
1278.996, 0.8196740
1279.478, 0.5577470
1279.960, 4.6052001E-02
1280.442, 3.5059999E-03
1280.924, 1.6675999E-02
1281.406, 0.2934170
1281.889, 0.8495170
1282.371, 1.155241
1282.853, 1.169271
1283.335, 1.192335
1283.817, 1.117273
1284.299, 1.036173
1284.781, 0.5875560
1285.263, 0.1185790
1285.745, 5.9700001E-04
1286.228, 0.0000000E+00
##END=



