##NAMES=Calaverite
##RRUFFID=R070164
##IDEAL CHEMISTRY=AuTe_2_
##LOCALITY=Vindicator mine, Cripple Creek, Teller County, Colorado, USA
##OWNER=RRUFF
##SOURCE=Michael Scott
##DESCRIPTION=Loose pale gold colored metallic fragments associated with quartz, used to define ICDD pattern
##STATUS=The identification of this mineral is confirmed by single-crystal X-ray diffraction and chemical analysis.
##URL=rruff.info/R070164
##MEASURED CHEMISTRY=(Au_0.90_Ag_0.10_)_Î£=1_Te_2.00_
139.1480, 0.0000000E+00
139.6302, 7.818481
140.1123, 2.148682
140.5944, 3.076111
141.0765, 0.4817500
141.5586, 10.51208
142.0407, 26.16504
142.5229, 46.78638
143.0050, 70.36115
143.4871, 92.69769
143.9692, 112.2492
144.4513, 132.0416
144.9334, 153.8911
145.4156, 175.2826
145.8977, 192.1195
146.3798, 202.8376
146.8619, 211.4490
147.3440, 228.4167
147.8261, 267.9791
148.3083, 298.5571
148.7904, 311.4308
149.2725, 317.2021
149.7546, 329.2898
150.2367, 353.6709
150.7188, 384.1914
151.2010, 402.7833
151.6831, 397.9557
152.1652, 394.0743
152.6473, 394.8420
153.1294, 397.1497
153.6115, 397.2421
154.0937, 393.4718
154.5758, 385.9840
155.0579, 374.8236
155.5400, 356.1056
156.0221, 338.6617
156.5042, 324.9703
156.9864, 313.2510
157.4685, 300.5967
157.9506, 285.5830
158.4327, 269.1505
158.9148, 253.9766
159.3969, 236.9105
159.8791, 224.9407
160.3612, 222.7633
160.8433, 226.6996
161.3254, 229.8017
161.8075, 228.8328
162.2896, 225.4658
162.7718, 224.7239
163.2539, 229.0170
163.7360, 231.6115
164.2181, 229.1814
164.7002, 223.3011
165.1823, 217.5198
165.6645, 213.0320
166.1466, 209.9163
166.6287, 207.7437
167.1108, 203.8696
167.5929, 205.4671
168.0750, 222.8235
168.5572, 249.1641
169.0393, 263.5756
169.5214, 254.9033
170.0035, 232.9729
170.4856, 218.3767
170.9677, 213.3023
171.4499, 209.0219
171.9320, 201.1826
172.4141, 190.6036
172.8962, 180.1570
173.3783, 171.1329
173.8604, 162.4963
174.3426, 150.9224
174.8247, 133.7121
175.3068, 122.5060
175.7889, 132.3873
176.2710, 156.8824
176.7531, 165.0714
177.2353, 139.1610
177.7174, 100.5617
178.1995, 80.01239
178.6816, 80.27209
179.1637, 83.69489
179.6458, 79.56360
180.1279, 66.99518
180.6101, 60.35846
181.0922, 66.97174
181.5743, 77.65704
182.0564, 81.55731
182.5385, 78.18024
183.0206, 73.00195
183.5028, 68.33887
183.9849, 64.39825
184.4670, 63.02502
184.9491, 65.94281
185.4312, 70.69922
185.9133, 74.32312
186.3955, 77.62451
186.8776, 80.62860
187.3597, 78.78943
187.8418, 71.02783
188.3239, 65.34412
188.8060, 63.54694
189.2882, 63.70654
189.7703, 64.81158
190.2524, 66.66901
190.7345, 67.23956
191.2166, 65.93610
191.6987, 60.28369
192.1809, 54.97949
192.6630, 49.45087
193.1451, 45.82123
193.6272, 44.84650
194.1093, 46.56256
194.5914, 51.12292
195.0736, 60.82843
195.5557, 75.84808
196.0378, 87.35828
196.5199, 95.44873
197.0020, 98.28961
197.4841, 96.39178
197.9663, 90.20917
198.4484, 82.71796
198.9305, 72.64661
199.4126, 61.68976
199.8947, 60.57306
200.3768, 77.65497
200.8590, 93.18188
201.3411, 94.42792
201.8232, 85.83722
202.3053, 78.07361
202.7874, 78.42981
203.2695, 84.46265
203.7517, 84.59918
204.2338, 75.75562
204.7159, 65.80157
205.1980, 57.56354
205.6801, 51.10748
206.1622, 46.65051
206.6444, 45.11255
207.1265, 45.43738
207.6086, 44.07147
208.0907, 39.57550
208.5728, 36.15820
209.0549, 34.90918
209.5371, 35.84113
210.0192, 39.76196
210.5013, 48.97052
210.9834, 59.59174
211.4655, 61.97620
211.9476, 53.35754
212.4298, 42.47351
212.9119, 28.98413
213.3940, 16.48932
213.8761, 10.04224
214.3582, 12.59052
214.8403, 19.87469
215.3225, 24.37543
215.8046, 25.49835
216.2867, 25.50952
216.7688, 25.32782
217.2509, 24.35980
217.7330, 22.10376
218.2152, 18.46863
218.6973, 13.21399
219.1794, 3.584778
219.6615, 13.55243
220.1436, 22.01593
220.6257, 7.158447
221.1079, 12.38226
221.5900, 23.53625
222.0721, 23.21869
222.5542, 17.71759
223.0363, 13.59460
223.5184, 10.90997
224.0006, 9.046387
224.4827, 8.484680
224.9648, 8.324707
225.4469, 8.280273
225.9290, 8.261597
226.4111, 7.742371
226.8933, 5.640137
227.3754, 1.870300
227.8575, 0.3444210
228.3396, 0.1881100
228.8217, 1.786743
229.3038, 4.449707
229.7859, 7.695129
230.2681, 9.243103
230.7502, 5.457031
231.2323, 2.874084
231.7144, 6.132813
232.1965, 1.545898
232.6786, 7.697083
233.1608, 3.424072
233.6429, 8.424744
234.1250, 19.02570
234.6071, 23.90302
235.0892, 23.32330
235.5714, 17.39227
236.0535, 1.598633
236.5356, 11.66425
237.0177, 14.01697
237.4998, 9.772827
237.9819, 6.916687
238.4641, 10.55341
238.9462, 17.24536
239.4283, 18.69708
239.9104, 12.67249
240.3925, 7.441284
240.8746, 10.10620
241.3568, 15.04187
241.8389, 14.13892
242.3210, 1.592163
242.8031, 13.03870
243.2852, 14.15186
243.7673, 1.179504
244.2495, 14.03290
244.7316, 14.09070
245.2137, 8.987915
245.6958, 5.854431
246.1779, 6.172791
246.6600, 7.995544
247.1422, 9.740051
247.6243, 11.40863
248.1064, 12.86755
248.5885, 14.81207
249.0706, 15.81171
249.5527, 14.64056
250.0349, 11.16962
250.5170, 6.117188
250.9991, 2.050720
251.4812, 12.20862
251.9633, 17.44806
252.4454, 13.94122
252.9276, 8.418213
253.4097, 8.826477
253.8918, 14.52862
254.3739, 17.36810
254.8560, 10.90875
255.3381, 1.074158
255.8203, 9.380249
256.3024, 12.02698
256.7845, 13.42035
257.2666, 19.87238
257.7487, 28.98944
258.2308, 31.80383
258.7130, 18.45862
259.1951, 0.6094970
259.6772, 5.612610
260.1593, 1.290161
260.6414, 12.49500
261.1235, 25.63129
261.6057, 38.26508
262.0878, 43.90326
262.5699, 35.55042
263.0520, 25.01324
263.5341, 23.30402
264.0162, 29.34814
264.4984, 32.63855
264.9805, 26.04999
265.4626, 14.18774
265.9447, 9.306335
266.4268, 14.73175
266.9089, 21.08832
267.3911, 23.90649
267.8732, 24.07556
268.3553, 23.21490
268.8374, 20.90216
269.3195, 19.80090
269.8016, 27.81299
270.2838, 49.40002
270.7659, 62.04974
271.2480, 51.34253
271.7301, 31.24493
272.2122, 22.27014
272.6943, 29.60486
273.1765, 41.96515
273.6586, 45.28864
274.1407, 37.08948
274.6228, 32.84045
275.1049, 36.54358
275.5870, 42.27502
276.0692, 44.84320
276.5513, 44.06250
277.0334, 43.25702
277.5155, 44.81604
277.9976, 48.91296
278.4797, 53.48480
278.9619, 58.99744
279.4440, 63.51959
279.9261, 67.45776
280.4082, 69.86279
280.8903, 66.92621
281.3724, 55.07611
281.8546, 38.05670
282.3367, 35.20166
282.8188, 63.98615
283.3009, 85.16595
283.7830, 87.59814
284.2651, 80.50964
284.7473, 75.78253
285.2294, 78.02240
285.7115, 83.90381
286.1936, 86.78833
286.6757, 83.03046
287.1578, 82.09900
287.6400, 88.34882
288.1221, 94.29254
288.6042, 92.75507
289.0863, 83.39984
289.5684, 72.74860
290.0505, 68.50024
290.5327, 70.98047
291.0148, 77.45117
291.4969, 94.72925
291.9790, 108.5363
292.4611, 111.9380
292.9432, 107.1755
293.4254, 100.6157
293.9075, 96.79437
294.3896, 94.98682
294.8717, 94.15210
295.3538, 93.39349
295.8359, 95.01672
296.3181, 103.2457
296.8002, 112.8743
297.2823, 116.0465
297.7644, 108.5961
298.2465, 96.71625
298.7286, 94.14911
299.2108, 105.0333
299.6929, 114.3297
300.1750, 118.5326
300.6571, 119.7421
301.1392, 120.5025
301.6213, 121.9134
302.1035, 122.1015
302.5855, 118.0824
303.0677, 109.5842
303.5498, 106.4938
304.0319, 115.6481
304.5140, 124.3030
304.9961, 122.5052
305.4782, 112.5353
305.9604, 104.6132
306.4425, 106.5311
306.9246, 115.0438
307.4067, 121.1675
307.8888, 124.4760
308.3709, 126.0390
308.8531, 125.7484
309.3352, 124.0046
309.8173, 121.2341
310.2994, 116.2529
310.7815, 112.0537
311.2636, 112.4630
311.7458, 117.3708
312.2279, 120.6693
312.7100, 120.4920
313.1921, 117.7842
313.6742, 112.5919
314.1563, 103.7502
314.6385, 95.60785
315.1206, 88.09210
315.6027, 82.93005
316.0848, 86.34662
316.5669, 101.9877
317.0490, 117.8029
317.5312, 115.4431
318.0133, 93.12317
318.4954, 80.04242
318.9775, 86.71521
319.4596, 99.58990
319.9417, 108.7344
320.4239, 112.7970
320.9060, 111.3561
321.3881, 102.5405
321.8702, 87.03009
322.3523, 79.39014
322.8344, 83.02887
323.3166, 88.80811
323.7987, 96.27600
324.2808, 103.1904
324.7629, 104.3751
325.2450, 96.98328
325.7271, 84.67419
326.2093, 76.38324
326.6914, 72.11865
327.1735, 72.75659
327.6556, 83.50018
328.1377, 95.66785
328.6198, 102.5058
329.1020, 102.8323
329.5841, 99.25067
330.0662, 93.98053
330.5483, 86.18915
331.0304, 80.62103
331.5125, 81.19049
331.9947, 80.48718
332.4768, 73.25366
332.9589, 62.99298
333.4410, 57.02429
333.9231, 60.99451
334.4052, 71.65887
334.8874, 76.04651
335.3695, 69.80554
335.8516, 65.60010
336.3337, 67.01294
336.8158, 71.70038
337.2979, 78.40265
337.7801, 86.96948
338.2622, 94.78235
338.7443, 99.23364
339.2264, 100.2379
339.7085, 96.79803
340.1906, 85.51044
340.6728, 73.24487
341.1549, 63.59143
341.6370, 56.95520
342.1191, 55.74756
342.6012, 66.39984
343.0833, 81.90912
343.5655, 87.21570
344.0476, 80.24243
344.5297, 72.54047
345.0118, 74.56866
345.4939, 81.28662
345.9760, 79.41663
346.4582, 59.23431
346.9403, 40.08130
347.4224, 38.18164
347.9045, 49.29083
348.3866, 58.05121
348.8687, 58.10895
349.3509, 53.21802
349.8330, 50.57629
350.3151, 50.90100
350.7972, 50.89728
351.2793, 49.52740
351.7614, 47.81195
352.2436, 46.20093
352.7257, 44.98291
353.2078, 45.60455
353.6899, 50.35663
354.1720, 59.90485
354.6541, 64.59766
355.1363, 63.19458
355.6184, 59.63342
356.1005, 54.20294
356.5826, 47.85889
357.0647, 41.49561
357.5468, 35.40344
358.0290, 30.76361
358.5111, 31.76019
358.9932, 46.55731
359.4753, 52.65869
359.9574, 41.21967
360.4395, 26.59869
360.9217, 20.47217
361.4038, 24.10461
361.8859, 29.47675
362.3680, 27.42999
362.8501, 17.57867
363.3322, 11.57269
363.8144, 11.48389
364.2965, 12.88702
364.7786, 15.67090
365.2607, 18.23083
365.7428, 17.16913
366.2249, 9.101013
366.7071, 0.8275150
367.1892, 2.873474
367.6713, 3.945374
368.1534, 7.957336
368.6355, 0.4642330
369.1176, 8.555603
369.5998, 5.502930
370.0819, 12.33051
370.5640, 28.22327
371.0461, 31.26788
371.5282, 26.29669
372.0103, 23.61908
372.4925, 25.16699
372.9746, 27.78479
373.4567, 29.12000
373.9388, 28.95483
374.4209, 26.70325
374.9030, 17.95581
375.3852, 11.13660
375.8673, 12.72498
376.3494, 20.57666
376.8315, 29.28638
377.3136, 36.77057
377.7957, 41.46307
378.2779, 39.12646
378.7600, 22.50146
379.2421, 8.314636
379.7242, 6.644287
380.2063, 16.82599
380.6884, 14.66620
381.1706, 0.9441530
381.6527, 14.80359
382.1348, 23.18219
382.6169, 23.92255
383.0990, 22.43481
383.5811, 15.26599
384.0633, 9.571960
384.5454, 8.742920
385.0275, 10.15576
385.5096, 9.550598
385.9917, 4.781860
386.4738, 1.380371
386.9560, 4.180420
387.4381, 3.160095
387.9202, 0.9426880
388.4023, 4.702881
388.8844, 8.991943
389.3665, 6.921570
389.8487, 1.013733
390.3308, 7.370117
390.8129, 7.011047
391.2950, 2.236755
391.7771, 2.322144
392.2592, 6.463135
392.7414, 10.19788
393.2235, 14.17419
393.7056, 17.55023
394.1877, 18.06049
394.6698, 13.70648
395.1519, 8.987366
395.6341, 4.875793
396.1162, 2.225403
396.5983, 3.963440
397.0804, 11.38562
397.5625, 19.90033
398.0446, 23.00494
398.5268, 19.20923
399.0089, 13.67322
399.4910, 1.170227
399.9731, 8.444763
400.4552, 6.169373
400.9373, 4.556519
401.4194, 12.38715
401.9016, 9.243347
402.3837, 0.9862060
402.8658, 1.297119
403.3479, 17.31592
403.8300, 31.99585
404.3121, 39.71155
404.7943, 42.99371
405.2764, 43.02771
405.7585, 40.45428
406.2406, 37.14911
406.7227, 34.72400
407.2048, 33.20044
407.6870, 32.65698
408.1691, 33.18011
408.6512, 34.32349
409.1333, 39.15356
409.6154, 43.98499
410.0975, 40.94263
410.5797, 22.49939
411.0618, 2.923523
411.5439, 1.921021
412.0260, 6.234009
412.5081, 16.21289
412.9902, 25.83624
413.4724, 33.46967
413.9545, 35.14508
414.4366, 30.31152
414.9187, 27.52917
415.4008, 32.78284
415.8829, 37.70709
416.3651, 31.70740
416.8472, 16.58417
417.3293, 5.359131
417.8114, 7.341614
418.2935, 19.88159
418.7756, 27.80670
419.2578, 28.20807
419.7399, 27.42468
420.2220, 23.57184
420.7041, 20.15479
421.1862, 21.68030
421.6683, 28.43970
422.1505, 35.58282
422.6326, 37.62006
423.1147, 34.79388
423.5968, 31.07709
424.0789, 20.93726
424.5610, 16.19629
425.0432, 27.82196
425.5253, 46.32507
426.0074, 55.30621
426.4895, 46.78088
426.9716, 30.94440
427.4537, 20.28638
427.9359, 15.06232
428.4180, 14.20691
428.9001, 20.03589
429.3822, 26.77057
429.8643, 26.82263
430.3464, 20.80658
430.8286, 17.41388
431.3107, 22.46552
431.7928, 28.70453
432.2749, 27.92609
432.7570, 21.09894
433.2391, 15.19659
433.7213, 13.68988
434.2034, 16.41034
434.6855, 23.07117
435.1676, 42.16187
435.6497, 53.04712
436.1318, 48.87378
436.6140, 39.90735
437.0961, 34.24982
437.5782, 32.45233
438.0603, 31.16254
438.5424, 27.93011
439.0245, 23.79236
439.5067, 22.88910
439.9888, 27.04266
440.4709, 31.03156
440.9530, 34.49207
441.4351, 36.66235
441.9172, 36.14258
442.3994, 32.49878
442.8815, 28.47809
443.3636, 25.96814
443.8457, 25.08270
444.3278, 28.08612
444.8099, 38.26782
445.2921, 47.33942
445.7742, 46.17017
446.2563, 38.30725
446.7384, 32.67462
447.2205, 31.72412
447.7026, 32.20917
448.1848, 32.39697
448.6669, 32.75439
449.1490, 33.89532
449.6311, 35.98492
450.1132, 38.04913
450.5953, 38.88373
451.0775, 38.58185
451.5596, 36.32605
452.0417, 27.27698
452.5238, 20.83136
453.0059, 24.77454
453.4880, 35.35870
453.9702, 43.38336
454.4523, 43.56519
454.9344, 38.90900
455.4165, 36.76941
455.8986, 37.81256
456.3807, 39.27191
456.8629, 42.10291
457.3450, 43.84180
457.8271, 41.83405
458.3092, 37.32117
458.7913, 34.20587
459.2734, 33.67627
459.7556, 35.50806
460.2377, 41.56024
460.7198, 52.68970
461.2019, 58.62152
461.6840, 50.88312
462.1661, 36.33380
462.6483, 30.53741
463.1304, 38.12451
463.6125, 40.88922
464.0946, 27.41943
464.5767, 10.25537
465.0588, 2.671204
465.5410, 6.052673
466.0231, 15.90613
466.5052, 30.24127
466.9873, 47.51721
467.4694, 53.19971
467.9515, 32.14331
468.4337, 18.38837
468.9158, 22.02502
469.3979, 30.51831
469.8800, 31.27570
470.3621, 22.40814
470.8442, 13.53174
471.3264, 15.49384
471.8085, 27.03119
472.2906, 35.91809
472.7727, 43.49048
473.2548, 45.38861
473.7369, 31.67346
474.2191, 13.16296
474.7012, 5.491882
475.1833, 14.37079
475.6654, 25.36377
476.1475, 29.02997
476.6296, 28.29590
477.1118, 30.11072
477.5939, 35.90875
478.0760, 40.66742
478.5581, 40.00848
479.0402, 33.89886
479.5223, 24.44403
480.0045, 3.765442
480.4866, 10.47198
480.9687, 10.88251
481.4508, 3.057495
481.9329, 7.368225
482.4150, 18.16663
482.8972, 27.02893
483.3793, 29.45380
483.8614, 24.27838
484.3435, 26.06458
484.8256, 44.40485
485.3077, 56.38928
485.7899, 46.82556
486.2720, 27.56415
486.7541, 17.64435
487.2362, 24.84210
487.7183, 34.69269
488.2004, 33.38464
488.6826, 23.92639
489.1647, 15.48566
489.6468, 8.751953
490.1289, 5.674561
490.6110, 8.670898
491.0931, 17.78168
491.5753, 24.99316
492.0574, 30.73315
492.5395, 34.28192
493.0216, 36.01550
493.5037, 35.06787
493.9858, 27.81805
494.4680, 13.86835
494.9501, 1.038086
495.4322, 1.273254
495.9143, 17.43805
496.3964, 25.25885
496.8785, 13.57990
497.3607, 7.348328
497.8428, 20.63422
498.3249, 40.71124
498.8070, 48.51721
499.2891, 36.11627
499.7712, 18.65796
500.2533, 12.71210
500.7354, 15.70129
501.2176, 13.61230
501.6997, 2.329651
502.1818, 8.011963
502.6639, 9.180603
503.1460, 1.544006
503.6281, 8.582947
504.1103, 28.03796
504.5924, 42.19348
505.0745, 41.81622
505.5566, 33.52850
506.0387, 26.52020
506.5208, 23.32983
507.0030, 21.87903
507.4851, 19.87256
507.9672, 17.27222
508.4493, 14.54303
508.9314, 8.390808
509.4135, 6.757690
509.8957, 16.33313
510.3778, 28.60089
510.8599, 31.95483
511.3420, 23.00909
511.8241, 12.76868
512.3063, 12.14526
512.7884, 18.93280
513.2705, 25.18597
513.7526, 30.53015
514.2347, 33.24670
514.7169, 31.41101
515.1990, 25.87726
515.6811, 20.61682
516.1632, 11.45038
516.6453, 8.520569
517.1274, 22.94568
517.6096, 41.08997
518.0917, 44.15436
518.5738, 31.15887
519.0559, 18.86017
519.5380, 23.92194
520.0201, 43.62616
520.5023, 46.97845
520.9844, 18.36829
521.4665, 0.8499150
521.9486, 1.170471
522.4307, 12.69086
522.9128, 27.71539
523.3950, 44.08014
523.8771, 52.15717
524.3592, 37.65887
524.8413, 12.18024
525.3234, 2.649841
525.8055, 10.49078
526.2877, 17.41125
526.7698, 12.75653
527.2519, 2.853027
527.7340, 4.447449
528.2161, 24.44165
528.6982, 35.89203
529.1804, 27.18280
529.6625, 14.86450
530.1446, 12.03998
530.6267, 17.56781
531.1088, 23.81415
531.5909, 26.27802
532.0731, 25.67737
532.5552, 23.42072
533.0373, 18.67029
533.5194, 15.11523
534.0015, 12.73303
534.4836, 12.63599
534.9658, 16.13446
535.4479, 22.24469
535.9300, 26.29205
536.4121, 25.62335
536.8942, 22.78851
537.3763, 19.16626
537.8585, 15.36627
538.3406, 13.69885
538.8227, 15.71130
539.3048, 20.97479
539.7869, 29.13806
540.2690, 41.77344
540.7512, 45.88605
541.2333, 34.48474
541.7154, 23.29291
542.1975, 17.81311
542.6796, 16.14270
543.1617, 15.98663
543.6439, 16.40729
544.1260, 16.06567
544.6081, 12.76117
545.0902, 6.658813
545.5723, 1.030334
546.0544, 5.748779
546.5366, 7.387939
547.0187, 7.487122
547.5008, 28.08923
547.9829, 36.62335
548.4650, 27.94324
548.9471, 17.25354
549.4292, 8.826904
549.9113, 3.728516
550.3934, 4.754883
550.8755, 11.37329
551.3577, 19.04156
551.8398, 25.11115
552.3219, 28.96246
552.8040, 27.87384
553.2861, 19.05981
553.7682, 10.08539
554.2504, 4.616638
554.7325, 14.24304
555.2146, 7.664429
555.6967, 11.14850
556.1788, 26.68188
556.6609, 29.52179
557.1431, 25.36725
557.6252, 22.50018
558.1073, 20.72559
558.5894, 17.16534
559.0715, 9.903320
559.5536, 3.269958
560.0358, 2.836853
560.5179, 9.962524
561.0000, 13.50891
561.4821, 8.600098
561.9642, 4.453796
562.4464, 5.466431
562.9285, 9.548950
563.4106, 13.99255
563.8927, 17.80347
564.3748, 20.76697
564.8569, 23.36456
565.3391, 25.03833
565.8212, 20.72992
566.3033, 5.487732
566.7854, 5.427002
567.2675, 1.906860
567.7496, 7.914673
568.2318, 16.20441
568.7139, 22.65619
569.1960, 24.49664
569.6781, 14.34943
570.1602, 2.680725
570.6423, 4.452881
571.1245, 17.82275
571.6066, 28.13196
572.0887, 27.06415
572.5708, 18.85071
573.0529, 13.18347
573.5350, 8.980103
574.0172, 9.704712
574.4993, 22.68799
574.9814, 33.11237
575.4635, 32.56970
575.9456, 24.54266
576.4277, 15.71979
576.9099, 7.570679
577.3920, 3.675598
577.8741, 11.73596
578.3562, 27.99799
578.8383, 36.89136
579.3204, 35.04419
579.8026, 30.26819
580.2847, 27.91156
580.7668, 27.83783
581.2489, 29.34619
581.7310, 37.28589
582.2131, 40.32922
582.6953, 31.77167
583.1774, 20.53357
583.6595, 13.51617
584.1416, 11.62140
584.6237, 12.92169
585.1058, 16.39850
585.5880, 21.61609
586.0701, 28.92676
586.5522, 39.31842
587.0343, 42.93024
587.5164, 33.21747
587.9985, 21.22125
588.4807, 19.34839
588.9628, 26.02405
589.4449, 30.36176
589.9270, 31.99323
590.4091, 29.40717
590.8912, 16.39319
591.3734, 0.3862920
591.8555, 5.786438
592.3376, 0.5572510
592.8197, 11.83337
593.3018, 20.95123
593.7839, 27.80518
594.2661, 30.93976
594.7482, 26.60944
595.2303, 23.83099
595.7124, 26.99261
596.1945, 31.54669
596.6766, 34.16351
597.1588, 34.51135
597.6409, 32.43073
598.1230, 24.86908
598.6051, 17.09399
599.0872, 15.02472
599.5693, 17.59326
600.0515, 20.92377
600.5336, 23.60266
601.0157, 25.49518
601.4978, 26.80920
601.9799, 28.27075
602.4620, 24.67322
602.9442, 4.731018
603.4263, 6.969116
603.9084, 0.3141480
604.3905, 15.74011
604.8726, 32.88068
605.3547, 48.68500
605.8369, 59.14496
606.3190, 58.31372
606.8011, 51.54321
607.2832, 49.71124
607.7653, 52.67249
608.2474, 51.40845
608.7296, 40.52325
609.2117, 26.10144
609.6938, 20.33636
610.1759, 28.61456
610.6580, 30.15430
611.1401, 17.26501
611.6223, 6.518921
612.1044, 6.355530
612.5865, 11.70447
613.0686, 15.28784
613.5507, 14.47144
614.0328, 14.22992
614.5150, 22.74066
614.9971, 36.29071
615.4792, 40.44324
615.9613, 33.49847
616.4434, 29.15393
616.9255, 36.80682
617.4077, 49.60095
617.8898, 50.55121
618.3719, 30.36853
618.8540, 20.42194
619.3361, 33.93823
619.8182, 46.29163
620.3004, 41.14819
620.7825, 24.77795
621.2646, 9.297119
621.7467, 0.6229250
622.2288, 3.765503
622.7109, 5.764404
623.1931, 25.12469
623.6752, 33.15961
624.1573, 25.78003
624.6394, 19.42059
625.1215, 26.51318
625.6036, 40.34564
626.0858, 42.74506
626.5679, 28.53064
627.0500, 18.13000
627.5321, 14.50513
628.0142, 15.47034
628.4963, 22.04443
628.9785, 31.72144
629.4606, 39.93988
629.9427, 44.67639
630.4248, 46.67212
630.9069, 46.83508
631.3890, 45.16486
631.8712, 41.15741
632.3533, 34.00421
632.8354, 26.77063
633.3175, 19.66962
633.7996, 14.39307
634.2817, 15.50531
634.7639, 26.68481
635.2460, 33.98315
635.7281, 30.95917
636.2102, 26.34851
636.6923, 28.20636
637.1744, 33.60516
637.6566, 34.07019
638.1387, 25.72522
638.6208, 13.86133
639.1029, 4.388977
639.5850, 2.591553
640.0671, 0.4168700
640.5493, 18.42053
641.0314, 32.38556
641.5135, 28.71716
641.9956, 15.52399
642.4777, 11.13934
642.9598, 19.23297
643.4420, 24.44519
643.9241, 20.26526
644.4062, 15.14526
644.8883, 15.08350
645.3704, 19.04865
645.8525, 24.78363
646.3347, 31.29480
646.8168, 35.49884
647.2989, 30.97736
647.7810, 18.44739
648.2631, 12.13086
648.7452, 13.72980
649.2274, 17.95221
649.7095, 25.67114
650.1916, 32.45105
650.6737, 26.33386
651.1558, 2.770203
651.6379, 13.72791
652.1201, 17.85016
652.6022, 15.07336
653.0843, 4.197144
653.5664, 9.757874
654.0485, 17.47809
654.5306, 15.89978
655.0128, 11.95502
655.4949, 14.55261
655.9770, 22.69073
656.4591, 28.48395
656.9412, 31.75037
657.4233, 33.33228
657.9055, 34.28381
658.3876, 33.06104
658.8697, 25.14349
659.3518, 8.428772
659.8339, 1.146729
660.3160, 1.691101
660.7982, 7.898743
661.2803, 15.16260
661.7624, 22.22656
662.2445, 25.55426
662.7266, 24.45007
663.2087, 22.04791
663.6909, 20.88788
664.1730, 20.92468
664.6551, 21.83405
665.1372, 23.56146
665.6193, 27.86603
666.1014, 37.67963
666.5836, 45.89844
667.0657, 41.37439
667.5478, 21.57068
668.0299, 11.94025
668.5120, 24.47827
668.9941, 32.46100
669.4763, 20.61877
669.9584, 4.151733
670.4405, 0.9896240
670.9226, 12.38739
671.4047, 26.12653
671.8868, 35.36005
672.3690, 38.21588
672.8511, 30.02710
673.3332, 12.90717
673.8153, 4.360962
674.2974, 9.944824
674.7795, 20.05664
675.2617, 26.37122
675.7438, 28.88751
676.2259, 27.55823
676.7080, 16.66913
677.1901, 9.606018
677.6722, 9.565796
678.1544, 12.40613
678.6365, 15.64160
679.1186, 18.87012
679.6007, 22.31805
680.0828, 26.68451
680.5649, 30.19373
681.0471, 29.42072
681.5292, 25.61969
682.0113, 21.60791
682.4934, 17.91302
682.9755, 16.07874
683.4576, 17.27545
683.9398, 21.07971
684.4219, 26.57410
684.9040, 37.39661
685.3861, 42.29114
685.8682, 33.31311
686.3503, 25.97351
686.8325, 30.04810
687.3146, 39.95880
687.7967, 45.12250
688.2788, 42.45428
688.7609, 36.80579
689.2430, 27.87311
689.7252, 19.62500
690.2073, 18.95563
690.6894, 24.50623
691.1715, 28.32416
691.6536, 26.52948
692.1357, 23.28833
692.6179, 26.49170
693.1000, 37.45154
693.5821, 43.58179
694.0642, 44.34619
694.5463, 41.29340
695.0284, 31.83258
695.5106, 20.65955
695.9927, 12.18140
696.4748, 6.318542
696.9569, 6.710388
697.4390, 18.43091
697.9211, 32.61768
698.4033, 47.98853
698.8854, 59.82147
699.3675, 58.07550
699.8496, 42.00598
700.3317, 25.55206
700.8138, 22.78638
701.2960, 29.42004
701.7781, 29.71429
702.2602, 22.24640
702.7423, 17.66888
703.2244, 19.30151
703.7065, 23.30902
704.1887, 26.75708
704.6708, 29.51813
705.1529, 30.02753
705.6350, 25.35559
706.1171, 22.50031
706.5992, 25.52094
707.0814, 28.56610
707.5635, 25.27368
708.0456, 17.59131
708.5277, 12.68707
709.0098, 14.26453
709.4919, 18.20361
709.9741, 23.57794
710.4562, 29.32477
710.9383, 29.27386
711.4204, 21.96307
711.9025, 16.07178
712.3846, 17.13965
712.8668, 21.95850
713.3489, 22.67224
713.8310, 17.31104
714.3131, 13.43127
714.7952, 10.06287
715.2773, 9.436340
715.7595, 15.09296
716.2416, 22.59161
716.7237, 25.59088
717.2058, 22.92249
717.6879, 20.46918
718.1700, 23.54559
718.6522, 26.06982
719.1343, 20.09119
719.6164, 9.620483
720.0985, 4.394836
720.5806, 7.029480
721.0627, 12.00922
721.5449, 13.32715
722.0270, 12.21863
722.5091, 16.20184
722.9912, 26.84589
723.4733, 34.14221
723.9554, 35.56921
724.4376, 33.02606
724.9197, 26.05219
725.4018, 15.66479
725.8839, 11.00500
726.3660, 17.42737
726.8481, 22.46509
727.3303, 26.43506
727.8124, 25.80121
728.2945, 12.08356
728.7766, 8.444458
729.2587, 18.33331
729.7408, 7.965271
730.2230, 7.111145
730.7051, 8.899597
731.1872, 2.188171
731.6693, 0.9198610
732.1514, 0.5481570
732.6335, 4.651428
733.1157, 10.92053
733.5978, 17.18982
734.0799, 19.33185
734.5620, 16.46252
735.0441, 13.92181
735.5262, 8.681763
736.0084, 8.302551
736.4905, 20.45343
736.9726, 34.89587
737.4547, 42.07788
737.9368, 41.33313
738.4189, 35.80920
738.9011, 19.64154
739.3832, 6.527405
739.8653, 6.782227
740.3474, 14.65326
740.8295, 23.44653
741.3116, 30.75787
741.7938, 33.24518
742.2759, 26.90826
742.7580, 17.98132
743.2401, 23.22266
743.7222, 41.60999
744.2043, 47.51093
744.6865, 34.75574
745.1686, 20.70660
745.6507, 16.98047
746.1328, 20.08679
746.6149, 20.23395
747.0970, 13.31140
747.5791, 9.912415
748.0612, 13.60492
748.5433, 17.62292
749.0255, 19.70917
749.5076, 20.14270
749.9897, 17.63568
750.4718, 12.10059
750.9539, 12.20660
751.4360, 31.03143
751.9182, 51.35156
752.4003, 52.12524
752.8824, 40.17273
753.3645, 33.27020
753.8466, 35.58679
754.3287, 37.70502
754.8109, 30.12128
755.2930, 16.45642
755.7751, 10.73273
756.2572, 13.74707
756.7393, 20.11688
757.2214, 32.87305
757.7036, 40.05963
758.1857, 28.26160
758.6678, 4.212585
759.1499, 5.393860
759.6320, 8.301819
760.1141, 18.18018
760.5963, 19.34845
761.0784, 18.95776
761.5605, 20.95142
762.0426, 24.17828
762.5247, 26.43768
763.0068, 27.13153
763.4890, 26.69025
763.9711, 24.92322
764.4532, 22.52625
764.9353, 20.10028
765.4174, 17.85486
765.8995, 17.10400
766.3817, 18.05194
766.8638, 16.92548
767.3459, 8.874695
767.8280, 3.316528
768.3101, 5.910950
768.7922, 2.310364
769.2744, 15.22278
769.7565, 37.22131
770.2386, 53.72113
770.7207, 50.44366
771.2028, 33.26801
771.6849, 24.45013
772.1671, 28.98145
772.6492, 30.72980
773.1313, 24.03693
773.6134, 18.01410
774.0955, 19.01276
774.5776, 23.72656
775.0598, 26.72931
775.5419, 26.60089
776.0240, 24.55988
776.5061, 20.18127
776.9882, 15.25482
777.4703, 11.72162
777.9525, 9.655823
778.4346, 9.918518
778.9167, 12.72107
779.3988, 14.35504
779.8809, 11.61328
780.3630, 6.527222
780.8452, 6.454834
781.3273, 11.98639
781.8094, 18.84485
782.2915, 27.91040
782.7736, 34.96082
783.2557, 37.44287
783.7379, 35.84302
784.2200, 30.57086
784.7021, 17.15295
785.1842, 11.86145
785.6663, 20.24347
786.1484, 29.71942
786.6306, 37.97699
787.1127, 41.29370
787.5948, 33.64008
788.0769, 15.01929
788.5590, 1.131042
789.0411, 5.444031
789.5233, 14.24634
790.0054, 13.29901
790.4875, 7.724854
790.9696, 8.803589
791.4517, 17.30035
791.9338, 23.50336
792.4160, 19.94110
792.8981, 13.32214
793.3802, 21.01263
793.8623, 42.63281
794.3444, 50.32727
794.8265, 39.71222
795.3087, 24.59772
795.7908, 9.515076
796.2729, 2.217346
796.7550, 3.292358
797.2371, 9.904358
797.7192, 16.50323
798.2014, 5.664795
798.6835, 1.879578
799.1656, 19.90350
799.6477, 40.02124
800.1298, 42.47461
800.6119, 29.35211
801.0941, 19.12347
801.5762, 20.20685
802.0583, 21.70892
802.5404, 17.93365
803.0225, 11.53204
803.5046, 2.037903
803.9868, 7.315857
804.4689, 6.719666
804.9510, 8.167358
805.4331, 24.29840
805.9152, 24.92535
806.3973, 15.60986
806.8795, 12.56421
807.3616, 15.73346
807.8437, 19.15149
808.3258, 20.85571
808.8079, 21.79846
809.2900, 23.21722
809.7722, 24.81476
810.2543, 23.15723
810.7364, 15.23352
811.2185, 13.08783
811.7006, 22.93481
812.1827, 32.96704
812.6649, 35.43701
813.1470, 32.15070
813.6291, 27.14948
814.1112, 19.21680
814.5933, 13.18304
815.0754, 10.91931
815.5576, 9.450317
816.0397, 6.846924
816.5218, 4.321106
817.0039, 3.102417
817.4860, 4.148071
817.9681, 6.819092
818.4503, 13.16034
818.9324, 18.69843
819.4145, 16.74854
819.8966, 11.79205
820.3787, 13.15674
820.8608, 20.88281
821.3430, 28.05957
821.8251, 30.75769
822.3072, 29.10632
822.7893, 20.94617
823.2714, 7.413269
823.7535, 1.214172
824.2357, 3.370789
824.7178, 9.101990
825.1999, 17.75586
825.6820, 25.07819
826.1641, 25.46686
826.6462, 19.46918
827.1284, 15.34375
827.6105, 14.78772
828.0926, 12.86603
828.5747, 4.071533
829.0568, 1.658752
829.5389, 4.699829
830.0211, 18.72375
830.5032, 29.52850
830.9853, 36.21948
831.4674, 39.45667
831.9495, 37.54004
832.4316, 34.79248
832.9138, 33.29944
833.3959, 32.92462
833.8780, 35.11279
834.3601, 39.06647
834.8422, 37.39362
835.3243, 19.90845
835.8065, 0.7278440
836.2886, 4.229614
836.7707, 6.2438998E-02
837.2528, 4.227661
837.7349, 7.370178
838.2170, 11.19647
838.6992, 17.46368
839.1813, 23.05188
839.6634, 21.41370
840.1455, 13.83075
840.6276, 11.45148
841.1097, 15.07733
841.5919, 13.97437
842.0740, 2.255005
842.5561, 7.167786
843.0382, 2.585693
843.5203, 28.95068
844.0024, 40.15259
844.4846, 28.23553
844.9667, 19.64508
845.4488, 19.14276
845.9309, 20.62384
846.4130, 21.77716
846.8951, 21.91675
847.3773, 19.19934
847.8594, 12.43695
848.3415, 7.098755
848.8236, 4.540527
849.3057, 2.878357
849.7878, 1.322815
850.2700, 3.450500
850.7521, 6.281799
851.2342, 25.44171
851.7163, 36.72339
852.1984, 28.03680
852.6805, 17.28009
853.1627, 18.89423
853.6448, 25.11298
854.1269, 24.75287
854.6090, 19.72382
855.0911, 20.36810
855.5732, 30.17859
856.0554, 38.59125
856.5375, 29.24347
857.0196, 11.43152
857.5017, 10.83447
857.9838, 24.47009
858.4659, 35.37634
858.9481, 39.27228
859.4302, 40.48975
859.9123, 43.60876
860.3944, 45.63293
860.8765, 35.75165
861.3586, 11.60352
861.8408, 3.013428
862.3229, 4.877930
862.8050, 0.5623780
863.2871, 9.377625
863.7692, 19.25159
864.2513, 20.20270
864.7335, 11.54260
865.2156, 8.262268
865.6977, 12.66400
866.1798, 19.00562
866.6619, 30.25195
867.1440, 39.63300
867.6262, 42.49884
868.1083, 40.41785
868.5904, 36.22302
869.0725, 28.50677
869.5546, 25.47198
870.0367, 36.71912
870.5189, 45.05188
871.0010, 36.21198
871.4831, 21.69702
871.9652, 17.89960
872.4473, 24.90735
872.9294, 28.43170
873.4116, 19.02118
873.8937, 8.377319
874.3758, 6.676331
874.8579, 8.999023
875.3400, 8.478943
875.8221, 5.672241
876.3043, 3.248779
876.7864, 2.483765
877.2685, 6.892883
877.7506, 26.92743
878.2327, 50.88409
878.7148, 47.31769
879.1970, 22.45367
879.6791, 4.221741
880.1612, 1.701599
880.6433, 0.4764400
881.1254, 5.002686
881.6075, 12.49737
882.0897, 17.11609
882.5718, 18.70203
883.0539, 23.16913
883.5360, 32.17511
884.0181, 34.15149
884.5002, 22.92157
884.9824, 8.323181
885.4645, 0.5779420
885.9466, 0.6535640
886.4287, 2.207947
886.9108, 13.90814
887.3929, 18.30170
887.8751, 6.529419
888.3572, 2.831238
888.8393, 1.848999
889.3214, 14.06720
889.8035, 24.38403
890.2856, 33.54321
890.7678, 35.13129
891.2499, 19.57837
891.7320, 8.415771
892.2141, 11.63934
892.6962, 17.86798
893.1783, 18.23163
893.6605, 13.59454
894.1426, 7.461914
894.6247, 0.2226560
895.1068, 3.180847
895.5889, 4.124329
896.0710, 14.09021
896.5532, 23.21118
897.0353, 30.43463
897.5174, 35.76678
897.9995, 38.52942
898.4816, 35.43829
898.9637, 21.86224
899.4459, 7.599243
899.9280, 0.5453490
900.4101, 1.265808
900.8922, 2.745117
901.3743, 10.49011
901.8564, 18.78894
902.3386, 26.31696
902.8207, 31.83716
903.3028, 34.56750
903.7849, 34.06909
904.2670, 27.24335
904.7491, 16.21912
905.2313, 9.982605
905.7134, 9.506104
906.1955, 8.307861
906.6776, 2.323425
907.1597, 3.324890
907.6418, 0.3549190
908.1240, 12.34143
908.6061, 16.69727
909.0882, 12.93964
909.5703, 11.65399
910.0524, 15.33374
910.5345, 20.29456
911.0167, 23.46606
911.4988, 24.59058
911.9809, 22.28760
912.4630, 15.44885
912.9451, 10.17896
913.4272, 6.145996
913.9094, 5.373779
914.3915, 11.18597
914.8736, 16.65002
915.3557, 11.24683
915.8378, 3.765259
916.3199, 4.857910
916.8021, 23.19409
917.2842, 37.39362
917.7663, 23.12146
918.2484, 8.210449
918.7305, 7.731689
919.2126, 14.26025
919.6948, 16.70264
920.1769, 14.57013
920.6590, 13.42358
921.1411, 15.73639
921.6232, 15.86047
922.1053, 9.818298
922.5875, 3.546448
923.0696, 0.3084110
923.5517, 0.4703980
924.0338, 5.165100
924.5159, 15.90491
924.9980, 23.35565
925.4802, 23.27075
925.9623, 20.47491
926.4444, 15.43860
926.9265, 10.66931
927.4086, 9.802368
927.8907, 11.83551
928.3729, 11.52545
928.8550, 5.403992
929.3371, 2.205505
929.8192, 10.96942
930.3013, 21.91504
930.7834, 25.02423
931.2656, 23.87158
931.7477, 26.27460
932.2298, 32.86029
932.7119, 36.96161
933.1940, 33.69006
933.6761, 28.63586
934.1583, 29.40308
934.6404, 31.04895
935.1225, 22.77814
935.6046, 8.604187
936.0867, 2.166748
936.5688, 7.353394
937.0510, 17.19739
937.5331, 28.07843
938.0152, 36.13605
938.4973, 33.18738
938.9794, 23.08112
939.4615, 14.21387
939.9437, 8.458984
940.4258, 11.26324
940.9079, 24.89752
941.3900, 37.42975
941.8721, 32.61707
942.3542, 17.08173
942.8364, 11.92755
943.3185, 15.71014
943.8006, 18.97821
944.2827, 20.37115
944.7648, 23.08923
945.2469, 29.32208
945.7290, 35.19647
946.2111, 33.36279
946.6932, 25.32434
947.1754, 20.20581
947.6575, 18.16663
948.1396, 17.06439
948.6217, 16.54541
949.1038, 17.80481
949.5859, 22.22052
950.0681, 27.22540
950.5502, 26.25433
951.0323, 18.57336
951.5144, 15.64392
951.9965, 18.78693
952.4786, 19.80402
952.9608, 15.79547
953.4429, 10.92572
953.9250, 7.872803
954.4071, 6.398743
954.8892, 5.738770
955.3713, 5.894348
955.8535, 6.941467
956.3356, 9.166199
956.8177, 11.56787
957.2998, 14.01257
957.7819, 16.22357
958.2640, 18.16986
958.7462, 19.76465
959.2283, 19.33386
959.7104, 16.20135
960.1925, 12.52667
960.6746, 7.229492
961.1567, 3.183838
961.6389, 2.8991999E-02
962.1210, 0.1440430
962.6031, 10.17645
963.0852, 28.29108
963.5673, 32.50415
964.0494, 6.854797
964.5316, 5.509216
965.0137, 10.74078
965.4958, 23.49847
965.9779, 12.29236
966.4600, 5.955017
966.9421, 8.880005
967.4243, 3.220642
967.9064, 9.641724
968.3885, 1.064026
968.8706, 0.1531370
969.3527, 18.49078
969.8348, 33.76703
970.3170, 30.52136
970.7991, 18.29785
971.2812, 8.915833
971.7633, 3.074524
972.2454, 3.327759
972.7275, 15.94391
973.2097, 26.12970
973.6918, 29.97687
974.1739, 31.28644
974.6560, 32.64172
975.1381, 33.01898
975.6202, 30.07587
976.1024, 23.39276
976.5845, 20.04688
977.0666, 26.68805
977.5487, 29.67407
978.0308, 17.99640
978.5129, 8.219360
978.9951, 17.46295
979.4772, 35.11249
979.9593, 39.73260
980.4414, 27.53485
980.9235, 18.00189
981.4056, 19.72388
981.8878, 20.77899
982.3699, 14.93127
982.8520, 8.367065
983.3341, 4.229675
983.8162, 3.819580
984.2983, 11.61340
984.7805, 29.26239
985.2626, 37.98004
985.7447, 20.04156
986.2268, 4.353699
986.7089, 6.040833
987.1910, 13.62866
987.6732, 18.52869
988.1553, 20.64319
988.6374, 22.44788
989.1195, 24.67761
989.6016, 23.42841
990.0837, 11.43915
990.5659, 2.732971
991.0480, 8.926758
991.5301, 17.75494
992.0122, 15.78339
992.4943, 7.308228
992.9764, 5.204346
993.4586, 13.06879
993.9407, 19.24640
994.4228, 15.40271
994.9049, 12.63141
995.3870, 20.20923
995.8691, 29.04791
996.3513, 29.85779
996.8334, 24.41620
997.3155, 18.42279
997.7976, 13.26660
998.2797, 8.947632
998.7618, 4.430664
999.2440, 2.005371
999.7261, 5.251038
1000.208, 9.363647
1000.690, 7.989014
1001.172, 3.758972
1001.655, 4.503113
1002.137, 12.60278
1002.619, 19.04675
1003.101, 20.78558
1003.583, 18.47736
1004.065, 7.962097
1004.547, 2.721191
1005.029, 6.149780
1005.511, 2.955994
1005.994, 4.862122
1006.476, 17.09473
1006.958, 26.71680
1007.440, 30.64368
1007.922, 31.00110
1008.404, 27.67737
1008.886, 22.38812
1009.368, 14.43500
1009.851, 6.489319
1010.333, 4.398499
1010.815, 9.662659
1011.297, 14.98181
1011.779, 18.16809
1012.261, 19.55029
1012.743, 18.58862
1013.225, 16.90308
1013.707, 15.21204
1014.190, 14.16980
1014.672, 14.83044
1015.154, 17.42377
1015.636, 20.82654
1016.118, 27.33276
1016.600, 31.01990
1017.082, 27.91449
1017.564, 22.17499
1018.047, 14.97504
1018.529, 8.624451
1019.011, 7.673767
1019.493, 12.82300
1019.975, 16.78430
1020.457, 14.19702
1020.939, 13.99280
1021.421, 23.08911
1021.903, 32.25848
1022.386, 34.54364
1022.868, 32.71747
1023.350, 29.49237
1023.832, 25.12823
1024.314, 19.63953
1024.796, 11.30316
1025.278, 5.723694
1025.760, 5.966797
1026.243, 6.613037
1026.725, 1.968567
1027.207, 3.281128
1027.689, 0.5745240
1028.171, 10.12354
1028.653, 16.67993
1029.135, 11.15723
1029.617, 9.733398
1030.099, 20.61871
1030.582, 31.46082
1031.064, 38.16028
1031.546, 39.49353
1032.028, 30.19012
1032.510, 12.14301
1032.992, 4.973328
1033.474, 21.32312
1033.956, 31.43103
1034.438, 27.77820
1034.921, 22.76990
1035.403, 20.36053
1035.885, 20.03418
1036.367, 22.75836
1036.849, 27.48865
1037.331, 27.55139
1037.813, 15.21570
1038.295, 12.86340
1038.778, 35.21027
1039.260, 48.34869
1039.742, 32.94543
1040.224, 12.48541
1040.706, 8.973633
1041.188, 17.05176
1041.670, 16.17065
1042.152, 0.6902470
1042.635, 6.942383
1043.117, 2.813110
1043.599, 1.836670
1044.081, 3.293579
1044.563, 5.904968
1045.045, 14.38605
1045.527, 25.57599
1046.009, 31.82910
1046.491, 33.13153
1046.974, 28.66260
1047.456, 14.90588
1047.938, 5.181030
1048.420, 2.014709
1048.902, 4.418457
1049.384, 14.00079
1049.866, 25.08936
1050.348, 26.19562
1050.830, 17.28351
1051.313, 15.79431
1051.795, 23.62805
1052.277, 27.94775
1052.759, 26.30402
1053.241, 22.84424
1053.723, 18.95996
1054.205, 17.54449
1054.687, 24.16052
1055.169, 36.17010
1055.652, 35.59003
1056.134, 22.21246
1056.616, 16.34753
1057.098, 20.39154
1057.580, 26.31287
1058.062, 31.06506
1058.544, 32.33514
1059.026, 26.46832
1059.509, 17.68134
1059.991, 20.28662
1060.473, 31.30670
1060.955, 31.11432
1061.437, 19.87354
1061.919, 10.82794
1062.401, 7.942383
1062.883, 7.725403
1063.365, 7.894836
1063.848, 9.449707
1064.330, 15.14276
1064.812, 23.06604
1065.294, 29.86414
1065.776, 34.23114
1066.258, 29.44250
1066.740, 16.55908
1067.222, 10.71674
1067.704, 21.43768
1068.187, 32.22650
1068.669, 18.55298
1069.151, 1.513855
1069.633, 1.219238
1070.115, 15.90308
1070.597, 20.81128
1071.079, 15.91986
1071.561, 13.71686
1072.044, 19.05084
1072.526, 24.89709
1073.008, 27.77643
1073.490, 27.02374
1073.972, 18.19867
1074.454, 8.500427
1074.936, 6.821960
1075.418, 10.90857
1075.901, 14.36774
1076.383, 15.75482
1076.865, 17.61920
1077.347, 22.96375
1077.829, 26.44513
1078.311, 25.68854
1078.793, 21.59772
1079.275, 11.71796
1079.757, 0.8929440
1080.240, 5.033997
1080.722, 5.462769
1081.204, 1.400452
1081.686, 9.982727
1082.168, 19.22888
1082.650, 23.38422
1083.132, 26.49713
1083.614, 31.52136
1084.096, 35.08679
1084.579, 34.43756
1085.061, 29.52435
1085.543, 20.04681
1086.025, 2.312927
1086.507, 4.775879
1086.989, 7.567322
1087.471, 14.93610
1087.953, 9.397034
1088.436, 3.523987
1088.918, 5.931458
1089.400, 11.52643
1089.882, 10.75818
1090.364, 3.867310
1090.846, 4.290649
1091.328, 13.56458
1091.810, 23.62140
1092.292, 34.90948
1092.775, 39.10559
1093.257, 31.30786
1093.739, 21.13202
1094.221, 19.82928
1094.703, 23.30731
1095.185, 16.04968
1095.667, 0.5482180
1096.149, 9.649475
1096.631, 10.29236
1097.114, 0.1354980
1097.596, 21.67303
1098.078, 40.97717
1098.560, 48.98920
1099.042, 47.91663
1099.524, 37.48108
1100.006, 22.28204
1100.488, 11.94421
1100.971, 6.608643
1101.453, 4.027222
1101.935, 3.842957
1102.417, 7.571777
1102.899, 15.81805
1103.381, 25.75208
1103.863, 39.94574
1104.345, 49.10107
1104.828, 38.62408
1105.310, 21.28802
1105.792, 11.14893
1106.274, 8.219238
1106.756, 10.47357
1107.238, 16.57928
1107.720, 21.74518
1108.202, 23.66119
1108.684, 24.72229
1109.167, 25.56891
1109.649, 26.42120
1110.131, 29.83685
1110.613, 31.51538
1111.095, 22.29755
1111.577, 6.972595
1112.059, 5.390198
1112.541, 26.55658
1113.023, 37.68994
1113.506, 26.09808
1113.988, 17.55292
1114.470, 18.24622
1114.952, 22.32550
1115.434, 27.05090
1115.916, 32.58569
1116.398, 40.23157
1116.880, 49.72998
1117.363, 51.72766
1117.845, 44.22186
1118.327, 36.98700
1118.809, 31.12299
1119.291, 23.05957
1119.773, 9.825317
1120.255, 1.774170
1120.737, 9.692566
1121.219, 27.73218
1121.702, 44.28058
1122.184, 58.02222
1122.666, 52.27515
1123.148, 29.87109
1123.630, 16.86816
1124.112, 17.96478
1124.594, 21.75012
1125.076, 22.01605
1125.558, 20.64172
1126.041, 18.95825
1126.523, 17.72284
1127.005, 18.43878
1127.487, 20.41461
1127.969, 21.73071
1128.451, 22.48145
1128.933, 26.08496
1129.415, 32.60565
1129.898, 35.96869
1130.380, 32.53644
1130.862, 25.97156
1131.344, 13.97833
1131.826, 4.523254
1132.308, 7.776428
1132.790, 15.35175
1133.272, 17.61426
1133.755, 14.60144
1134.237, 9.772522
1134.719, 2.760925
1135.201, 1.436157
1135.683, 0.5698240
1136.165, 1.035645
1136.647, 0.2487180
1137.129, 2.735840
1137.611, 15.04022
1138.094, 28.66260
1138.576, 31.70776
1139.058, 25.74683
1139.540, 23.74188
1140.022, 26.83264
1140.504, 27.51086
1140.986, 24.70343
1141.468, 24.58185
1141.950, 30.07574
1142.433, 29.70947
1142.915, 12.82111
1143.397, 7.170532
1143.879, 2.250244
1144.361, 20.26965
1144.843, 31.35980
1145.325, 32.47272
1145.807, 29.81329
1146.290, 24.96393
1146.772, 19.18469
1147.254, 13.19061
1147.736, 9.682495
1148.218, 11.34363
1148.700, 15.44208
1149.182, 20.85516
1149.664, 25.60510
1150.146, 25.70386
1150.629, 24.18982
1151.111, 28.02802
1151.593, 35.51031
1152.075, 35.61536
1152.557, 22.53687
1153.039, 14.58124
1153.521, 25.17505
1154.003, 31.51587
1154.485, 17.90558
1154.968, 6.855652
1155.450, 17.36249
1155.932, 37.46857
1156.414, 48.41559
1156.896, 50.61151
1157.378, 50.26599
1157.860, 47.33771
1158.342, 41.85687
1158.825, 33.37915
1159.307, 22.44366
1159.789, 7.112061
1160.271, 8.6304002E-02
1160.753, 11.43146
1161.235, 30.65778
1161.717, 37.28748
1162.199, 33.23608
1162.682, 24.98608
1163.164, 14.73975
1163.646, 16.38812
1164.128, 28.27875
1164.610, 30.94690
1165.092, 18.99255
1165.574, 12.39972
1166.056, 29.86627
1166.538, 48.45825
1167.021, 41.85016
1167.503, 26.59357
1167.985, 18.13483
1168.467, 14.61444
1168.949, 12.69269
1169.431, 11.57257
1169.913, 11.07306
1170.395, 11.27759
1170.877, 10.69446
1171.360, 5.674316
1171.842, 4.604675
1172.324, 12.04169
1172.806, 21.11993
1173.288, 29.46472
1173.770, 36.58331
1174.252, 42.74622
1174.734, 46.98920
1175.217, 44.27277
1175.699, 32.37988
1176.181, 26.87256
1176.663, 28.80182
1177.145, 28.45416
1177.627, 23.58673
1178.109, 20.87958
1178.591, 24.57947
1179.073, 28.13031
1179.556, 22.47046
1180.038, 13.23755
1180.520, 14.59863
1181.002, 21.18927
1181.484, 20.12439
1181.966, 13.35516
1182.448, 6.232239
1182.930, 2.766724
1183.412, 4.870239
1183.895, 15.11340
1184.377, 20.96497
1184.859, 6.266235
1185.341, 4.367737
1185.823, 10.36084
1186.305, 28.24884
1186.787, 31.93201
1187.269, 25.45251
1187.752, 13.86310
1188.234, 1.288757
1188.716, 6.508301
1189.198, 2.051880
1189.680, 12.86530
1190.162, 30.58618
1190.644, 37.11920
1191.126, 24.95801
1191.609, 11.26208
1192.091, 6.518738
1192.573, 7.841797
1193.055, 12.17242
1193.537, 17.82611
1194.019, 15.81586
1194.501, 9.546936
1194.983, 17.30438
1195.465, 35.49493
1195.948, 43.14771
1196.430, 36.28888
1196.912, 25.91583
1197.394, 17.42346
1197.876, 11.60114
1198.358, 8.976318
1198.840, 9.537048
1199.322, 15.21442
1199.804, 22.31580
1200.287, 30.64746
1200.769, 36.07324
1201.251, 27.99182
1201.733, 7.707886
1202.215, 0.8683470
1202.697, 19.87335
1203.179, 32.45184
1203.661, 39.61731
1204.144, 41.67365
1204.626, 37.12494
1205.108, 30.18726
1205.590, 27.08136
1206.072, 23.38098
1206.554, 12.75458
1207.036, 1.6785000E-02
1207.518, 8.092834
1208.000, 31.82379
1208.483, 42.91675
1208.965, 41.74994
1209.447, 38.46643
1209.929, 35.98175
1210.411, 34.70880
1210.893, 34.93030
1211.375, 35.10339
1211.857, 35.10327
1212.339, 33.17773
1212.822, 23.44720
1213.304, 14.60419
1213.786, 16.98566
1214.268, 23.75330
1214.750, 22.95258
1215.232, 15.56342
1215.714, 18.21747
1216.196, 41.97229
1216.679, 45.62061
1217.161, 15.40344
1217.643, 0.9153440
1218.125, 9.555054
1218.607, 20.50378
1219.089, 18.03223
1219.571, 3.464844
1220.053, 1.832520
1220.536, 0.0000000E+00
##END=



