##NAMES=Celsian
##RRUFFID=R170048
##IDEAL CHEMISTRY=BaAl_2_Si_2_O_8_
##LOCALITY=Big Creek, Pine Flat Lake, Trimmer, Fresno County, California, USA
##OWNER=RRUFF
##SOURCE=Gunnar FÃ¤rber
##DESCRIPTION=Colorless anhedral grains in matrix associated with cerchiaraite-(Fe) R160021 and pellyite R160023
##STATUS=The identification of this mineral has been determined only by Raman spectroscopy
##URL=rruff.info/R170048
88.13672, 0.0000000E+00
88.61884, 35.29761
89.10095, 0.9665530
89.58307, 7.497070
90.06519, 31.05737
90.54730, 48.76270
91.02942, 60.87769
91.51154, 66.29834
91.99365, 65.83594
92.47577, 70.00928
92.95789, 71.20459
93.44000, 63.27734
93.92212, 48.60010
94.40424, 33.30273
94.88635, 21.72754
95.36847, 12.98438
95.85059, 2.521484
96.33270, 9.700684
96.81482, 18.54199
97.29694, 21.03906
97.77905, 17.51221
98.26117, 12.81738
98.74329, 7.902832
99.22540, 2.538086
99.70752, 5.061035
100.1896, 14.41162
100.6718, 24.65527
101.1539, 33.98779
101.6360, 41.60986
102.1181, 53.05908
102.6002, 68.61621
103.0823, 88.22705
103.5645, 111.7446
104.0466, 140.4800
104.5287, 172.2383
105.0108, 206.5664
105.4929, 244.1636
105.9750, 282.9673
106.4572, 323.5400
106.9393, 366.8574
107.4214, 406.9766
107.9035, 444.8867
108.3856, 480.3848
108.8677, 511.9731
109.3499, 543.9194
109.8320, 569.7715
110.3141, 586.5215
110.7962, 590.7632
111.2783, 599.8330
111.7604, 617.1450
112.2426, 640.1543
112.7247, 664.0874
113.2068, 689.0137
113.6889, 714.2070
114.1710, 739.1675
114.6531, 765.0308
115.1353, 788.0796
115.6174, 806.6514
116.0995, 821.8921
116.5816, 837.4282
117.0637, 854.7197
117.5458, 871.9990
118.0280, 888.4307
118.5101, 901.1992
118.9922, 915.9419
119.4743, 935.2959
119.9564, 958.9805
120.4385, 984.9570
120.9207, 1012.498
121.4028, 1041.543
121.8849, 1071.762
122.3670, 1103.517
122.8491, 1136.890
123.3312, 1172.224
123.8134, 1209.500
124.2955, 1245.967
124.7776, 1277.937
125.2597, 1307.195
125.7418, 1337.535
126.2239, 1371.171
126.7061, 1406.884
127.1882, 1440.474
127.6703, 1472.153
128.1524, 1504.065
128.6345, 1538.825
129.1166, 1575.969
129.5988, 1613.472
130.0809, 1649.562
130.5630, 1685.196
131.0451, 1723.714
131.5272, 1765.061
132.0093, 1808.760
132.4915, 1856.158
132.9736, 1907.182
133.4557, 1957.410
133.9378, 2004.455
134.4199, 2048.230
134.9020, 2086.430
135.3842, 2118.846
135.8663, 2144.361
136.3484, 2163.163
136.8305, 2174.452
137.3126, 2179.872
137.7947, 2179.040
138.2769, 2171.158
138.7590, 2160.894
139.2411, 2148.417
139.7232, 2133.671
140.2053, 2115.517
140.6874, 2092.628
141.1696, 2069.719
141.6517, 2050.848
142.1338, 2038.797
142.6159, 2024.846
143.0980, 2007.797
143.5801, 1988.399
144.0623, 1971.616
144.5444, 1960.007
145.0265, 1949.198
145.5086, 1934.991
145.9907, 1906.264
146.4728, 1883.517
146.9550, 1871.770
147.4371, 1872.618
147.9192, 1868.155
148.4013, 1854.523
148.8834, 1837.659
149.3655, 1823.125
149.8477, 1812.165
150.3298, 1801.721
150.8119, 1791.996
151.2940, 1783.650
151.7761, 1771.549
152.2583, 1750.978
152.7404, 1727.921
153.2225, 1708.766
153.7046, 1696.006
154.1867, 1685.222
154.6688, 1675.664
155.1510, 1667.858
155.6331, 1661.310
156.1152, 1656.239
156.5973, 1652.443
157.0794, 1649.444
157.5615, 1644.696
158.0437, 1643.132
158.5258, 1646.979
159.0079, 1657.205
159.4900, 1670.871
159.9721, 1689.544
160.4542, 1710.875
160.9364, 1730.749
161.4185, 1745.676
161.9006, 1759.922
162.3827, 1776.098
162.8648, 1795.640
163.3469, 1814.218
163.8291, 1829.681
164.3112, 1842.410
164.7933, 1854.368
165.2754, 1864.844
165.7575, 1875.710
166.2396, 1889.197
166.7218, 1908.462
167.2039, 1925.447
167.6860, 1937.946
168.1681, 1944.753
168.6502, 1942.924
169.1323, 1921.721
169.6145, 1894.800
170.0966, 1877.070
170.5787, 1878.732
171.0608, 1880.312
171.5429, 1864.275
172.0250, 1833.104
172.5072, 1798.983
172.9893, 1768.492
173.4714, 1739.668
173.9535, 1710.470
174.4356, 1682.667
174.9177, 1651.107
175.3999, 1609.831
175.8820, 1558.946
176.3641, 1502.596
176.8462, 1438.507
177.3283, 1371.012
177.8104, 1308.108
178.2926, 1253.237
178.7747, 1203.860
179.2568, 1157.443
179.7389, 1114.300
180.2210, 1072.698
180.7031, 1030.577
181.1853, 989.2188
181.6674, 952.5908
182.1495, 923.1143
182.6316, 898.4971
183.1137, 875.1201
183.5958, 852.8535
184.0780, 831.7461
184.5601, 811.4385
185.0422, 792.0986
185.5243, 774.3281
186.0064, 757.7539
186.4885, 742.9883
186.9707, 732.3994
187.4528, 726.2969
187.9349, 721.8604
188.4170, 715.8018
188.8991, 708.5967
189.3812, 703.4590
189.8634, 701.9941
190.3455, 703.6035
190.8276, 706.1182
191.3097, 709.7852
191.7918, 714.2861
192.2739, 718.0596
192.7561, 721.3857
193.2382, 728.7930
193.7203, 743.6719
194.2024, 764.0625
194.6845, 781.0225
195.1666, 794.3438
195.6488, 803.0850
196.1309, 807.3154
196.6130, 807.3154
197.0951, 797.9932
197.5772, 777.7393
198.0593, 746.7246
198.5415, 704.7559
199.0236, 649.8643
199.5057, 590.3203
199.9878, 536.7715
200.4699, 489.9004
200.9520, 446.5547
201.4342, 406.2451
201.9163, 369.1533
202.3984, 336.4082
202.8805, 308.7812
203.3626, 284.7314
203.8447, 262.0254
204.3269, 240.3633
204.8090, 221.7656
205.2911, 206.8105
205.7732, 195.3467
206.2553, 187.1738
206.7374, 182.1514
207.2196, 179.8984
207.7017, 180.2832
208.1838, 183.6367
208.6659, 187.4258
209.1480, 190.7764
209.6301, 194.1006
210.1123, 196.5811
210.5944, 197.2188
211.0765, 197.3506
211.5586, 199.2900
212.0407, 203.3301
212.5228, 208.0059
213.0050, 212.9561
213.4871, 218.1055
213.9692, 222.0801
214.4513, 225.3320
214.9334, 226.6904
215.4155, 224.1543
215.8977, 215.9805
216.3798, 208.8281
216.8619, 205.2559
217.3440, 205.9814
217.8261, 204.3535
218.3082, 198.7959
218.7904, 192.6787
219.2725, 191.4531
219.7546, 198.2334
220.2367, 203.2520
220.7188, 203.3867
221.2009, 198.1904
221.6831, 194.6094
222.1652, 195.0732
222.6473, 195.7959
223.1294, 190.4277
223.6115, 175.6943
224.0936, 160.2998
224.5758, 146.4912
225.0579, 134.5029
225.5400, 122.8203
226.0221, 110.9170
226.5042, 99.95898
226.9863, 91.11035
227.4685, 83.48242
227.9506, 78.61621
228.4327, 77.16113
228.9148, 79.43457
229.3969, 81.84570
229.8790, 83.11523
230.3612, 85.27637
230.8433, 91.29980
231.3254, 104.1904
231.8075, 115.5156
232.2896, 122.2773
232.7717, 123.5693
233.2539, 128.4043
233.7360, 138.7744
234.2181, 150.7637
234.7002, 160.0361
235.1823, 165.1357
235.6644, 170.3486
236.1466, 176.1172
236.6287, 182.3018
237.1108, 192.9678
237.5929, 209.5000
238.0750, 229.4355
238.5571, 250.1426
239.0393, 271.4629
239.5214, 294.4072
240.0035, 318.9717
240.4856, 345.4795
240.9677, 374.0781
241.4498, 404.1377
241.9320, 436.7471
242.4141, 473.6289
242.8962, 516.4707
243.3783, 559.9014
243.8604, 603.8311
244.3425, 648.0010
244.8247, 687.7588
245.3068, 726.5264
245.7889, 756.5420
246.2710, 770.2920
246.7531, 759.5840
247.2352, 748.7119
247.7174, 744.0371
248.1995, 744.6602
248.6816, 731.7588
249.1637, 700.7646
249.6458, 662.1670
250.1279, 623.8438
250.6101, 584.1475
251.0922, 548.9121
251.5743, 519.7344
252.0564, 496.3799
252.5385, 476.4893
253.0206, 459.8311
253.5028, 447.1777
253.9849, 439.5762
254.4670, 438.5967
254.9491, 438.2207
255.4312, 437.8174
255.9133, 437.0752
256.3955, 436.1152
256.8776, 436.5566
257.3597, 433.2012
257.8418, 422.5928
258.3239, 403.1748
258.8061, 379.5703
259.2882, 350.7422
259.7703, 317.8311
260.2524, 285.8271
260.7345, 255.0615
261.2166, 224.4609
261.6988, 192.5674
262.1809, 158.6963
262.6630, 128.6465
263.1451, 103.8311
263.6272, 83.12793
264.1093, 63.79102
264.5915, 45.58301
265.0736, 29.66016
265.5557, 17.57227
266.0378, 11.44824
266.5199, 1.091797
267.0020, 16.07520
267.4842, 35.71387
267.9663, 48.45312
268.4484, 52.79785
268.9305, 54.24512
269.4126, 55.42285
269.8947, 56.80469
270.3769, 55.99707
270.8590, 52.97266
271.3411, 48.19238
271.8232, 42.11133
272.3053, 34.53027
272.7874, 27.77734
273.2696, 23.04492
273.7517, 20.66699
274.2338, 17.89453
274.7159, 14.76172
275.1980, 11.66309
275.6801, 9.123047
276.1623, 7.107422
276.6444, 5.415039
277.1265, 3.064453
277.6086, 0.1083980
278.0907, 0.6875000
278.5728, 4.674805
279.0550, 11.46777
279.5371, 22.22266
280.0192, 37.42383
280.5013, 48.38477
280.9834, 51.80078
281.4655, 48.90820
281.9477, 46.36816
282.4298, 44.15332
282.9119, 42.46289
283.3940, 42.50293
283.8761, 44.27832
284.3582, 43.54199
284.8404, 39.10059
285.3225, 31.92773
285.8046, 24.52832
286.2867, 17.08105
286.7688, 9.712891
287.2509, 2.471680
287.7331, 4.542969
288.2152, 10.80469
288.6973, 15.77637
289.1794, 20.43750
289.6615, 27.14941
290.1436, 35.97461
290.6258, 44.60156
291.1079, 51.18066
291.5900, 56.31543
292.0721, 62.56055
292.5542, 70.34961
293.0363, 79.02051
293.5185, 87.19336
294.0006, 95.13965
294.4827, 103.9756
294.9648, 115.3232
295.4469, 128.2432
295.9290, 139.7705
296.4112, 149.5498
296.8933, 159.0498
297.3754, 168.5889
297.8575, 178.7461
298.3396, 192.1748
298.8217, 211.8711
299.3039, 235.0459
299.7860, 256.1992
300.2681, 275.1709
300.7502, 293.8311
301.2323, 314.0283
301.7144, 335.3916
302.1966, 355.9834
302.6787, 375.6123
303.1608, 394.2656
303.6429, 413.1494
304.1250, 431.9814
304.6071, 448.3447
305.0893, 461.3350
305.5714, 470.3135
306.0535, 473.8125
306.5356, 471.9492
307.0177, 464.0225
307.4998, 448.1953
307.9820, 425.0918
308.4641, 398.5703
308.9462, 370.1787
309.4283, 339.9404
309.9104, 307.4414
310.3925, 270.4150
310.8747, 235.6279
311.3568, 208.6729
311.8389, 188.1064
312.3210, 169.8564
312.8031, 151.9648
313.2852, 135.5459
313.7674, 121.6680
314.2495, 111.3125
314.7316, 101.7627
315.2137, 91.58594
315.6958, 81.45605
316.1779, 72.51465
316.6601, 64.76465
317.1422, 58.57129
317.6243, 54.46680
318.1064, 52.73340
318.5885, 51.58105
319.0706, 50.54980
319.5528, 49.73535
320.0349, 49.23535
320.5170, 48.61230
320.9991, 48.95312
321.4812, 50.82617
321.9633, 54.04688
322.4455, 57.19043
322.9276, 57.79199
323.4097, 59.36035
323.8918, 64.49121
324.3739, 81.84180
324.8560, 92.99512
325.3382, 91.55078
325.8203, 79.75293
326.3024, 71.63477
326.7845, 71.52832
327.2666, 72.82422
327.7487, 72.34180
328.2309, 68.12500
328.7130, 65.01758
329.1951, 64.13672
329.6772, 64.49316
330.1593, 63.41992
330.6414, 59.27930
331.1236, 55.47656
331.6057, 53.04395
332.0878, 52.07520
332.5699, 52.63281
333.0520, 56.05371
333.5341, 60.35742
334.0163, 62.65234
334.4984, 62.68066
334.9805, 61.28320
335.4626, 57.77637
335.9447, 51.84668
336.4268, 50.25781
336.9090, 54.25391
337.3911, 60.37109
337.8732, 65.31934
338.3553, 69.20898
338.8374, 72.62207
339.3195, 75.66309
339.8017, 78.35742
340.2838, 81.95898
340.7659, 86.65039
341.2480, 90.53027
341.7301, 91.78809
342.2122, 90.24512
342.6944, 89.27539
343.1765, 89.26660
343.6586, 89.97363
344.1407, 91.14551
344.6228, 92.79004
345.1049, 94.08301
345.5871, 94.43359
346.0692, 94.15430
346.5513, 94.16992
347.0334, 94.66211
347.5155, 96.09766
347.9977, 99.60352
348.4798, 104.8467
348.9619, 109.3818
349.4440, 109.8320
349.9261, 109.7432
350.4082, 117.9160
350.8904, 134.2129
351.3725, 150.3320
351.8546, 157.5234
352.3367, 159.2168
352.8188, 163.2334
353.3009, 173.5215
353.7831, 184.4219
354.2652, 190.0635
354.7473, 190.8477
355.2294, 188.9248
355.7115, 184.8818
356.1936, 179.3418
356.6758, 173.2930
357.1579, 167.5957
357.6400, 160.3105
358.1221, 148.8965
358.6042, 135.3643
359.0863, 123.2822
359.5685, 115.6035
360.0506, 109.2354
360.5327, 102.2773
361.0148, 94.54004
361.4969, 87.22656
361.9790, 79.06250
362.4612, 72.14941
362.9433, 68.60449
363.4254, 70.07031
363.9075, 73.46484
364.3896, 78.48926
364.8717, 84.69531
365.3539, 89.67090
365.8360, 92.48633
366.3181, 93.61426
366.8002, 93.40234
367.2823, 89.93262
367.7644, 87.17188
368.2466, 86.14355
368.7287, 85.98535
369.2108, 84.35938
369.6929, 80.76660
370.1750, 76.35547
370.6571, 71.72754
371.1393, 67.29883
371.6214, 61.59863
372.1035, 54.20703
372.5856, 46.18262
373.0677, 38.77051
373.5498, 32.03516
374.0320, 26.15332
374.5141, 21.60059
374.9962, 18.39746
375.4783, 14.95117
375.9604, 11.30762
376.4425, 8.006836
376.9247, 5.770508
377.4068, 4.884766
377.8889, 3.176758
378.3710, 0.2939450
378.8531, 4.072266
379.3352, 4.549805
379.8174, 1.641602
380.2995, 2.693359
380.7816, 6.914063
381.2637, 11.13574
381.7458, 17.10938
382.2279, 25.50098
382.7101, 33.59180
383.1922, 36.98633
383.6743, 36.60449
384.1564, 37.83887
384.6385, 43.97559
385.1206, 52.14160
385.6028, 57.91992
386.0849, 61.32812
386.5670, 62.64648
387.0491, 61.19629
387.5312, 58.30566
388.0133, 55.98926
388.4955, 54.72949
388.9776, 54.45996
389.4597, 56.77344
389.9418, 60.55566
390.4239, 62.23340
390.9060, 57.99023
391.3882, 52.40332
391.8703, 48.70996
392.3524, 47.25488
392.8345, 47.51270
393.3166, 50.01074
393.7987, 53.69727
394.2809, 57.36426
394.7630, 60.27832
395.2451, 63.59961
395.7272, 67.75781
396.2093, 72.66699
396.6914, 77.58496
397.1736, 82.96289
397.6557, 87.68945
398.1378, 91.01562
398.6199, 89.00293
399.1020, 90.40332
399.5841, 98.37402
400.0663, 109.6924
400.5484, 116.5742
401.0305, 115.5908
401.5126, 114.4199
401.9947, 115.6592
402.4768, 119.8281
402.9590, 123.3262
403.4411, 125.6494
403.9232, 127.9502
404.4053, 131.9277
404.8874, 138.5693
405.3695, 143.7852
405.8517, 146.3350
406.3338, 147.1377
406.8159, 150.5537
407.2980, 157.1934
407.7801, 163.9160
408.2622, 167.6133
408.7444, 168.6729
409.2265, 172.6953
409.7086, 180.8623
410.1907, 190.2217
410.6728, 196.4775
411.1549, 199.7842
411.6371, 201.5566
412.1192, 201.8018
412.6013, 200.7900
413.0834, 199.4824
413.5655, 197.7402
414.0476, 194.0400
414.5298, 185.9727
415.0119, 175.3203
415.4940, 164.9219
415.9761, 155.8281
416.4582, 147.1270
416.9403, 138.1699
417.4225, 129.2578
417.9046, 121.0400
418.3867, 114.4736
418.8688, 108.7910
419.3509, 103.8398
419.8330, 99.93848
420.3152, 95.81152
420.7973, 88.62988
421.2794, 82.03516
421.7615, 80.20410
422.2436, 89.56152
422.7257, 98.20312
423.2079, 102.0879
423.6900, 101.6484
424.1721, 103.7051
424.6542, 110.0303
425.1363, 117.8779
425.6184, 126.0654
426.1006, 135.0107
426.5827, 143.0342
427.0648, 150.0850
427.5469, 155.9434
428.0290, 160.3789
428.5111, 164.3408
428.9933, 164.4492
429.4754, 158.6553
429.9575, 147.0645
430.4396, 137.5254
430.9217, 130.8545
431.4038, 124.0078
431.8860, 113.8262
432.3681, 100.3086
432.8502, 87.88379
433.3323, 77.26953
433.8144, 68.15234
434.2965, 60.01465
434.7787, 52.86035
435.2608, 46.52734
435.7429, 41.60840
436.2250, 37.11426
436.7071, 30.73730
437.1892, 22.45898
437.6714, 14.55469
438.1535, 8.559570
438.6356, 4.445313
439.1177, 2.636719
439.5998, 5.772461
440.0819, 8.625000
440.5641, 5.560547
441.0462, 1.777344
441.5283, 7.466797
442.0104, 7.429688
442.4925, 5.184570
442.9746, 3.326172
443.4568, 2.789063
443.9389, 0.7314450
444.4210, 4.690430
444.9031, 11.48438
445.3852, 17.30762
445.8673, 20.98730
446.3495, 23.67090
446.8316, 24.91992
447.3137, 24.69531
447.7958, 24.81055
448.2779, 25.90820
448.7600, 26.42578
449.2422, 25.61328
449.7243, 23.31543
450.2064, 20.59961
450.6885, 17.85156
451.1706, 14.88086
451.6527, 11.20020
452.1349, 6.907227
452.6170, 3.005859
453.0991, 7.0312999E-02
453.5812, 1.799805
454.0633, 3.351563
454.5454, 4.566406
455.0276, 4.174805
455.5097, 1.327148
455.9918, 3.916016
456.4739, 11.28809
456.9560, 20.98730
457.4381, 31.62305
457.9203, 41.15625
458.4024, 49.77637
458.8845, 58.89355
459.3666, 69.53809
459.8488, 80.29102
460.3309, 89.20117
460.8130, 96.13672
461.2951, 102.6504
461.7772, 110.8428
462.2593, 118.3320
462.7415, 122.4580
463.2236, 121.1113
463.7057, 119.2939
464.1878, 120.7529
464.6699, 123.1982
465.1520, 122.1221
465.6342, 113.0225
466.1163, 103.8516
466.5984, 97.58887
467.0805, 94.95312
467.5626, 90.70312
468.0447, 82.50391
468.5269, 74.39941
469.0090, 69.20508
469.4911, 68.64648
469.9732, 67.09766
470.4553, 63.64355
470.9374, 59.15039
471.4196, 55.81445
471.9017, 54.00586
472.3838, 51.88574
472.8659, 49.11328
473.3480, 45.59863
473.8301, 39.50293
474.3123, 30.47461
474.7944, 21.61523
475.2765, 16.36230
475.7586, 14.05957
476.2407, 11.42383
476.7228, 7.626953
477.2050, 3.909180
477.6871, 2.127930
478.1692, 1.776367
478.6513, 1.294922
479.1334, 1.097656
479.6155, 3.611328
480.0977, 4.149414
480.5798, 2.767578
481.0619, 1.700195
481.5440, 2.412109
482.0261, 4.027344
482.5082, 5.725586
482.9904, 6.865234
483.4725, 8.627930
483.9546, 12.73633
484.4367, 17.53711
484.9188, 19.59473
485.4009, 15.60059
485.8831, 11.37207
486.3652, 8.435547
486.8473, 6.862305
487.3294, 4.570313
487.8115, 1.417969
488.2936, 2.374023
488.7758, 6.697266
489.2579, 11.52246
489.7400, 16.82910
490.2221, 22.55957
490.7042, 28.66211
491.1863, 34.77734
491.6685, 40.83594
492.1506, 47.41895
492.6327, 54.49609
493.1148, 62.26562
493.5969, 70.87012
494.0790, 80.38867
494.5612, 90.91895
495.0433, 103.8799
495.5254, 117.6641
496.0075, 129.5303
496.4896, 138.5244
496.9717, 146.5713
497.4539, 155.5020
497.9360, 164.4844
498.4181, 171.7070
498.9002, 173.8652
499.3823, 175.9912
499.8644, 182.0439
500.3466, 191.7227
500.8287, 199.6787
501.3108, 203.2656
501.7929, 205.4990
502.2750, 208.2139
502.7571, 212.9004
503.2393, 215.6914
503.7214, 216.1279
504.2035, 214.9785
504.6856, 213.2051
505.1677, 210.7207
505.6498, 207.8574
506.1320, 204.5459
506.6141, 200.8740
507.0962, 197.4717
507.5783, 194.3262
508.0604, 191.1582
508.5425, 187.8203
509.0247, 184.1602
509.5068, 180.0869
509.9889, 175.5928
510.4710, 170.1963
510.9531, 163.7725
511.4352, 156.1191
511.9174, 146.6084
512.3995, 134.8271
512.8816, 121.7422
513.3637, 107.9287
513.8458, 93.66211
514.3279, 79.56445
514.8101, 64.92969
515.2922, 51.69238
515.7743, 41.75391
516.2564, 35.61523
516.7385, 29.99707
517.2206, 22.52930
517.7028, 15.87500
518.1849, 12.17285
518.6670, 13.69141
519.1491, 15.54199
519.6312, 16.91211
520.1133, 18.29297
520.5955, 20.94141
521.0776, 24.98828
521.5597, 29.58496
522.0418, 34.40039
522.5239, 39.31250
523.0060, 43.97363
523.4882, 48.23340
523.9703, 52.08984
524.4524, 55.77539
524.9345, 59.07812
525.4166, 60.93066
525.8987, 60.99902
526.3809, 60.15723
526.8630, 59.45410
527.3451, 58.80957
527.8272, 58.12598
528.3093, 58.27441
528.7914, 57.79492
529.2736, 54.93848
529.7557, 50.19629
530.2378, 45.38672
530.7199, 41.12012
531.2020, 37.75586
531.6841, 36.00293
532.1663, 36.50000
532.6484, 36.45703
533.1305, 33.50195
533.6126, 30.48535
534.0947, 30.09766
534.5768, 34.63672
535.0590, 38.80371
535.5411, 41.75293
536.0232, 43.91992
536.5053, 46.61523
536.9874, 49.55566
537.4695, 52.72559
537.9517, 56.14941
538.4338, 59.73438
538.9159, 62.57520
539.3980, 64.60840
539.8801, 65.24121
540.3622, 63.52930
540.8444, 59.98926
541.3265, 56.54102
541.8086, 53.54395
542.2907, 50.23438
542.7728, 45.63477
543.2549, 40.53516
543.7371, 35.97656
544.2192, 33.11816
544.7013, 30.51074
545.1834, 26.98633
545.6655, 22.96973
546.1476, 19.82910
546.6298, 18.40625
547.1119, 17.87109
547.5940, 17.81250
548.0761, 18.24121
548.5582, 18.93652
549.0403, 19.58984
549.5225, 20.56055
550.0046, 22.10742
550.4867, 24.07227
550.9688, 26.49414
551.4509, 29.43066
551.9330, 32.47461
552.4152, 34.66602
552.8973, 35.76367
553.3794, 37.01855
553.8615, 39.25977
554.3436, 41.85645
554.8257, 42.56250
555.3079, 41.42285
555.7900, 39.57129
556.2721, 37.76367
556.7542, 35.96582
557.2363, 34.13574
557.7184, 32.36230
558.2006, 30.56738
558.6827, 29.04883
559.1648, 27.48633
559.6469, 25.41992
560.1290, 21.56055
560.6111, 18.55859
561.0933, 17.76074
561.5754, 18.46875
562.0575, 18.84082
562.5396, 18.18848
563.0217, 17.48242
563.5038, 16.90137
563.9860, 16.38770
564.4681, 16.21777
564.9502, 16.33398
565.4323, 16.88574
565.9144, 18.17188
566.3965, 20.28418
566.8787, 21.83984
567.3608, 22.66211
567.8429, 23.14746
568.3250, 23.70898
568.8071, 24.39648
569.2892, 25.29785
569.7714, 26.37598
570.2535, 27.83203
570.7356, 30.36230
571.2177, 33.56543
571.6998, 36.05176
572.1819, 36.25879
572.6641, 36.04785
573.1462, 36.85547
573.6283, 38.87500
574.1104, 40.66797
574.5925, 41.65723
575.0746, 42.27051
575.5568, 42.75000
576.0389, 43.20703
576.5210, 43.23340
577.0031, 42.98730
577.4852, 42.23340
577.9673, 40.47070
578.4495, 37.45215
578.9316, 35.65039
579.4137, 35.90625
579.8958, 37.72949
580.3779, 39.57422
580.8600, 41.49414
581.3422, 43.83691
581.8243, 46.66699
582.3064, 49.95898
582.7885, 53.59570
583.2706, 57.46387
583.7527, 61.41504
584.2349, 65.11133
584.7170, 68.83398
585.1991, 72.93652
585.6812, 77.50781
586.1633, 81.29590
586.6454, 83.45703
587.1276, 84.31543
587.6097, 84.34180
588.0918, 83.83398
588.5739, 82.17090
589.0560, 79.41113
589.5381, 75.71680
590.0203, 71.21191
590.5024, 65.94043
590.9845, 60.99805
591.4666, 57.08887
591.9487, 54.20996
592.4308, 51.40332
592.9130, 48.70312
593.3951, 46.50000
593.8772, 45.18848
594.3593, 44.59863
594.8414, 44.23340
595.3235, 43.91406
595.8057, 43.92969
596.2878, 44.56836
596.7699, 45.47168
597.2520, 46.23535
597.7341, 46.58789
598.2162, 46.61816
598.6984, 46.30469
599.1805, 45.68262
599.6626, 44.77344
600.1447, 43.60742
600.6268, 42.33789
601.1089, 41.21191
601.5911, 40.26465
602.0732, 39.01367
602.5553, 37.40723
603.0374, 35.92578
603.5195, 34.76172
604.0016, 33.99023
604.4838, 34.31836
604.9659, 35.91016
605.4480, 38.04395
605.9301, 39.91797
606.4122, 41.66504
606.8943, 43.78711
607.3765, 46.25098
607.8586, 49.15820
608.3407, 52.68848
608.8228, 56.67773
609.3049, 60.78613
609.7870, 65.07031
610.2692, 69.27344
610.7513, 73.10742
611.2334, 76.65137
611.7155, 80.27539
612.1976, 84.31836
612.6797, 87.97070
613.1619, 90.91113
613.6440, 93.05273
614.1261, 94.86328
614.6082, 96.36426
615.0903, 97.43457
615.5724, 98.06250
616.0546, 98.27051
616.5367, 97.48438
617.0188, 95.62988
617.5009, 93.10449
617.9830, 90.49707
618.4651, 87.69043
618.9473, 84.27148
619.4294, 80.07227
619.9115, 75.69727
620.3936, 71.68652
620.8757, 67.98828
621.3578, 64.31543
621.8400, 60.49902
622.3221, 56.82520
622.8042, 53.42188
623.2863, 50.27148
623.7684, 47.46973
624.2505, 45.19336
624.7327, 42.99707
625.2148, 40.69922
625.6969, 38.20020
626.1790, 35.62891
626.6611, 32.98535
627.1432, 30.01074
627.6254, 26.42285
628.1075, 22.24316
628.5896, 18.15332
629.0717, 14.39844
629.5538, 10.61230
630.0359, 6.432617
630.5181, 2.180664
631.0002, 1.715820
631.4823, 4.996094
631.9644, 7.535156
632.4465, 9.312500
632.9286, 10.09766
633.4108, 9.584961
633.8929, 7.371094
634.3750, 4.266602
634.8571, 0.6074220
635.3392, 3.424805
635.8214, 7.732422
636.3035, 11.95801
636.7856, 16.01953
637.2677, 19.74805
637.7498, 22.82227
638.2319, 24.71484
638.7141, 25.22461
639.1962, 24.44141
639.6783, 22.55469
640.1604, 19.59570
640.6425, 15.69434
641.1246, 11.10645
641.6068, 6.024414
642.0889, 0.5351560
642.5710, 4.791992
643.0531, 9.187500
643.5352, 12.11230
644.0173, 13.79688
644.4995, 14.39551
644.9816, 13.89062
645.4637, 12.31250
645.9458, 9.813477
646.4279, 6.562500
646.9100, 2.732422
647.3922, 1.432617
647.8743, 5.483398
648.3564, 9.143555
648.8385, 12.40918
649.3206, 15.14941
649.8027, 17.25488
650.2849, 18.71777
650.7670, 19.58594
651.2491, 19.83984
651.7312, 19.58105
652.2133, 18.98633
652.6954, 18.19922
653.1776, 17.39648
653.6597, 16.77930
654.1418, 16.44922
654.6239, 16.53418
655.1060, 17.11426
655.5881, 18.09082
656.0703, 19.68164
656.5524, 21.95020
657.0345, 24.51270
657.5166, 26.94238
657.9987, 28.91699
658.4808, 30.61816
658.9630, 31.98535
659.4451, 32.74902
659.9272, 32.51758
660.4093, 31.31348
660.8914, 29.42383
661.3735, 27.13184
661.8557, 24.53711
662.3378, 21.53613
662.8199, 18.49414
663.3020, 16.04883
663.7841, 14.71973
664.2662, 14.52734
664.7484, 15.54102
665.2305, 17.92090
665.7126, 21.83594
666.1947, 27.28711
666.6768, 34.32422
667.1589, 42.81641
667.6411, 52.62500
668.1232, 62.69238
668.6053, 72.57422
669.0874, 82.01172
669.5695, 90.66309
670.0516, 98.14453
670.5338, 104.3770
671.0159, 109.1143
671.4980, 111.9746
671.9801, 112.6855
672.4622, 111.1729
672.9443, 107.3564
673.4265, 101.1660
673.9086, 93.39062
674.3907, 84.76172
674.8728, 75.48926
675.3549, 65.85156
675.8370, 56.34961
676.3192, 47.14453
676.8013, 38.54492
677.2834, 31.00977
677.7655, 25.70215
678.2476, 23.08887
678.7297, 22.28027
679.2119, 22.80859
679.6940, 24.70215
680.1761, 28.60938
680.6582, 34.30273
681.1403, 41.02148
681.6224, 48.11621
682.1046, 55.32617
682.5867, 62.35156
683.0688, 68.87402
683.5509, 74.71094
684.0330, 79.79492
684.5151, 83.81445
684.9973, 86.67969
685.4794, 88.36816
685.9615, 88.94336
686.4436, 88.57617
686.9257, 87.31738
687.4078, 85.32910
687.8900, 83.01758
688.3721, 79.31250
688.8542, 73.74805
689.3363, 67.81055
689.8184, 64.08594
690.3005, 62.47656
690.7827, 60.74219
691.2648, 58.22363
691.7469, 55.70703
692.2290, 54.00684
692.7111, 52.92383
693.1932, 52.04980
693.6754, 51.01172
694.1575, 49.78613
694.6396, 48.42480
695.1217, 46.79395
695.6038, 44.55078
696.0859, 41.33301
696.5681, 37.86133
697.0502, 34.43262
697.5323, 31.03125
698.0144, 27.01367
698.4965, 22.43457
698.9786, 17.75098
699.4608, 13.30176
699.9429, 9.054688
700.4250, 4.936523
700.9071, 1.146484
701.3892, 1.784180
701.8713, 3.388672
702.3535, 3.735352
702.8356, 2.791992
703.3177, 0.4492190
703.7998, 2.688477
704.2819, 6.180664
704.7640, 10.38477
705.2462, 15.49805
705.7283, 21.07617
706.2104, 27.19531
706.6925, 33.68945
707.1746, 40.05176
707.6567, 45.77051
708.1389, 50.59082
708.6210, 54.76172
709.1031, 58.28125
709.5852, 60.77734
710.0673, 61.65625
710.5494, 61.12988
711.0316, 59.79688
711.5137, 58.04785
711.9958, 55.55469
712.4779, 52.22949
712.9600, 48.29297
713.4421, 44.07910
713.9243, 39.57812
714.4064, 35.51270
714.8885, 32.25586
715.3706, 29.80762
715.8527, 28.02539
716.3348, 26.93457
716.8170, 26.57617
717.2991, 27.07227
717.7812, 28.14648
718.2633, 28.91895
718.7454, 29.33008
719.2275, 29.94238
719.7097, 31.10449
720.1918, 32.34473
720.6739, 33.13770
721.1560, 33.36230
721.6381, 33.17578
722.1202, 32.81738
722.6024, 31.89160
723.0845, 30.24902
723.5666, 27.99023
724.0487, 25.42773
724.5308, 22.57910
725.0129, 19.91016
725.4951, 17.79004
725.9772, 16.32812
726.4593, 15.08301
726.9414, 14.06543
727.4235, 13.62500
727.9056, 14.09180
728.3878, 15.33594
728.8699, 17.03809
729.3520, 19.17773
729.8341, 21.71484
730.3162, 24.52930
730.7983, 27.69238
731.2805, 31.24121
731.7626, 35.16992
732.2447, 39.36621
732.7268, 43.58984
733.2089, 48.03125
733.6910, 52.94141
734.1732, 58.34766
734.6553, 63.39258
735.1374, 67.79004
735.6195, 71.62793
736.1016, 74.96094
736.5837, 77.72461
737.0659, 79.98828
737.5480, 81.75684
738.0301, 82.73047
738.5122, 82.70605
738.9943, 81.64355
739.4764, 79.51855
739.9586, 76.46191
740.4407, 72.42285
740.9228, 67.44238
741.4049, 61.76953
741.8870, 55.49512
742.3691, 48.76855
742.8513, 42.44043
743.3334, 37.13965
743.8155, 32.53906
744.2976, 27.15430
744.7797, 21.27930
745.2618, 16.63379
745.7440, 14.37598
746.2261, 13.59180
746.7082, 13.38281
747.1903, 13.89062
747.6724, 15.02051
748.1545, 16.46875
748.6367, 18.33008
749.1188, 20.53027
749.6009, 22.89160
750.0830, 24.98145
750.5651, 26.65625
751.0472, 28.25293
751.5294, 29.95215
752.0115, 31.76074
752.4936, 33.20605
752.9757, 34.35059
753.4578, 35.63477
753.9399, 37.42578
754.4221, 39.57520
754.9042, 41.90332
755.3863, 44.42090
755.8684, 46.89551
756.3505, 49.35352
756.8326, 51.51953
757.3148, 52.91699
757.7969, 53.10840
758.2790, 54.28906
758.7611, 56.91992
759.2432, 59.28125
759.7253, 60.37012
760.2075, 60.21387
760.6896, 59.43457
761.1717, 58.12695
761.6538, 56.08691
762.1359, 53.07715
762.6180, 49.36914
763.1002, 45.42871
763.5823, 41.43262
764.0644, 37.41797
764.5465, 33.62109
765.0286, 29.92578
765.5107, 26.24805
765.9929, 22.32031
766.4750, 19.32324
766.9571, 17.44336
767.4392, 16.32324
767.9213, 15.69141
768.4034, 15.50098
768.8856, 15.26953
769.3677, 14.78613
769.8498, 14.40332
770.3319, 14.58984
770.8140, 14.98438
771.2961, 15.15918
771.7783, 14.98242
772.2604, 14.38672
772.7425, 13.23926
773.2246, 11.71191
773.7067, 9.972656
774.1888, 8.142578
774.6710, 6.113281
775.1531, 3.891602
775.6352, 1.708008
776.1173, 0.1152340
776.5994, 1.481445
777.0815, 2.739258
777.5637, 3.889648
778.0458, 4.653320
778.5279, 4.750000
779.0100, 4.190430
779.4921, 3.133789
779.9742, 1.810547
780.4564, 0.2910160
780.9385, 3.743164
781.4206, 7.784180
781.9027, 11.42285
782.3848, 13.94141
782.8669, 16.67969
783.3491, 19.66699
783.8312, 22.65137
784.3133, 25.44629
784.7954, 27.92285
785.2775, 29.44531
785.7596, 29.70117
786.2418, 29.23828
786.7239, 28.89746
787.2060, 28.37109
787.6881, 27.08203
788.1702, 24.80371
788.6523, 22.14453
789.1345, 19.32617
789.6166, 16.58496
790.0987, 14.18555
790.5808, 12.34277
791.0629, 11.04102
791.5450, 10.47949
792.0272, 10.63574
792.5093, 11.28320
792.9914, 12.53809
793.4735, 14.86426
793.9556, 18.45020
794.4377, 22.86523
794.9199, 27.55176
795.4020, 32.54688
795.8841, 37.84180
796.3662, 43.65625
796.8483, 48.85059
797.3304, 52.56445
797.8126, 55.03809
798.2947, 56.91211
798.7768, 58.28711
799.2589, 57.91113
799.7410, 55.44531
800.2231, 51.30859
800.7053, 46.36230
801.1874, 40.70508
801.6695, 33.89844
802.1516, 25.83008
802.6337, 17.69238
803.1158, 10.63379
803.5980, 4.720703
804.0801, 0.4150390
804.5622, 4.583008
805.0443, 7.631836
805.5264, 9.652344
806.0085, 10.45605
806.4907, 9.787109
806.9728, 7.714844
807.4549, 4.815430
807.9370, 1.499023
808.4191, 2.313477
808.9012, 7.288086
809.3834, 12.74023
809.8655, 17.20508
810.3476, 19.11133
810.8297, 20.95898
811.3118, 24.84668
811.7939, 29.40918
812.2761, 32.37305
812.7582, 32.92871
813.2403, 32.83691
813.7224, 32.25391
814.2045, 31.45215
814.6866, 30.93066
815.1688, 30.80078
815.6509, 30.50000
816.1330, 29.94922
816.6151, 29.36035
817.0972, 28.87402
817.5793, 28.59961
818.0615, 28.67773
818.5436, 29.06445
819.0257, 29.80762
819.5078, 31.00293
819.9899, 32.39746
820.4720, 33.62500
820.9542, 34.59082
821.4363, 35.25586
821.9184, 35.56738
822.4005, 35.42480
822.8826, 34.79395
823.3647, 33.66016
823.8469, 32.11621
824.3290, 30.21289
824.8111, 28.19727
825.2932, 26.37305
825.7753, 24.79688
826.2574, 23.51172
826.7396, 22.70508
827.2217, 22.56641
827.7038, 23.02051
828.1859, 24.58203
828.6681, 27.95508
829.1502, 33.20605
829.6323, 39.04590
830.1144, 45.04688
830.5966, 51.50684
831.0787, 58.88477
831.5608, 66.65527
832.0429, 74.28613
832.5250, 81.38184
833.0071, 87.49805
833.4893, 92.22461
833.9714, 95.62402
834.4535, 97.84766
834.9356, 99.25684
835.4177, 99.15430
835.8998, 97.69336
836.3820, 95.37695
836.8641, 92.74609
837.3462, 90.13086
837.8283, 87.56738
838.3104, 85.28418
838.7925, 83.82129
839.2747, 83.85059
839.7568, 84.98340
840.2389, 86.69336
840.7210, 88.70117
841.2031, 91.28320
841.6852, 94.23633
842.1674, 97.19922
842.6495, 99.84277
843.1316, 101.8457
843.6137, 102.8887
844.0958, 102.7803
844.5779, 101.4033
845.0601, 98.66504
845.5422, 94.74609
846.0243, 89.81836
846.5064, 84.11914
846.9885, 78.12012
847.4706, 72.48145
847.9528, 66.99121
848.4349, 61.61133
848.9170, 56.56250
849.3991, 52.70312
849.8812, 50.15332
850.3633, 49.08301
850.8455, 49.73438
851.3276, 51.88379
851.8097, 54.44238
852.2918, 57.25195
852.7739, 60.55078
853.2560, 64.33984
853.7382, 68.20898
854.2203, 71.93750
854.7024, 75.31445
855.1845, 77.77734
855.6666, 78.86816
856.1487, 78.89062
856.6309, 77.80859
857.1130, 75.77148
857.5951, 73.41016
858.0772, 70.94824
858.5593, 67.88477
859.0414, 63.96289
859.5236, 59.79004
860.0057, 56.02734
860.4878, 52.90430
860.9699, 50.67188
861.4520, 49.90527
861.9341, 49.60059
862.4163, 49.05273
862.8984, 48.49219
863.3805, 48.60547
863.8626, 49.44629
864.3447, 50.45215
864.8268, 51.40820
865.3090, 52.36719
865.7911, 53.32129
866.2732, 54.11035
866.7553, 54.81445
867.2374, 55.58105
867.7195, 55.74414
868.2017, 54.76758
868.6838, 52.94238
869.1659, 50.74414
869.6480, 48.40234
870.1301, 45.66504
870.6122, 42.52344
871.0944, 38.86328
871.5765, 34.69824
872.0586, 30.29590
872.5407, 25.66309
873.0228, 20.80078
873.5049, 16.23633
873.9871, 12.49414
874.4692, 9.378906
874.9513, 6.705078
875.4334, 4.492188
875.9155, 2.640625
876.3976, 0.8876950
876.8798, 0.3769530
877.3619, 0.7304690
877.8440, 0.2060550
878.3261, 0.2080080
878.8082, 0.4208980
879.2903, 0.8447270
879.7725, 1.837891
880.2546, 3.221680
880.7367, 4.834961
881.2188, 6.628906
881.7009, 8.652344
882.1830, 10.90527
882.6652, 13.44922
883.1473, 16.32324
883.6294, 19.53613
884.1115, 22.74902
884.5936, 25.94336
885.0757, 29.03711
885.5579, 31.79102
886.0400, 34.37500
886.5221, 37.21875
887.0042, 40.13281
887.4863, 42.71582
887.9684, 44.79004
888.4506, 46.23535
888.9327, 46.89941
889.4148, 46.79297
889.8969, 46.16797
890.3790, 45.18262
890.8611, 43.03809
891.3433, 39.28320
891.8254, 34.77051
892.3075, 31.20703
892.7896, 28.29395
893.2717, 24.93457
893.7538, 20.69531
894.2360, 16.33789
894.7181, 12.27246
895.2002, 8.659180
895.6823, 5.725586
896.1644, 3.771484
896.6465, 2.190430
897.1287, 0.9882810
897.6108, 0.2753910
898.0929, 7.4219003E-02
898.5750, 0.4521480
899.0571, 1.740234
899.5392, 3.967773
900.0214, 6.716797
900.5035, 9.554688
900.9856, 12.61426
901.4677, 16.01367
901.9498, 19.61230
902.4319, 23.01172
902.9141, 26.18066
903.3962, 28.77246
903.8783, 30.51465
904.3604, 31.38574
904.8425, 31.79785
905.3246, 31.70020
905.8068, 31.07324
906.2889, 30.11719
906.7710, 28.58008
907.2531, 26.33398
907.7352, 23.48926
908.2173, 20.24316
908.6995, 16.72754
909.1816, 13.10254
909.6637, 9.409180
910.1458, 5.924805
910.6279, 3.540039
911.1100, 2.206055
911.5922, 1.022461
912.0743, 0.5498050
912.5564, 1.843750
913.0385, 2.208008
913.5206, 1.862305
914.0027, 1.187500
914.4849, 0.2939450
914.9670, 0.8408200
915.4491, 2.135742
915.9312, 3.560547
916.4133, 5.036133
916.8954, 6.511719
917.3776, 8.177734
917.8597, 10.00391
918.3418, 11.68066
918.8239, 12.87793
919.3060, 13.66602
919.7881, 14.13379
920.2703, 14.31543
920.7524, 13.75879
921.2345, 12.22363
921.7166, 10.15527
922.1987, 7.807617
922.6808, 5.252930
923.1630, 2.550781
923.6451, 0.1396480
924.1272, 2.701172
924.6093, 4.812500
925.0914, 6.607422
925.5735, 8.184570
926.0557, 9.414063
926.5378, 10.22754
927.0199, 11.36621
927.5020, 10.95020
927.9841, 8.347656
928.4662, 4.240234
928.9484, 0.1943360
929.4305, 3.642578
929.9126, 7.430664
930.3947, 10.99805
930.8768, 14.19531
931.3589, 16.59668
931.8411, 18.39551
932.3232, 19.92480
932.8053, 21.41699
933.2874, 22.48828
933.7695, 23.37402
934.2516, 23.90918
934.7338, 23.91211
935.2159, 23.54980
935.6980, 23.23828
936.1801, 23.07031
936.6622, 23.55371
937.1443, 25.41406
937.6265, 27.92773
938.1086, 30.24121
938.5907, 32.22754
939.0728, 34.28223
939.5549, 36.30859
940.0370, 38.07520
940.5192, 39.34375
941.0013, 40.02148
941.4834, 40.26074
941.9655, 39.98242
942.4476, 38.73340
942.9297, 36.14551
943.4119, 32.86816
943.8940, 29.44238
944.3761, 26.02832
944.8582, 22.73340
945.3403, 19.90137
945.8224, 17.38867
946.3046, 15.34766
946.7867, 13.82812
947.2688, 12.81934
947.7509, 12.32129
948.2330, 12.46484
948.7151, 13.19824
949.1973, 14.29395
949.6794, 15.57031
950.1615, 16.84668
950.6436, 17.88574
951.1257, 18.44531
951.6078, 18.96484
952.0900, 19.57520
952.5721, 19.73633
953.0542, 19.17969
953.5363, 18.04395
954.0184, 16.57812
954.5005, 14.96484
954.9827, 13.57227
955.4648, 12.64258
955.9469, 12.23828
956.4290, 12.62891
956.9111, 13.72852
957.3932, 15.05078
957.8754, 16.25488
958.3575, 18.28906
958.8396, 21.26367
959.3217, 24.76953
959.8038, 28.17773
960.2859, 31.40039
960.7681, 34.56250
961.2502, 37.48535
961.7323, 39.70605
962.2144, 41.13867
962.6965, 41.78320
963.1786, 41.57617
963.6608, 40.43262
964.1429, 39.62793
964.6250, 39.37500
965.1071, 39.27441
965.5892, 39.36328
966.0714, 39.42480
966.5535, 38.70605
967.0356, 37.43848
967.5177, 36.51270
967.9998, 36.62598
968.4819, 36.83301
968.9641, 36.63965
969.4462, 36.26855
969.9283, 36.24707
970.4104, 36.60352
970.8925, 36.81152
971.3746, 36.77051
971.8568, 36.80273
972.3389, 37.36328
972.8210, 38.29883
973.3031, 39.32520
973.7852, 40.37305
974.2673, 41.61133
974.7495, 43.16113
975.2316, 44.71289
975.7137, 45.93457
976.1958, 46.75781
976.6779, 47.69336
977.1600, 48.66797
977.6422, 49.74414
978.1243, 51.48242
978.6064, 52.84082
979.0885, 52.87109
979.5706, 51.69238
980.0527, 49.95410
980.5349, 47.62598
981.0170, 45.26074
981.4991, 43.09473
981.9812, 40.89453
982.4633, 38.35156
982.9454, 35.58398
983.4276, 32.74805
983.9097, 29.86133
984.3918, 27.27734
984.8739, 25.26074
985.3560, 23.66016
985.8381, 22.32422
986.3203, 21.20801
986.8024, 20.84961
987.2845, 21.15918
987.7666, 21.70020
988.2487, 21.95117
988.7308, 22.26465
989.2130, 23.48926
989.6951, 25.51562
990.1772, 27.97070
990.6593, 30.83398
991.1414, 33.93848
991.6235, 37.04785
992.1057, 40.23926
992.5878, 43.75879
993.0699, 47.49805
993.5520, 51.37402
994.0341, 55.43652
994.5162, 59.04102
994.9984, 61.10254
995.4805, 62.43555
995.9626, 63.96387
996.4447, 66.01953
996.9268, 67.42969
997.4089, 68.16797
997.8911, 68.16406
998.3732, 67.34766
998.8553, 65.85840
999.3374, 64.19629
999.8195, 62.43945
1000.302, 60.71582
1000.784, 58.87305
1001.266, 57.45312
1001.748, 56.92383
1002.230, 57.17383
1002.712, 57.82617
1003.194, 59.12109
1003.676, 60.12402
1004.159, 60.53906
1004.641, 60.89648
1005.123, 61.90234
1005.605, 63.23047
1006.087, 64.17969
1006.569, 64.54004
1007.051, 64.62207
1007.533, 64.58398
1008.016, 64.19629
1008.498, 63.39062
1008.980, 62.12500
1009.462, 60.21094
1009.944, 57.62793
1010.426, 54.14453
1010.908, 49.37402
1011.390, 44.20312
1011.872, 39.63281
1012.355, 35.57520
1012.837, 31.70801
1013.319, 28.38965
1013.801, 24.84473
1014.283, 20.98926
1014.765, 17.19531
1015.247, 13.72266
1015.729, 10.61035
1016.211, 8.098633
1016.694, 6.238281
1017.176, 4.137695
1017.658, 0.1806640
1018.140, 3.698242
1018.622, 3.847656
1019.104, 0.9863280
1019.586, 1.184570
1020.068, 2.375977
1020.551, 3.678711
1021.033, 5.383789
1021.515, 7.357422
1021.997, 9.422852
1022.479, 11.49902
1022.961, 13.39551
1023.443, 14.85254
1023.925, 16.44141
1024.407, 18.35938
1024.890, 20.30957
1025.372, 22.09961
1025.854, 23.69238
1026.336, 25.13379
1026.818, 26.42578
1027.300, 27.58008
1027.782, 28.78418
1028.264, 29.79004
1028.746, 30.38770
1029.229, 30.67480
1029.711, 30.91406
1030.193, 31.11426
1030.675, 31.45605
1031.157, 31.97656
1031.639, 32.69922
1032.121, 33.82227
1032.603, 35.12500
1033.086, 36.08887
1033.568, 36.56445
1034.050, 37.00977
1034.532, 37.67578
1035.014, 38.19238
1035.496, 38.30957
1035.978, 37.98730
1036.460, 37.56543
1036.943, 37.01465
1037.425, 36.27344
1037.907, 35.46387
1038.389, 34.38477
1038.871, 32.91602
1039.353, 31.14648
1039.835, 29.21973
1040.317, 27.17383
1040.799, 25.08203
1041.281, 22.81055
1041.764, 20.84277
1042.246, 19.81934
1042.728, 19.33691
1043.210, 18.51855
1043.692, 17.26270
1044.174, 15.49805
1044.656, 12.55469
1045.138, 9.702148
1045.621, 7.579102
1046.103, 5.886719
1046.585, 3.834961
1047.067, 1.523438
1047.549, 0.9169920
1048.031, 3.309570
1048.513, 5.500977
1048.995, 7.416016
1049.478, 8.765625
1049.960, 9.167969
1050.442, 8.264648
1050.924, 7.117188
1051.406, 6.170898
1051.888, 3.948242
1052.370, 0.5986330
1052.852, 7.045898
1053.334, 13.87988
1053.817, 20.87695
1054.299, 27.88379
1054.781, 34.69238
1055.263, 40.95020
1055.745, 46.12207
1056.227, 50.34473
1056.709, 53.75586
1057.191, 56.16992
1057.673, 57.70312
1058.156, 58.40332
1058.638, 57.89258
1059.120, 55.37305
1059.602, 51.92090
1060.084, 48.33887
1060.566, 44.85742
1061.048, 41.74414
1061.530, 39.46289
1062.013, 37.00879
1062.495, 34.15332
1062.977, 31.45020
1063.459, 29.55469
1063.941, 28.50000
1064.423, 28.20312
1064.905, 28.63770
1065.387, 29.76172
1065.870, 31.35547
1066.352, 33.57715
1066.834, 36.56934
1067.316, 40.09277
1067.798, 43.55371
1068.280, 46.82422
1068.762, 49.64453
1069.244, 51.36523
1069.726, 52.96582
1070.208, 55.30371
1070.691, 57.76172
1071.173, 59.41016
1071.655, 60.27734
1072.137, 60.51562
1072.619, 60.16211
1073.101, 59.47852
1073.583, 58.63379
1074.065, 57.74023
1074.548, 56.69434
1075.030, 55.63867
1075.512, 55.09766
1075.994, 55.68750
1076.476, 55.88770
1076.958, 55.27051
1077.440, 54.41211
1077.922, 54.63379
1078.405, 55.61523
1078.887, 56.24512
1079.369, 56.27539
1079.851, 56.28516
1080.333, 56.60352
1080.815, 57.00195
1081.297, 57.22070
1081.779, 57.30957
1082.261, 57.98633
1082.744, 59.21191
1083.226, 60.32812
1083.708, 60.90527
1084.190, 61.20996
1084.672, 61.79395
1085.154, 62.03906
1085.636, 60.97266
1086.118, 57.68555
1086.601, 55.15918
1087.083, 53.72070
1087.565, 52.05273
1088.047, 49.05469
1088.529, 45.32520
1089.011, 41.68555
1089.493, 38.32617
1089.975, 35.34473
1090.458, 33.25293
1090.940, 31.41211
1091.422, 29.65039
1091.904, 28.37695
1092.386, 28.08398
1092.868, 28.77051
1093.350, 30.37695
1093.832, 32.84277
1094.314, 35.93750
1094.797, 39.52148
1095.279, 43.44531
1095.761, 47.60840
1096.243, 51.84180
1096.725, 56.13477
1097.207, 60.40625
1097.689, 64.60840
1098.171, 68.62793
1098.653, 72.53906
1099.136, 76.56934
1099.618, 80.37793
1100.100, 83.60742
1100.582, 86.00684
1101.064, 88.11328
1101.546, 89.93066
1102.028, 90.93750
1102.510, 90.83398
1102.993, 89.65039
1103.475, 87.40527
1103.957, 84.21973
1104.439, 80.36328
1104.921, 76.37891
1105.403, 71.23438
1105.885, 64.89062
1106.367, 57.73926
1106.849, 50.27148
1107.332, 42.57422
1107.814, 34.59961
1108.296, 26.48633
1108.778, 18.52930
1109.260, 10.83398
1109.742, 3.688477
1110.224, 2.763672
1110.706, 8.458984
1111.188, 13.11230
1111.671, 16.65430
1112.153, 19.23730
1112.635, 20.84473
1113.117, 21.09375
1113.599, 19.74902
1114.081, 16.73535
1114.563, 11.89160
1115.045, 5.268555
1115.528, 2.668945
1116.010, 11.93750
1116.492, 21.73438
1116.974, 31.45215
1117.456, 41.57031
1117.938, 52.72852
1118.420, 64.15820
1118.902, 75.04980
1119.385, 84.93164
1119.867, 93.24414
1120.349, 99.70703
1120.831, 104.1738
1121.313, 106.4189
1121.795, 106.4736
1122.277, 104.6504
1122.759, 101.0059
1123.241, 95.66113
1123.724, 88.95605
1124.206, 80.96191
1124.688, 72.01758
1125.170, 62.83203
1125.652, 54.21875
1126.134, 46.41406
1126.616, 39.16992
1127.098, 32.84570
1127.580, 28.11230
1128.063, 25.50781
1128.545, 24.60352
1129.027, 25.47949
1129.509, 27.77539
1129.991, 31.00098
1130.473, 34.98926
1130.955, 40.11426
1131.437, 46.17188
1131.920, 52.91797
1132.402, 60.61523
1132.884, 68.14062
1133.366, 74.56934
1133.848, 79.99805
1134.330, 85.55664
1134.812, 91.28613
1135.294, 96.32617
1135.776, 100.4346
1136.259, 103.8857
1136.741, 106.7959
1137.223, 109.3867
1137.705, 112.0576
1138.187, 114.8594
1138.669, 117.0195
1139.151, 118.5615
1139.633, 119.4639
1140.115, 119.6572
1140.598, 119.3896
1141.080, 119.0830
1141.562, 118.5967
1142.044, 117.7002
1142.526, 116.3545
1143.008, 114.8096
1143.490, 113.2949
1143.972, 111.5205
1144.455, 109.2666
1144.937, 106.8535
1145.419, 104.8105
1145.901, 103.1475
1146.383, 101.8154
1146.865, 101.0049
1147.347, 100.2227
1147.829, 99.28223
1148.312, 98.47266
1148.794, 98.04297
1149.276, 97.94336
1149.758, 97.94629
1150.240, 98.02832
1150.722, 98.17188
1151.204, 98.14551
1151.686, 98.39844
1152.168, 99.10254
1152.651, 100.1182
1153.133, 101.3242
1153.615, 102.6904
1154.097, 104.2676
1154.579, 106.0049
1155.061, 107.9639
1155.543, 110.2520
1156.025, 112.4707
1156.507, 114.3721
1156.990, 115.9336
1157.472, 117.1250
1157.954, 117.9072
1158.436, 118.4395
1158.918, 118.7236
1159.400, 118.6885
1159.882, 118.2969
1160.364, 117.5566
1160.847, 116.4980
1161.329, 115.1016
1161.811, 113.2461
1162.293, 110.9922
1162.775, 107.9697
1163.257, 103.9580
1163.739, 99.87793
1164.221, 96.85156
1164.703, 94.11621
1165.186, 90.82324
1165.668, 87.01562
1166.150, 83.76074
1166.632, 81.27832
1167.114, 79.21875
1167.596, 77.40332
1168.078, 75.90918
1168.560, 75.26953
1169.042, 75.35938
1169.525, 75.99805
1170.007, 77.27832
1170.489, 79.28027
1170.971, 82.08008
1171.453, 85.47949
1171.935, 88.90430
1172.417, 93.29102
1172.899, 100.5947
1173.382, 109.5830
1173.864, 117.5537
1174.346, 123.3994
1174.828, 128.0791
1175.310, 131.2725
1175.792, 133.3945
1176.274, 134.9639
1176.756, 135.5391
1177.239, 134.2998
1177.721, 131.4736
1178.203, 127.6846
1178.685, 123.7549
1179.167, 118.4795
1179.649, 111.9248
1180.131, 105.0000
1180.613, 98.51953
1181.095, 92.60840
1181.578, 87.19922
1182.060, 82.47070
1182.542, 78.79199
1183.024, 76.49609
1183.506, 75.28125
1183.988, 75.01758
1184.470, 75.83398
1184.952, 77.99121
1185.434, 81.17969
1185.917, 84.66992
1186.399, 88.32910
1186.881, 92.61133
1187.363, 98.02539
1187.845, 103.0205
1188.327, 106.9482
1188.809, 110.2266
1189.291, 113.7168
1189.774, 117.0996
1190.256, 119.7939
1190.738, 121.6797
1191.220, 122.6270
1191.702, 122.6260
1192.184, 121.5771
1192.666, 119.4717
1193.148, 116.5566
1193.630, 113.2529
1194.113, 109.7021
1194.595, 105.9238
1195.077, 102.0850
1195.559, 98.74023
1196.041, 96.43652
1196.523, 94.78516
1197.005, 93.64453
1197.487, 92.99902
1197.969, 92.82227
1198.452, 92.98926
1198.934, 93.28711
1199.416, 93.49609
1199.898, 93.53906
1200.380, 93.20312
1200.862, 92.33105
1201.344, 90.76953
1201.826, 88.50977
1202.309, 85.87109
1202.791, 82.77539
1203.273, 78.94336
1203.755, 74.37207
1204.237, 69.38281
1204.719, 64.26660
1205.201, 59.15137
1205.683, 54.16797
1206.166, 49.55762
1206.648, 45.44043
1207.130, 41.93359
1207.612, 39.12891
1208.094, 36.97754
1208.576, 35.76660
1209.058, 35.81641
1209.540, 36.56836
1210.022, 37.62695
1210.505, 38.94434
1210.987, 40.69922
1211.469, 42.87598
1211.951, 45.57422
1212.433, 49.03320
1212.915, 52.52539
1213.397, 55.71875
1213.879, 58.66504
1214.361, 61.32324
1214.844, 63.63867
1215.326, 65.73047
1215.808, 67.49414
1216.290, 68.78223
1216.772, 69.33887
1217.254, 69.69727
1217.736, 69.94434
1218.218, 69.81738
1218.701, 69.09570
1219.183, 67.69141
1219.665, 65.60254
1220.147, 62.89941
1220.629, 59.41797
1221.111, 55.04297
1221.593, 50.18262
1222.075, 45.03418
1222.557, 39.80566
1223.040, 34.77148
1223.522, 29.97754
1224.004, 25.20801
1224.486, 20.56934
1224.968, 16.38281
1225.450, 12.85742
1225.932, 9.786133
1226.414, 6.961914
1226.896, 4.583008
1227.379, 2.861328
1227.861, 1.678711
1228.343, 0.8964840
1228.825, 0.3925780
1229.307, 6.8359999E-03
1229.789, 0.2607420
1230.271, 0.6904300
1230.753, 1.259766
1231.236, 2.129883
1231.718, 3.586914
1232.200, 5.272461
1232.682, 6.441406
1233.164, 7.040039
1233.646, 7.461914
1234.128, 7.854492
1234.610, 7.710938
1235.093, 6.861328
1235.575, 5.398438
1236.057, 3.524414
1236.539, 1.157227
1237.021, 1.886719
1237.503, 5.557617
1237.985, 9.813477
1238.467, 14.75293
1238.949, 19.79004
1239.432, 24.74023
1239.914, 29.73633
1240.396, 34.86719
1240.878, 40.06055
1241.360, 45.01758
1241.842, 49.73047
1242.324, 54.46875
1242.806, 59.49414
1243.288, 64.11523
1243.771, 68.54004
1244.253, 72.16895
1244.735, 74.21094
1245.217, 75.35742
1245.699, 76.74414
1246.181, 78.43750
1246.663, 79.72168
1247.145, 80.65137
1247.628, 81.01270
1248.110, 80.77832
1248.592, 80.17578
1249.074, 79.54883
1249.556, 78.76270
1250.038, 77.71191
1250.520, 76.41309
1251.002, 74.42773
1251.484, 71.39648
1251.967, 69.75879
1252.449, 70.33496
1252.931, 71.65234
1253.413, 72.38477
1253.895, 72.79980
1254.377, 72.80859
1254.859, 72.49219
1255.341, 73.14746
1255.823, 74.80762
1256.306, 76.24121
1256.788, 77.10938
1257.270, 77.54980
1257.752, 77.64551
1258.234, 77.33301
1258.716, 76.45703
1259.198, 75.06836
1259.680, 73.57715
1260.163, 71.97461
1260.645, 69.30273
1261.127, 65.20410
1261.609, 61.17871
1262.091, 59.04883
1262.573, 56.99121
1263.055, 53.70703
1263.537, 49.67773
1264.020, 46.58301
1264.502, 44.36035
1264.984, 42.16016
1265.466, 39.82227
1265.948, 37.56641
1266.430, 35.59180
1266.912, 33.06543
1267.394, 29.43262
1267.876, 25.38477
1268.359, 22.98438
1268.841, 22.08691
1269.323, 21.27930
1269.805, 20.11328
1270.287, 18.52344
1270.769, 16.29785
1271.251, 13.78906
1271.733, 11.05957
1272.215, 8.227539
1272.698, 5.651367
1273.180, 3.288086
1273.662, 0.9863280
1274.144, 1.222656
1274.626, 2.719727
1275.108, 3.194336
1275.590, 2.977539
1276.072, 2.158203
1276.555, 0.6494140
1277.037, 1.442383
1277.519, 4.244141
1278.001, 7.897461
1278.483, 12.29004
1278.965, 17.41309
1279.447, 23.14648
1279.929, 28.65820
1280.411, 33.51953
1280.894, 37.67090
1281.376, 41.08008
1281.858, 43.64941
1282.340, 45.33398
1282.822, 46.06641
1283.304, 45.98633
1283.786, 45.16895
1284.268, 43.27344
1284.750, 40.22363
1285.233, 36.64844
1285.715, 33.41797
1286.197, 30.02441
1286.679, 25.95996
1287.161, 21.41309
1287.643, 16.75684
1288.125, 11.18652
1288.607, 5.758789
1289.090, 1.865234
1289.572, 0.5195310
1290.054, 1.365234
1290.536, 1.166992
1291.018, 0.2392580
1291.500, 1.414063
1291.982, 3.828125
1292.464, 6.948242
1292.947, 10.67773
1293.429, 14.86914
1293.911, 19.59277
1294.393, 24.67285
1294.875, 29.55469
1295.357, 32.02344
1295.839, 30.73340
1296.321, 30.45117
1296.803, 31.44824
1297.286, 31.79590
1297.768, 30.53418
1298.250, 27.34570
1298.732, 23.85742
1299.214, 18.34180
1299.696, 10.42480
1300.178, 2.406250
1300.660, 0.0000000E+00
##END=



