##NAMES=Celsian
##RRUFFID=R170048
##IDEAL CHEMISTRY=BaAl_2_Si_2_O_8_
##LOCALITY=Big Creek, Pine Flat Lake, Trimmer, Fresno County, California, USA
##OWNER=RRUFF
##SOURCE=Gunnar FÃ¤rber
##DESCRIPTION=Colorless anhedral grains in matrix associated with cerchiaraite-(Fe) R160021 and pellyite R160023
##STATUS=The identification of this mineral has been determined only by Raman spectroscopy
##URL=rruff.info/R170048
8.813672e+001, 3.730558e+003
8.861884e+001, 3.757120e+003
8.910095e+001, 3.800302e+003
8.958307e+001, 3.877251e+003
9.006519e+001, 3.966726e+003
9.054730e+001, 4.044524e+003
9.102942e+001, 4.114221e+003
9.151154e+001, 4.176279e+003
9.199365e+001, 4.230723e+003
9.247577e+001, 4.279161e+003
9.295789e+001, 4.324083e+003
9.344000e+001, 4.365900e+003
9.392212e+001, 4.402940e+003
9.440424e+001, 4.438206e+003
9.488635e+001, 4.475909e+003
9.536847e+001, 4.515258e+003
9.585059e+001, 4.551788e+003
9.633270e+001, 4.585544e+003
9.681482e+001, 4.621743e+003
9.729694e+001, 4.663417e+003
9.777905e+001, 4.710306e+003
9.826117e+001, 4.757608e+003
9.874329e+001, 4.804419e+003
9.922540e+001, 4.851010e+003
9.970752e+001, 4.899198e+003
1.001896e+002, 4.948532e+003
1.006718e+002, 4.998180e+003
1.011539e+002, 5.046361e+003
1.016360e+002, 5.092297e+003
1.021181e+002, 5.141544e+003
1.026002e+002, 5.194402e+003
1.030823e+002, 5.250847e+003
1.035645e+002, 5.310771e+003
1.040466e+002, 5.375513e+003
1.045287e+002, 5.442903e+003
1.050108e+002, 5.512507e+003
1.054929e+002, 5.585042e+003
1.059750e+002, 5.658459e+003
1.064572e+002, 5.733330e+003
1.069393e+002, 5.810641e+003
1.074214e+002, 5.884457e+003
1.079035e+002, 5.955775e+003
1.083856e+002, 6.024396e+003
1.088677e+002, 6.088829e+003
1.093499e+002, 6.153346e+003
1.098320e+002, 6.211499e+003
1.103141e+002, 6.260284e+003
1.107962e+002, 6.296299e+003
1.112783e+002, 6.336883e+003
1.117604e+002, 6.385453e+003
1.122426e+002, 6.439468e+003
1.127247e+002, 6.494156e+003
1.132068e+002, 6.549590e+003
1.136889e+002, 6.605045e+003
1.141710e+002, 6.660026e+003
1.146531e+002, 6.715668e+003
1.151353e+002, 6.768258e+003
1.156174e+002, 6.816135e+003
1.160995e+002, 6.860446e+003
1.165816e+002, 6.904820e+003
1.170637e+002, 6.950771e+003
1.175458e+002, 6.996689e+003
1.180280e+002, 7.041721e+003
1.185101e+002, 7.083038e+003
1.189922e+002, 7.126264e+003
1.194743e+002, 7.174028e+003
1.199564e+002, 7.226042e+003
1.204385e+002, 7.280260e+003
1.209207e+002, 7.335946e+003
1.214028e+002, 7.393043e+003
1.218849e+002, 7.451221e+003
1.223670e+002, 7.510828e+003
1.228491e+002, 7.571937e+003
1.233312e+002, 7.634884e+003
1.238134e+002, 7.699649e+003
1.242955e+002, 7.763477e+003
1.247776e+002, 7.822679e+003
1.252597e+002, 7.879038e+003
1.257418e+002, 7.936344e+003
1.262239e+002, 7.996814e+003
1.267061e+002, 8.059223e+003
1.271882e+002, 8.119373e+003
1.276703e+002, 8.177473e+003
1.281524e+002, 8.235667e+003
1.286345e+002, 8.296567e+003
1.291166e+002, 8.359710e+003
1.295988e+002, 8.423069e+003
1.300809e+002, 8.484873e+003
1.305630e+002, 8.546077e+003
1.310451e+002, 8.610022e+003
1.315272e+002, 8.676653e+003
1.320093e+002, 8.745494e+003
1.324915e+002, 8.817892e+003
1.329736e+002, 8.893771e+003
1.334557e+002, 8.968714e+003
1.339378e+002, 9.040332e+003
1.344199e+002, 9.108538e+003
1.349020e+002, 9.171027e+003
1.353842e+002, 9.227593e+003
1.358663e+002, 9.277115e+003
1.363484e+002, 9.319783e+003
1.368305e+002, 9.354800e+003
1.373126e+002, 9.383807e+003
1.377947e+002, 9.406422e+003
1.382769e+002, 9.421850e+003
1.387590e+002, 9.434755e+003
1.392411e+002, 9.445311e+003
1.397232e+002, 9.453459e+003
1.402053e+002, 9.458062e+003
1.406874e+002, 9.457793e+003
1.411696e+002, 9.457368e+003
1.416517e+002, 9.460845e+003
1.421338e+002, 9.471007e+003
1.426159e+002, 9.479135e+003
1.430980e+002, 9.484030e+003
1.435801e+002, 9.486442e+003
1.440623e+002, 9.491337e+003
1.445444e+002, 9.501271e+003
1.450265e+002, 9.511876e+003
1.455086e+002, 9.518950e+003
1.459907e+002, 9.516982e+003
1.464728e+002, 9.521128e+003
1.469550e+002, 9.536282e+003
1.474371e+002, 9.563428e+003
1.479192e+002, 9.585021e+003
1.484013e+002, 9.597231e+003
1.488834e+002, 9.606005e+003
1.493655e+002, 9.616908e+003
1.498477e+002, 9.631192e+003
1.503298e+002, 9.645848e+003
1.508119e+002, 9.661078e+003
1.512940e+002, 9.677517e+003
1.517761e+002, 9.690020e+003
1.522583e+002, 9.693873e+003
1.527404e+002, 9.695065e+003
1.532225e+002, 9.699984e+003
1.537046e+002, 9.711166e+003
1.541867e+002, 9.724413e+003
1.546688e+002, 9.738922e+003
1.551510e+002, 9.755042e+003
1.556331e+002, 9.772125e+003
1.561152e+002, 9.790385e+003
1.565973e+002, 9.809652e+003
1.570794e+002, 9.829490e+003
1.575615e+002, 9.847412e+003
1.580437e+002, 9.868380e+003
1.585258e+002, 9.894623e+003
1.590079e+002, 9.927112e+003
1.594900e+002, 9.962912e+003
1.599721e+002, 1.000359e+004
1.604542e+002, 1.004680e+004
1.609364e+002, 1.008843e+004
1.614185e+002, 1.012499e+004
1.619006e+002, 1.016075e+004
1.623827e+002, 1.019832e+004
1.628648e+002, 1.023914e+004
1.633469e+002, 1.027888e+004
1.638291e+002, 1.031539e+004
1.643112e+002, 1.034905e+004
1.647933e+002, 1.038182e+004
1.652754e+002, 1.041299e+004
1.657575e+002, 1.044443e+004
1.662396e+002, 1.047837e+004
1.667218e+002, 1.051797e+004
1.672039e+002, 1.055517e+004
1.676860e+002, 1.058777e+004
1.681681e+002, 1.061456e+004
1.686502e+002, 1.063260e+004
1.691323e+002, 1.063115e+004
1.696145e+002, 1.062387e+004
1.700966e+002, 1.062567e+004
1.705787e+002, 1.064675e+004
1.710608e+002, 1.066764e+004
1.715429e+002, 1.067081e+004
1.720250e+002, 1.065874e+004
1.725072e+002, 1.064362e+004
1.729893e+002, 1.063203e+004
1.734714e+002, 1.062201e+004
1.739535e+002, 1.061152e+004
1.744356e+002, 1.060233e+004
1.749177e+002, 1.058929e+004
1.753999e+002, 1.056644e+004
1.758820e+002, 1.053389e+004
1.763641e+002, 1.049578e+004
1.768462e+002, 1.044984e+004
1.773283e+002, 1.040040e+004
1.778104e+002, 1.035546e+004
1.782926e+002, 1.031846e+004
1.787747e+002, 1.028686e+004
1.792568e+002, 1.025813e+004
1.797389e+002, 1.023258e+004
1.802210e+002, 1.020848e+004
1.807031e+002, 1.018377e+004
1.811853e+002, 1.015973e+004
1.816674e+002, 1.014033e+004
1.821495e+002, 1.012799e+004
1.826316e+002, 1.012042e+004
1.831137e+002, 1.011400e+004
1.835958e+002, 1.010860e+004
1.840780e+002, 1.010427e+004
1.845601e+002, 1.010065e+004
1.850422e+002, 1.009791e+004
1.855243e+002, 1.009665e+004
1.860064e+002, 1.009650e+004
1.864885e+002, 1.009807e+004
1.869707e+002, 1.010373e+004
1.874528e+002, 1.011379e+004
1.879349e+002, 1.012543e+004
1.884170e+002, 1.013536e+004
1.888991e+002, 1.014406e+004
1.893812e+002, 1.015474e+004
1.898634e+002, 1.016901e+004
1.903455e+002, 1.018627e+004
1.908276e+002, 1.020435e+004
1.913097e+002, 1.022350e+004
1.917918e+002, 1.024340e+004
1.922739e+002, 1.026249e+004
1.927561e+002, 1.028105e+004
1.932382e+002, 1.030361e+004
1.937203e+002, 1.033356e+004
1.942024e+002, 1.036894e+004
1.946845e+002, 1.040081e+004
1.951666e+002, 1.042896e+004
1.956488e+002, 1.045245e+004
1.961309e+002, 1.047135e+004
1.966130e+002, 1.048594e+004
1.970951e+002, 1.049113e+004
1.975772e+002, 1.048531e+004
1.980593e+002, 1.046865e+004
1.985415e+002, 1.044096e+004
1.990236e+002, 1.040027e+004
1.995057e+002, 1.035485e+004
1.999878e+002, 1.031535e+004
2.004699e+002, 1.028245e+004
2.009520e+002, 1.025300e+004
2.014342e+002, 1.022651e+004
2.019163e+002, 1.020316e+004
2.023984e+002, 1.018408e+004
2.028805e+002, 1.017004e+004
2.033626e+002, 1.015950e+004
2.038447e+002, 1.015020e+004
2.043269e+002, 1.014184e+004
2.048090e+002, 1.013644e+004
2.052911e+002, 1.013458e+004
2.057732e+002, 1.013611e+004
2.062553e+002, 1.014083e+004
2.067374e+002, 1.014860e+004
2.072196e+002, 1.015904e+004
2.077017e+002, 1.017202e+004
2.081838e+002, 1.018787e+004
2.086659e+002, 1.020406e+004
2.091480e+002, 1.021970e+004
2.096301e+002, 1.023478e+004
2.101123e+002, 1.024819e+004
2.105944e+002, 1.025912e+004
2.110765e+002, 1.026923e+004
2.115586e+002, 1.028096e+004
2.120407e+002, 1.029461e+004
2.125228e+002, 1.030871e+004
2.130050e+002, 1.032299e+004
2.134871e+002, 1.033747e+004
2.139692e+002, 1.035085e+004
2.144513e+002, 1.036364e+004
2.149334e+002, 1.037473e+004
2.154155e+002, 1.038209e+004
2.158977e+002, 1.038389e+004
2.163798e+002, 1.038669e+004
2.168619e+002, 1.039307e+004
2.173440e+002, 1.040376e+004
2.178261e+002, 1.041211e+004
2.183082e+002, 1.041652e+004
2.187904e+002, 1.042034e+004
2.192725e+002, 1.042901e+004
2.197546e+002, 1.044567e+004
2.202367e+002, 1.046058e+004
2.207188e+002, 1.047047e+004
2.212009e+002, 1.047475e+004
2.216831e+002, 1.048025e+004
2.221652e+002, 1.048919e+004
2.226473e+002, 1.049757e+004
2.231294e+002, 1.049924e+004
2.236115e+002, 1.049126e+004
2.240936e+002, 1.048264e+004
2.245758e+002, 1.047561e+004
2.250579e+002, 1.047039e+004
2.255400e+002, 1.046544e+004
2.260221e+002, 1.046015e+004
2.265042e+002, 1.045560e+004
2.269863e+002, 1.045308e+004
2.274685e+002, 1.045189e+004
2.279506e+002, 1.045371e+004
2.284327e+002, 1.045920e+004
2.289148e+002, 1.046867e+004
2.293969e+002, 1.047852e+004
2.298790e+002, 1.048746e+004
2.303612e+002, 1.049751e+004
2.308433e+002, 1.051157e+004
2.313254e+002, 1.053257e+004
2.318075e+002, 1.055205e+004
2.322896e+002, 1.056705e+004
2.327717e+002, 1.057665e+004
2.332539e+002, 1.058978e+004
2.337360e+002, 1.060838e+004
2.342181e+002, 1.062853e+004
2.347002e+002, 1.064590e+004
2.351823e+002, 1.065903e+004
2.356644e+002, 1.067221e+004
2.361466e+002, 1.068588e+004
2.366287e+002, 1.069990e+004
2.371108e+002, 1.071834e+004
2.375929e+002, 1.074258e+004
2.380750e+002, 1.077016e+004
2.385571e+002, 1.079845e+004
2.390393e+002, 1.082729e+004
2.395214e+002, 1.085769e+004
2.400035e+002, 1.088965e+004
2.404856e+002, 1.092349e+004
2.409677e+002, 1.095936e+004
2.414498e+002, 1.099663e+004
2.419320e+002, 1.103639e+004
2.424141e+002, 1.108036e+004
2.428962e+002, 1.113023e+004
2.433783e+002, 1.118063e+004
2.438604e+002, 1.123147e+004
2.443425e+002, 1.128249e+004
2.448247e+002, 1.132904e+004
2.453068e+002, 1.137454e+004
2.457889e+002, 1.141123e+004
2.462710e+002, 1.143160e+004
2.467531e+002, 1.142745e+004
2.472352e+002, 1.142308e+004
2.477174e+002, 1.142485e+004
2.481995e+002, 1.143186e+004
2.486816e+002, 1.142529e+004
2.491637e+002, 1.140057e+004
2.496458e+002, 1.136819e+004
2.501279e+002, 1.133603e+004
2.506101e+002, 1.130244e+004
2.510922e+002, 1.127326e+004
2.515743e+002, 1.125008e+004
2.520564e+002, 1.123267e+004
2.525385e+002, 1.121867e+004
2.530206e+002, 1.120785e+004
2.535028e+002, 1.120098e+004
2.539849e+002, 1.119911e+004
2.544670e+002, 1.120381e+004
2.549491e+002, 1.120906e+004
2.554312e+002, 1.121423e+004
2.559133e+002, 1.121901e+004
2.563955e+002, 1.122352e+004
2.568776e+002, 1.122938e+004
2.573597e+002, 1.123139e+004
2.578418e+002, 1.122605e+004
2.583239e+002, 1.121172e+004
2.588061e+002, 1.119300e+004
2.592882e+002, 1.116885e+004
2.597703e+002, 1.114039e+004
2.602524e+002, 1.111265e+004
2.607345e+002, 1.108602e+004
2.612166e+002, 1.105944e+004
2.616988e+002, 1.103146e+004
2.621809e+002, 1.100140e+004
2.626630e+002, 1.097507e+004
2.631451e+002, 1.095388e+004
2.636272e+002, 1.093673e+004
2.641093e+002, 1.092092e+004
2.645915e+002, 1.090625e+004
2.650736e+002, 1.089388e+004
2.655557e+002, 1.088529e+004
2.660378e+002, 1.088264e+004
2.665199e+002, 1.087582e+004
2.670020e+002, 1.086252e+004
2.674842e+002, 1.084690e+004
2.679663e+002, 1.083813e+004
2.684484e+002, 1.083753e+004
2.689305e+002, 1.083966e+004
2.694126e+002, 1.084206e+004
2.698947e+002, 1.084429e+004
2.703769e+002, 1.084871e+004
2.708590e+002, 1.085527e+004
2.713411e+002, 1.086353e+004
2.718232e+002, 1.087308e+004
2.723053e+002, 1.088414e+004
2.727874e+002, 1.089434e+004
2.732696e+002, 1.090242e+004
2.737517e+002, 1.090805e+004
2.742338e+002, 1.091400e+004
2.747159e+002, 1.092027e+004
2.751980e+002, 1.092650e+004
2.756801e+002, 1.093222e+004
2.761623e+002, 1.093748e+004
2.766444e+002, 1.094244e+004
2.771265e+002, 1.094803e+004
2.776086e+002, 1.095417e+004
2.780907e+002, 1.095667e+004
2.785728e+002, 1.095561e+004
2.790550e+002, 1.095169e+004
2.795371e+002, 1.094388e+004
2.800192e+002, 1.093175e+004
2.805013e+002, 1.092396e+004
2.809834e+002, 1.092381e+004
2.814655e+002, 1.093004e+004
2.819477e+002, 1.093598e+004
2.824298e+002, 1.094165e+004
2.829119e+002, 1.094685e+004
2.833940e+002, 1.095037e+004
2.838761e+002, 1.095220e+004
2.843582e+002, 1.095656e+004
2.848404e+002, 1.096462e+004
2.853225e+002, 1.097541e+004
2.858046e+002, 1.098642e+004
2.862867e+002, 1.099747e+004
2.867688e+002, 1.100843e+004
2.872509e+002, 1.101925e+004
2.877331e+002, 1.102983e+004
2.882152e+002, 1.103964e+004
2.886973e+002, 1.104814e+004
2.891794e+002, 1.105631e+004
2.896615e+002, 1.106651e+004
2.901436e+002, 1.107880e+004
2.906258e+002, 1.109087e+004
2.911079e+002, 1.110087e+004
2.915900e+002, 1.110940e+004
2.920721e+002, 1.111902e+004
2.925542e+002, 1.113016e+004
2.930363e+002, 1.114216e+004
2.935185e+002, 1.115364e+004
2.940006e+002, 1.116487e+004
2.944827e+002, 1.117697e+004
2.949648e+002, 1.119156e+004
2.954469e+002, 1.120770e+004
2.959290e+002, 1.122243e+004
2.964112e+002, 1.123539e+004
2.968933e+002, 1.124805e+004
2.973754e+002, 1.126073e+004
2.978575e+002, 1.127401e+004
2.983396e+002, 1.129054e+004
2.988217e+002, 1.131332e+004
2.993039e+002, 1.133956e+004
2.997860e+002, 1.136376e+004
3.002681e+002, 1.138576e+004
3.007502e+002, 1.140743e+004
3.012323e+002, 1.143062e+004
3.017144e+002, 1.145496e+004
3.021966e+002, 1.147851e+004
3.026787e+002, 1.150108e+004
3.031608e+002, 1.152266e+004
3.036429e+002, 1.154444e+004
3.041250e+002, 1.156612e+004
3.046071e+002, 1.158528e+004
3.050893e+002, 1.160100e+004
3.055714e+002, 1.161266e+004
3.060535e+002, 1.161884e+004
3.065356e+002, 1.161967e+004
3.070177e+002, 1.161446e+004
3.074998e+002, 1.160136e+004
3.079820e+002, 1.158099e+004
3.084641e+002, 1.155720e+004
3.089462e+002, 1.153153e+004
3.094283e+002, 1.150400e+004
3.099104e+002, 1.147418e+004
3.103925e+002, 1.143981e+004
3.108747e+002, 1.140766e+004
3.113568e+002, 1.138333e+004
3.118389e+002, 1.136537e+004
3.123210e+002, 1.134970e+004
3.128031e+002, 1.133434e+004
3.132852e+002, 1.132039e+004
3.137674e+002, 1.130891e+004
3.142495e+002, 1.130087e+004
3.147316e+002, 1.129353e+004
3.152137e+002, 1.128545e+004
3.156958e+002, 1.127729e+004
3.161779e+002, 1.127020e+004
3.166601e+002, 1.126420e+004
3.171422e+002, 1.125967e+004
3.176243e+002, 1.125717e+004
3.181064e+002, 1.125698e+004
3.185885e+002, 1.125730e+004
3.190706e+002, 1.125767e+004
3.195528e+002, 1.125821e+004
3.200349e+002, 1.125906e+004
3.205170e+002, 1.125975e+004
3.209991e+002, 1.126126e+004
3.214812e+002, 1.126411e+004
3.219633e+002, 1.126831e+004
3.224455e+002, 1.127263e+004
3.229276e+002, 1.127466e+004
3.234097e+002, 1.127781e+004
3.238918e+002, 1.128464e+004
3.243739e+002, 1.130384e+004
3.248560e+002, 1.131743e+004
3.253382e+002, 1.131928e+004
3.258203e+002, 1.131137e+004
3.263024e+002, 1.130736e+004
3.267845e+002, 1.131148e+004
3.272666e+002, 1.131717e+004
3.277487e+002, 1.132128e+004
3.282309e+002, 1.132171e+004
3.287130e+002, 1.132319e+004
3.291951e+002, 1.132675e+004
3.296772e+002, 1.133132e+004
3.301593e+002, 1.133416e+004
3.306414e+002, 1.133367e+004
3.311236e+002, 1.133335e+004
3.316057e+002, 1.133434e+004
3.320878e+002, 1.133674e+004
3.325699e+002, 1.134061e+004
3.330520e+002, 1.134727e+004
3.335341e+002, 1.135471e+004
3.340163e+002, 1.136005e+004
3.344984e+002, 1.136306e+004
3.349805e+002, 1.136457e+004
3.354626e+002, 1.136389e+004
3.359447e+002, 1.136087e+004
3.364268e+002, 1.136243e+004
3.369090e+002, 1.136993e+004
3.373911e+002, 1.138011e+004
3.378732e+002, 1.138989e+004
3.383553e+002, 1.139916e+004
3.388374e+002, 1.140816e+004
3.393195e+002, 1.141669e+004
3.398017e+002, 1.142479e+004
3.402838e+002, 1.143373e+004
3.407659e+002, 1.144372e+004
3.412480e+002, 1.145294e+004
3.417301e+002, 1.145967e+004
3.422122e+002, 1.146360e+004
3.426944e+002, 1.146792e+004
3.431765e+002, 1.147288e+004
3.436586e+002, 1.147822e+004
3.441407e+002, 1.148370e+004
3.446228e+002, 1.148934e+004
3.451049e+002, 1.149432e+004
3.455871e+002, 1.149807e+004
3.460692e+002, 1.150097e+004
3.465513e+002, 1.150402e+004
3.470334e+002, 1.150743e+004
3.475155e+002, 1.151163e+004
3.479977e+002, 1.151776e+004
3.484798e+002, 1.152557e+004
3.489619e+002, 1.153267e+004
3.494440e+002, 1.153568e+004
3.499261e+002, 1.153815e+004
3.504082e+002, 1.154888e+004
3.508904e+002, 1.156773e+004
3.513725e+002, 1.158640e+004
3.518546e+002, 1.159614e+004
3.523367e+002, 1.160038e+004
3.528188e+002, 1.160694e+004
3.533009e+002, 1.161977e+004
3.537831e+002, 1.163321e+004
3.542652e+002, 1.164139e+004
3.547473e+002, 1.164471e+004
3.552294e+002, 1.164532e+004
3.557115e+002, 1.164381e+004
3.561936e+002, 1.164080e+004
3.566758e+002, 1.163728e+004
3.571579e+002, 1.163411e+004
3.576400e+002, 1.162935e+004
3.581221e+002, 1.162046e+004
3.586042e+002, 1.160945e+004
3.590863e+002, 1.159989e+004
3.595685e+002, 1.159473e+004
3.600506e+002, 1.159088e+004
3.605327e+002, 1.158644e+004
3.610148e+002, 1.158122e+004
3.614969e+002, 1.157642e+004
3.619790e+002, 1.157077e+004
3.624612e+002, 1.156637e+004
3.629433e+002, 1.156534e+004
3.634254e+002, 1.156932e+004
3.639075e+002, 1.157523e+004
3.643896e+002, 1.158277e+004
3.648717e+002, 1.159149e+004
3.653539e+002, 1.159898e+004
3.658360e+002, 1.160431e+004
3.663181e+002, 1.160795e+004
3.668002e+002, 1.161025e+004
3.672823e+002, 1.160929e+004
3.677644e+002, 1.160904e+004
3.682466e+002, 1.161052e+004
3.687287e+002, 1.161287e+004
3.692108e+002, 1.161375e+004
3.696929e+002, 1.161266e+004
3.701750e+002, 1.161075e+004
3.706571e+002, 1.160862e+004
3.711393e+002, 1.160669e+004
3.716214e+002, 1.160349e+004
3.721035e+002, 1.159860e+004
3.725856e+002, 1.159308e+004
3.730677e+002, 1.158822e+004
3.735498e+002, 1.158417e+004
3.740320e+002, 1.158113e+004
3.745141e+002, 1.157958e+004
3.749962e+002, 1.157956e+004
3.754783e+002, 1.157944e+004
3.759604e+002, 1.157921e+004
3.764425e+002, 1.157939e+004
3.769247e+002, 1.158070e+004
3.774068e+002, 1.158342e+004
3.778889e+002, 1.158537e+004
3.783710e+002, 1.158560e+004
3.788531e+002, 1.158554e+004
3.793352e+002, 1.158875e+004
3.798174e+002, 1.159527e+004
3.802995e+002, 1.160311e+004
3.807816e+002, 1.161081e+004
3.812637e+002, 1.161847e+004
3.817458e+002, 1.162777e+004
3.822279e+002, 1.163915e+004
3.827101e+002, 1.165007e+004
3.831922e+002, 1.165629e+004
3.836743e+002, 1.165883e+004
3.841564e+002, 1.166290e+004
3.846385e+002, 1.167185e+004
3.851206e+002, 1.168287e+004
3.856028e+002, 1.169155e+004
3.860849e+002, 1.169793e+004
3.865670e+002, 1.170231e+004
3.870491e+002, 1.170397e+004
3.875312e+002, 1.170421e+004
3.880133e+002, 1.170505e+004
3.884955e+002, 1.170703e+004
3.889776e+002, 1.171008e+004
3.894597e+002, 1.171576e+004
3.899418e+002, 1.172292e+004
3.904239e+002, 1.172795e+004
3.909060e+002, 1.172698e+004
3.913882e+002, 1.172457e+004
3.918703e+002, 1.172400e+004
3.923524e+002, 1.172566e+004
3.928345e+002, 1.172905e+004
3.933166e+002, 1.173474e+004
3.937987e+002, 1.174173e+004
3.942809e+002, 1.174871e+004
3.947630e+002, 1.175482e+004
3.952451e+002, 1.176116e+004
3.957272e+002, 1.176819e+004
3.962093e+002, 1.177581e+004
3.966914e+002, 1.178330e+004
3.971736e+002, 1.179113e+004
3.976557e+002, 1.179825e+004
3.981378e+002, 1.180399e+004
3.986199e+002, 1.180439e+004
3.991020e+002, 1.180817e+004
3.995841e+002, 1.181852e+004
4.000663e+002, 1.183220e+004
4.005484e+002, 1.184143e+004
4.010305e+002, 1.184278e+004
4.015126e+002, 1.184393e+004
4.019947e+002, 1.184748e+004
4.024768e+002, 1.185395e+004
4.029590e+002, 1.185974e+004
4.034411e+002, 1.186435e+004
4.039232e+002, 1.186893e+004
4.044053e+002, 1.187518e+004
4.048874e+002, 1.188409e+004
4.053695e+002, 1.189157e+004
4.058517e+002, 1.189638e+004
4.063338e+002, 1.189944e+004
4.068159e+002, 1.190511e+004
4.072980e+002, 1.191400e+004
4.077801e+002, 1.192297e+004
4.082622e+002, 1.192891e+004
4.087444e+002, 1.193221e+004
4.092265e+002, 1.193847e+004
4.097086e+002, 1.194887e+004
4.101907e+002, 1.196046e+004
4.106728e+002, 1.196894e+004
4.111549e+002, 1.197447e+004
4.116371e+002, 1.197846e+004
4.121192e+002, 1.198092e+004
4.126013e+002, 1.198212e+004
4.130834e+002, 1.198302e+004
4.135655e+002, 1.198348e+004
4.140476e+002, 1.198198e+004
4.145298e+002, 1.197611e+004
4.150119e+002, 1.196765e+004
4.154940e+002, 1.195944e+004
4.159761e+002, 1.195253e+004
4.164582e+002, 1.194601e+004
4.169403e+002, 1.193923e+004
4.174225e+002, 1.193249e+004
4.179046e+002, 1.192644e+004
4.183867e+002, 1.192204e+004
4.188688e+002, 1.191853e+004
4.193509e+002, 1.191578e+004
4.198330e+002, 1.191411e+004
4.203152e+002, 1.191226e+004
4.207973e+002, 1.190738e+004
4.212794e+002, 1.190307e+004
4.217615e+002, 1.190346e+004
4.222436e+002, 1.191493e+004
4.227257e+002, 1.192564e+004
4.232079e+002, 1.193161e+004
4.236900e+002, 1.193327e+004
4.241721e+002, 1.193740e+004
4.246542e+002, 1.194575e+004
4.251363e+002, 1.195558e+004
4.256184e+002, 1.196572e+004
4.261006e+002, 1.197656e+004
4.265827e+002, 1.198632e+004
4.270648e+002, 1.199492e+004
4.275469e+002, 1.200225e+004
4.280290e+002, 1.200836e+004
4.285111e+002, 1.201421e+004
4.289933e+002, 1.201637e+004
4.294754e+002, 1.201275e+004
4.299575e+002, 1.200350e+004
4.304396e+002, 1.199648e+004
4.309217e+002, 1.199247e+004
4.314038e+002, 1.198839e+004
4.318860e+002, 1.198106e+004
4.323681e+002, 1.197047e+004
4.328502e+002, 1.196102e+004
4.333323e+002, 1.195343e+004
4.338144e+002, 1.194740e+004
4.342965e+002, 1.194241e+004
4.347787e+002, 1.193844e+004
4.352608e+002, 1.193529e+004
4.357429e+002, 1.193358e+004
4.362250e+002, 1.193243e+004
4.367071e+002, 1.192958e+004
4.371892e+002, 1.192482e+004
4.376714e+002, 1.192023e+004
4.381535e+002, 1.191729e+004
4.386356e+002, 1.191607e+004
4.391177e+002, 1.191703e+004
4.395998e+002, 1.192279e+004
4.400819e+002, 1.192811e+004
4.405641e+002, 1.192738e+004
4.410462e+002, 1.192232e+004
4.415283e+002, 1.191890e+004
4.420104e+002, 1.192118e+004
4.424925e+002, 1.192558e+004
4.429746e+002, 1.192948e+004
4.434568e+002, 1.193200e+004
4.439389e+002, 1.193600e+004
4.444210e+002, 1.194334e+004
4.449031e+002, 1.195205e+004
4.453852e+002, 1.195980e+004
4.458673e+002, 1.196541e+004
4.463495e+002, 1.197002e+004
4.468316e+002, 1.197318e+004
4.473137e+002, 1.197483e+004
4.477958e+002, 1.197677e+004
4.482779e+002, 1.197966e+004
4.487600e+002, 1.198199e+004
4.492422e+002, 1.198302e+004
4.497243e+002, 1.198258e+004
4.502064e+002, 1.198172e+004
4.506885e+002, 1.198081e+004
4.511706e+002, 1.197964e+004
4.516527e+002, 1.197771e+004
4.521349e+002, 1.197512e+004
4.526170e+002, 1.197288e+004
4.530991e+002, 1.197157e+004
4.535812e+002, 1.197131e+004
4.540633e+002, 1.197136e+004
4.545454e+002, 1.197174e+004
4.550276e+002, 1.197372e+004
4.555097e+002, 1.197815e+004
4.559918e+002, 1.198497e+004
4.564739e+002, 1.199391e+004
4.569560e+002, 1.200517e+004
4.574381e+002, 1.201736e+004
4.579203e+002, 1.202844e+004
4.584024e+002, 1.203860e+004
4.588845e+002, 1.204925e+004
4.593666e+002, 1.206142e+004
4.598488e+002, 1.207369e+004
4.603309e+002, 1.208411e+004
4.608130e+002, 1.209255e+004
4.612951e+002, 1.210056e+004
4.617772e+002, 1.211024e+004
4.622593e+002, 1.211921e+004
4.627415e+002, 1.212481e+004
4.632236e+002, 1.212493e+004
4.637057e+002, 1.212457e+004
4.641878e+002, 1.212748e+004
4.646699e+002, 1.213137e+004
4.651520e+002, 1.213173e+004
4.656342e+002, 1.212406e+004
4.661163e+002, 1.211631e+004
4.665984e+002, 1.211146e+004
4.670805e+002, 1.211023e+004
4.675626e+002, 1.210738e+004
4.680447e+002, 1.210057e+004
4.685269e+002, 1.209385e+004
4.690090e+002, 1.209003e+004
4.694911e+002, 1.209084e+004
4.699732e+002, 1.209065e+004
4.704553e+002, 1.208855e+004
4.709374e+002, 1.208540e+004
4.714196e+002, 1.208340e+004
4.719017e+002, 1.208292e+004
4.723838e+002, 1.208212e+004
4.728659e+002, 1.208066e+004
4.733480e+002, 1.207845e+004
4.738301e+002, 1.207365e+004
4.743123e+002, 1.206591e+004
4.747944e+002, 1.205833e+004
4.752765e+002, 1.205435e+004
4.757586e+002, 1.205331e+004
4.762407e+002, 1.205193e+004
4.767228e+002, 1.204938e+004
4.772050e+002, 1.204690e+004
4.776871e+002, 1.204635e+004
4.781692e+002, 1.204722e+004
4.786513e+002, 1.204795e+004
4.791334e+002, 1.204676e+004
4.796155e+002, 1.204544e+004
4.800977e+002, 1.204609e+004
4.805798e+002, 1.204865e+004
4.810619e+002, 1.205089e+004
4.815440e+002, 1.205134e+004
4.820261e+002, 1.205088e+004
4.825082e+002, 1.205033e+004
4.829904e+002, 1.205033e+004
4.834725e+002, 1.204970e+004
4.839546e+002, 1.204672e+004
4.844367e+002, 1.204304e+004
4.849188e+002, 1.204210e+004
4.854009e+002, 1.204721e+004
4.858831e+002, 1.205255e+004
4.863652e+002, 1.205659e+004
4.868473e+002, 1.205926e+004
4.873294e+002, 1.206264e+004
4.878115e+002, 1.206687e+004
4.882936e+002, 1.207173e+004
4.887758e+002, 1.207711e+004
4.892579e+002, 1.208298e+004
4.897400e+002, 1.208932e+004
4.902221e+002, 1.209607e+004
4.907042e+002, 1.210318e+004
4.911863e+002, 1.211029e+004
4.916685e+002, 1.211733e+004
4.921506e+002, 1.212488e+004
4.926327e+002, 1.213291e+004
4.931148e+002, 1.214162e+004
4.935969e+002, 1.215116e+004
4.940790e+002, 1.216161e+004
4.945612e+002, 1.217308e+004
4.950433e+002, 1.218699e+004
4.955254e+002, 1.220176e+004
4.960075e+002, 1.221464e+004
4.964896e+002, 1.222466e+004
4.969717e+002, 1.223373e+004
4.974539e+002, 1.224364e+004
4.979360e+002, 1.225356e+004
4.984181e+002, 1.226173e+004
4.989002e+002, 1.226492e+004
4.993823e+002, 1.226829e+004
4.998644e+002, 1.227557e+004
5.003466e+002, 1.228636e+004
5.008287e+002, 1.229534e+004
5.013108e+002, 1.229992e+004
5.017929e+002, 1.230307e+004
5.022750e+002, 1.230663e+004
5.027571e+002, 1.231209e+004
5.032393e+002, 1.231562e+004
5.037214e+002, 1.231677e+004
5.042035e+002, 1.231631e+004
5.046856e+002, 1.231521e+004
5.051677e+002, 1.231339e+004
5.056498e+002, 1.231118e+004
5.061320e+002, 1.230851e+004
5.066141e+002, 1.230547e+004
5.070962e+002, 1.230269e+004
5.075783e+002, 1.230016e+004
5.080604e+002, 1.229761e+004
5.085425e+002, 1.229489e+004
5.090247e+002, 1.229185e+004
5.095068e+002, 1.228840e+004
5.099889e+002, 1.228454e+004
5.104710e+002, 1.227979e+004
5.109531e+002, 1.227403e+004
5.114352e+002, 1.226708e+004
5.119174e+002, 1.225831e+004
5.123995e+002, 1.224730e+004
5.128816e+002, 1.223496e+004
5.133637e+002, 1.222179e+004
5.138458e+002, 1.220809e+004
5.143279e+002, 1.219452e+004
5.148101e+002, 1.218037e+004
5.152922e+002, 1.216761e+004
5.157743e+002, 1.215814e+004
5.162564e+002, 1.215246e+004
5.167385e+002, 1.214729e+004
5.172206e+002, 1.214026e+004
5.177028e+002, 1.213403e+004
5.181849e+002, 1.213074e+004
5.186670e+002, 1.213266e+004
5.191491e+002, 1.213490e+004
5.196312e+002, 1.213665e+004
5.201133e+002, 1.213840e+004
5.205955e+002, 1.214141e+004
5.210776e+002, 1.214581e+004
5.215597e+002, 1.215075e+004
5.220418e+002, 1.215590e+004
5.225239e+002, 1.216114e+004
5.230060e+002, 1.216612e+004
5.234882e+002, 1.217069e+004
5.239703e+002, 1.217485e+004
5.244524e+002, 1.217883e+004
5.249345e+002, 1.218242e+004
5.254166e+002, 1.218455e+004
5.258987e+002, 1.218489e+004
5.263809e+002, 1.218431e+004
5.268630e+002, 1.218386e+004
5.273451e+002, 1.218346e+004
5.278272e+002, 1.218301e+004
5.283093e+002, 1.218338e+004
5.287914e+002, 1.218311e+004
5.292736e+002, 1.218045e+004
5.297557e+002, 1.217589e+004
5.302378e+002, 1.217125e+004
5.307199e+002, 1.216714e+004
5.312020e+002, 1.216392e+004
5.316841e+002, 1.216230e+004
5.321663e+002, 1.216292e+004
5.326484e+002, 1.216299e+004
5.331305e+002, 1.216014e+004
5.336126e+002, 1.215722e+004
5.340947e+002, 1.215692e+004
5.345768e+002, 1.216154e+004
5.350590e+002, 1.216578e+004
5.355411e+002, 1.216880e+004
5.360232e+002, 1.217103e+004
5.365053e+002, 1.217378e+004
5.369874e+002, 1.217680e+004
5.374695e+002, 1.218011e+004
5.379517e+002, 1.218368e+004
5.384338e+002, 1.218736e+004
5.389159e+002, 1.219026e+004
5.393980e+002, 1.219236e+004
5.398801e+002, 1.219310e+004
5.403622e+002, 1.219154e+004
5.408444e+002, 1.218818e+004
5.413265e+002, 1.218496e+004
5.418086e+002, 1.218234e+004
5.422907e+002, 1.217959e+004
5.427728e+002, 1.217563e+004
5.432549e+002, 1.217099e+004
5.437371e+002, 1.216672e+004
5.442192e+002, 1.216403e+004
5.447013e+002, 1.216153e+004
5.451834e+002, 1.215803e+004
5.456655e+002, 1.215395e+004
5.461476e+002, 1.215071e+004
5.466298e+002, 1.214918e+004
5.471119e+002, 1.214853e+004
5.475940e+002, 1.214835e+004
5.480761e+002, 1.214865e+004
5.485582e+002, 1.214921e+004
5.490403e+002, 1.214972e+004
5.495225e+002, 1.215054e+004
5.500046e+002, 1.215193e+004
5.504867e+002, 1.215373e+004
5.509688e+002, 1.215598e+004
5.514509e+002, 1.215874e+004
5.519330e+002, 1.216160e+004
5.524152e+002, 1.216360e+004
5.528973e+002, 1.216450e+004
5.533794e+002, 1.216555e+004
5.538615e+002, 1.216758e+004
5.543436e+002, 1.216996e+004
5.548257e+002, 1.217044e+004
5.553079e+002, 1.216907e+004
5.557900e+002, 1.216698e+004
5.562721e+002, 1.216493e+004
5.567542e+002, 1.216288e+004
5.572363e+002, 1.216079e+004
5.577184e+002, 1.215875e+004
5.582006e+002, 1.215668e+004
5.586827e+002, 1.215488e+004
5.591648e+002, 1.215303e+004
5.596469e+002, 1.215067e+004
5.601290e+002, 1.214651e+004
5.606111e+002, 1.214320e+004
5.610933e+002, 1.214209e+004
5.615754e+002, 1.214248e+004
5.620575e+002, 1.214253e+004
5.625396e+002, 1.214155e+004
5.630217e+002, 1.214051e+004
5.635038e+002, 1.213959e+004
5.639860e+002, 1.213873e+004
5.644681e+002, 1.213821e+004
5.649502e+002, 1.213797e+004
5.654323e+002, 1.213816e+004
5.659144e+002, 1.213908e+004
5.663965e+002, 1.214082e+004
5.668787e+002, 1.214200e+004
5.673608e+002, 1.214244e+004
5.678429e+002, 1.214254e+004
5.683250e+002, 1.214271e+004
5.688071e+002, 1.214300e+004
5.692892e+002, 1.214350e+004
5.697714e+002, 1.214417e+004
5.702535e+002, 1.214521e+004
5.707356e+002, 1.214730e+004
5.712177e+002, 1.215004e+004
5.716998e+002, 1.215204e+004
5.721819e+002, 1.215174e+004
5.726641e+002, 1.215100e+004
5.731462e+002, 1.215121e+004
5.736283e+002, 1.215242e+004
5.741104e+002, 1.215320e+004
5.745925e+002, 1.215302e+004
5.750746e+002, 1.215235e+004
5.755568e+002, 1.215149e+004
5.760389e+002, 1.215063e+004
5.765210e+002, 1.214946e+004
5.770031e+002, 1.214819e+004
5.774852e+002, 1.214662e+004
5.779673e+002, 1.214422e+004
5.784495e+002, 1.214062e+004
5.789316e+002, 1.213825e+004
5.794137e+002, 1.213795e+004
5.798958e+002, 1.213923e+004
5.803779e+002, 1.214054e+004
5.808600e+002, 1.214193e+004
5.813422e+002, 1.214374e+004
5.818243e+002, 1.214603e+004
5.823064e+002, 1.214877e+004
5.827885e+002, 1.215184e+004
5.832706e+002, 1.215512e+004
5.837527e+002, 1.215846e+004
5.842349e+002, 1.216150e+004
5.847170e+002, 1.216436e+004
5.851991e+002, 1.216728e+004
5.856812e+002, 1.217040e+004
5.861633e+002, 1.217254e+004
5.866454e+002, 1.217293e+004
5.871276e+002, 1.217196e+004
5.876097e+002, 1.217017e+004
5.880918e+002, 1.216793e+004
5.885739e+002, 1.216468e+004
5.890560e+002, 1.216053e+004
5.895381e+002, 1.215568e+004
5.900203e+002, 1.215026e+004
5.905024e+002, 1.214422e+004
5.909845e+002, 1.213858e+004
5.914666e+002, 1.213400e+004
5.919487e+002, 1.213046e+004
5.924308e+002, 1.212700e+004
5.929130e+002, 1.212365e+004
5.933951e+002, 1.212080e+004
5.938772e+002, 1.211884e+004
5.943593e+002, 1.211760e+004
5.948414e+002, 1.211658e+004
5.953235e+002, 1.211560e+004
5.958057e+002, 1.211495e+004
5.962878e+002, 1.211492e+004
5.967699e+002, 1.211515e+004
5.972520e+002, 1.211524e+004
5.977341e+002, 1.211492e+004
5.982162e+002, 1.211428e+004
5.986984e+002, 1.211330e+004
5.991805e+002, 1.211202e+004
5.996626e+002, 1.211046e+004
6.001447e+002, 1.210865e+004
6.006268e+002, 1.210674e+004
6.011089e+002, 1.210498e+004
6.015911e+002, 1.210340e+004
6.020732e+002, 1.210152e+004
6.025553e+002, 1.209928e+004
6.030374e+002, 1.209716e+004
6.035195e+002, 1.209535e+004
6.040016e+002, 1.209392e+004
6.044838e+002, 1.209358e+004
6.049659e+002, 1.209449e+004
6.054480e+002, 1.209593e+004
6.059301e+002, 1.209710e+004
6.064122e+002, 1.209813e+004
6.068943e+002, 1.209953e+004
6.073765e+002, 1.210128e+004
6.078586e+002, 1.210349e+004
6.083407e+002, 1.210634e+004
6.088228e+002, 1.210967e+004
6.093049e+002, 1.211315e+004
6.097870e+002, 1.211682e+004
6.102692e+002, 1.212041e+004
6.107513e+002, 1.212363e+004
6.112334e+002, 1.212656e+004
6.117155e+002, 1.212957e+004
6.121976e+002, 1.213300e+004
6.126797e+002, 1.213604e+004
6.131619e+002, 1.213837e+004
6.136440e+002, 1.213990e+004
6.141261e+002, 1.214110e+004
6.146082e+002, 1.214199e+004
6.150903e+002, 1.214245e+004
6.155724e+002, 1.214247e+004
6.160546e+002, 1.214207e+004
6.165367e+002, 1.214068e+004
6.170188e+002, 1.213822e+004
6.175009e+002, 1.213509e+004
6.179830e+002, 1.213188e+004
6.184651e+002, 1.212847e+004
6.189473e+002, 1.212445e+004
6.194294e+002, 1.211965e+004
6.199115e+002, 1.211465e+004
6.203936e+002, 1.210999e+004
6.208757e+002, 1.210562e+004
6.213578e+002, 1.210127e+004
6.218400e+002, 1.209678e+004
6.223221e+002, 1.209245e+004
6.228042e+002, 1.208842e+004
6.232863e+002, 1.208467e+004
6.237684e+002, 1.208128e+004
6.242505e+002, 1.207842e+004
6.247327e+002, 1.207564e+004
6.252148e+002, 1.207276e+004
6.256969e+002, 1.206968e+004
6.261790e+002, 1.206653e+004
6.266611e+002, 1.206331e+004
6.271432e+002, 1.205976e+004
6.276254e+002, 1.205560e+004
6.281075e+002, 1.205085e+004
6.285896e+002, 1.204619e+004
6.290717e+002, 1.204187e+004
6.295538e+002, 1.203752e+004
6.300359e+002, 1.203278e+004
6.305181e+002, 1.202797e+004
6.310002e+002, 1.202352e+004
6.314823e+002, 1.201969e+004
6.319644e+002, 1.201661e+004
6.324465e+002, 1.201430e+004
6.329286e+002, 1.201299e+004
6.334108e+002, 1.201299e+004
6.338929e+002, 1.201470e+004
6.343750e+002, 1.201731e+004
6.348571e+002, 1.202048e+004
6.353392e+002, 1.202403e+004
6.358214e+002, 1.202786e+004
6.363035e+002, 1.203161e+004
6.367856e+002, 1.203520e+004
6.372677e+002, 1.203846e+004
6.377498e+002, 1.204107e+004
6.382319e+002, 1.204250e+004
6.387141e+002, 1.204255e+004
6.391962e+002, 1.204131e+004
6.396783e+002, 1.203897e+004
6.401604e+002, 1.203556e+004
6.406425e+002, 1.203119e+004
6.411246e+002, 1.202610e+004
6.416068e+002, 1.202048e+004
6.420889e+002, 1.201442e+004
6.425710e+002, 1.200849e+004
6.430531e+002, 1.200344e+004
6.435352e+002, 1.199977e+004
6.440173e+002, 1.199721e+004
6.444995e+002, 1.199568e+004
6.449816e+002, 1.199528e+004
6.454637e+002, 1.199606e+004
6.459458e+002, 1.199795e+004
6.464279e+002, 1.200071e+004
6.469100e+002, 1.200410e+004
6.473922e+002, 1.200787e+004
6.478743e+002, 1.201158e+004
6.483564e+002, 1.201494e+004
6.488385e+002, 1.201791e+004
6.493206e+002, 1.202036e+004
6.498027e+002, 1.202218e+004
6.502849e+002, 1.202336e+004
6.507670e+002, 1.202395e+004
6.512491e+002, 1.202393e+004
6.517312e+002, 1.202340e+004
6.522133e+002, 1.202254e+004
6.526954e+002, 1.202149e+004
6.531776e+002, 1.202043e+004
6.536597e+002, 1.201956e+004
6.541418e+002, 1.201898e+004
6.546239e+002, 1.201882e+004
6.551060e+002, 1.201916e+004
6.555881e+002, 1.201990e+004
6.560703e+002, 1.202126e+004
6.565524e+002, 1.202330e+004
6.570345e+002, 1.202564e+004
6.575166e+002, 1.202785e+004
6.579987e+002, 1.202961e+004
6.584808e+002, 1.203110e+004
6.589630e+002, 1.203226e+004
6.594451e+002, 1.203282e+004
6.599272e+002, 1.203239e+004
6.604093e+002, 1.203099e+004
6.608914e+002, 1.202891e+004
6.613735e+002, 1.202643e+004
6.618557e+002, 1.202365e+004
6.623378e+002, 1.202047e+004
6.628199e+002, 1.201725e+004
6.633020e+002, 1.201463e+004
6.637841e+002, 1.201313e+004
6.642662e+002, 1.201277e+004
6.647484e+002, 1.201362e+004
6.652305e+002, 1.201584e+004
6.657126e+002, 1.201960e+004
6.661947e+002, 1.202490e+004
6.666768e+002, 1.203179e+004
6.671589e+002, 1.204014e+004
6.676411e+002, 1.204981e+004
6.681232e+002, 1.205974e+004
6.686053e+002, 1.206948e+004
6.690874e+002, 1.207877e+004
6.695695e+002, 1.208727e+004
6.700516e+002, 1.209460e+004
6.705338e+002, 1.210069e+004
6.710159e+002, 1.210530e+004
6.714980e+002, 1.210805e+004
6.719801e+002, 1.210866e+004
6.724622e+002, 1.210705e+004
6.729443e+002, 1.210314e+004
6.734265e+002, 1.209686e+004
6.739086e+002, 1.208900e+004
6.743907e+002, 1.208029e+004
6.748728e+002, 1.207094e+004
6.753549e+002, 1.206123e+004
6.758370e+002, 1.205166e+004
6.763192e+002, 1.204239e+004
6.768013e+002, 1.203373e+004
6.772834e+002, 1.202614e+004
6.777655e+002, 1.202078e+004
6.782476e+002, 1.201812e+004
6.787297e+002, 1.201727e+004
6.792119e+002, 1.201776e+004
6.796940e+002, 1.201962e+004
6.801761e+002, 1.202350e+004
6.806582e+002, 1.202917e+004
6.811403e+002, 1.203587e+004
6.816224e+002, 1.204295e+004
6.821046e+002, 1.205015e+004
6.825867e+002, 1.205717e+004
6.830688e+002, 1.206369e+004
6.835509e+002, 1.206953e+004
6.840330e+002, 1.207462e+004
6.845151e+002, 1.207865e+004
6.849973e+002, 1.208153e+004
6.854794e+002, 1.208324e+004
6.859615e+002, 1.208386e+004
6.864436e+002, 1.208356e+004
6.869257e+002, 1.208239e+004
6.874078e+002, 1.208051e+004
6.878900e+002, 1.207833e+004
6.883721e+002, 1.207482e+004
6.888542e+002, 1.206966e+004
6.893363e+002, 1.206433e+004
6.898184e+002, 1.206137e+004
6.903005e+002, 1.206064e+004
6.907827e+002, 1.205984e+004
6.912648e+002, 1.205823e+004
6.917469e+002, 1.205650e+004
6.922290e+002, 1.205541e+004
6.927111e+002, 1.205473e+004
6.931932e+002, 1.205408e+004
6.936754e+002, 1.205321e+004
6.941575e+002, 1.205214e+004
6.946396e+002, 1.205092e+004
6.951217e+002, 1.204942e+004
6.956038e+002, 1.204730e+004
6.960859e+002, 1.204420e+004
6.965681e+002, 1.204085e+004
6.970502e+002, 1.203755e+004
6.975323e+002, 1.203429e+004
6.980144e+002, 1.203043e+004
6.984965e+002, 1.202603e+004
6.989786e+002, 1.202155e+004
6.994608e+002, 1.201735e+004
6.999429e+002, 1.201356e+004
7.004250e+002, 1.201022e+004
7.009071e+002, 1.200748e+004
7.013892e+002, 1.200580e+004
7.018713e+002, 1.200557e+004
7.023535e+002, 1.200666e+004
7.028356e+002, 1.200903e+004
7.033177e+002, 1.201272e+004
7.037998e+002, 1.201706e+004
7.042819e+002, 1.202156e+004
7.047640e+002, 1.202654e+004
7.052462e+002, 1.203219e+004
7.057283e+002, 1.203816e+004
7.062104e+002, 1.204460e+004
7.066925e+002, 1.205139e+004
7.071746e+002, 1.205804e+004
7.076567e+002, 1.206404e+004
7.081389e+002, 1.206914e+004
7.086210e+002, 1.207359e+004
7.091031e+002, 1.207739e+004
7.095852e+002, 1.208017e+004
7.100673e+002, 1.208134e+004
7.105494e+002, 1.208111e+004
7.110316e+002, 1.208008e+004
7.115137e+002, 1.207864e+004
7.119958e+002, 1.207646e+004
7.124779e+002, 1.207345e+004
7.129600e+002, 1.206983e+004
7.134421e+002, 1.206593e+004
7.139243e+002, 1.206174e+004
7.144064e+002, 1.205798e+004
7.148885e+002, 1.205502e+004
7.153706e+002, 1.205286e+004
7.158527e+002, 1.205136e+004
7.163348e+002, 1.205054e+004
7.168170e+002, 1.205044e+004
7.172991e+002, 1.205118e+004
7.177812e+002, 1.205248e+004
7.182633e+002, 1.205347e+004
7.187454e+002, 1.205409e+004
7.192275e+002, 1.205487e+004
7.197097e+002, 1.205614e+004
7.201918e+002, 1.205743e+004
7.206739e+002, 1.205824e+004
7.211560e+002, 1.205849e+004
7.216381e+002, 1.205838e+004
7.221202e+002, 1.205817e+004
7.226024e+002, 1.205747e+004
7.230845e+002, 1.205612e+004
7.235666e+002, 1.205417e+004
7.240487e+002, 1.205193e+004
7.245308e+002, 1.204939e+004
7.250129e+002, 1.204702e+004
7.254951e+002, 1.204520e+004
7.259772e+002, 1.204404e+004
7.264593e+002, 1.204310e+004
7.269414e+002, 1.204239e+004
7.274235e+002, 1.204226e+004
7.279056e+002, 1.204304e+004
7.283878e+002, 1.204460e+004
7.288699e+002, 1.204662e+004
7.293520e+002, 1.204908e+004
7.298341e+002, 1.205194e+004
7.303162e+002, 1.205508e+004
7.307983e+002, 1.205857e+004
7.312805e+002, 1.206245e+004
7.317626e+002, 1.206671e+004
7.322447e+002, 1.207124e+004
7.327268e+002, 1.207580e+004
7.332089e+002, 1.208058e+004
7.336910e+002, 1.208583e+004
7.341732e+002, 1.209158e+004
7.346553e+002, 1.209697e+004
7.351374e+002, 1.210174e+004
7.356195e+002, 1.210598e+004
7.361016e+002, 1.210974e+004
7.365837e+002, 1.211294e+004
7.370659e+002, 1.211564e+004
7.375480e+002, 1.211783e+004
7.380301e+002, 1.211920e+004
7.385122e+002, 1.211955e+004
7.389943e+002, 1.211885e+004
7.394764e+002, 1.211709e+004
7.399586e+002, 1.211440e+004
7.404407e+002, 1.211073e+004
7.409228e+002, 1.210612e+004
7.414049e+002, 1.210082e+004
7.418870e+002, 1.209492e+004
7.423691e+002, 1.208857e+004
7.428513e+002, 1.208262e+004
7.433334e+002, 1.207770e+004
7.438155e+002, 1.207348e+004
7.442976e+002, 1.206848e+004
7.447797e+002, 1.206299e+004
7.452618e+002, 1.205873e+004
7.457440e+002, 1.205686e+004
7.462261e+002, 1.205645e+004
7.467082e+002, 1.205656e+004
7.471903e+002, 1.205714e+004
7.476724e+002, 1.205815e+004
7.481545e+002, 1.205935e+004
7.486367e+002, 1.206091e+004
7.491188e+002, 1.206285e+004
7.496009e+002, 1.206508e+004
7.500830e+002, 1.206722e+004
7.505651e+002, 1.206915e+004
7.510472e+002, 1.207110e+004
7.515294e+002, 1.207318e+004
7.520115e+002, 1.207537e+004
7.524936e+002, 1.207720e+004
7.529757e+002, 1.207873e+004
7.534578e+002, 1.208040e+004
7.539399e+002, 1.208258e+004
7.544221e+002, 1.208512e+004
7.549042e+002, 1.208784e+004
7.553863e+002, 1.209075e+004
7.558684e+002, 1.209364e+004
7.563505e+002, 1.209655e+004
7.568326e+002, 1.209921e+004
7.573148e+002, 1.210114e+004
7.577969e+002, 1.210190e+004
7.582790e+002, 1.210371e+004
7.587611e+002, 1.210707e+004
7.592432e+002, 1.211030e+004
7.597253e+002, 1.211232e+004
7.602075e+002, 1.211308e+004
7.606896e+002, 1.211312e+004
7.611717e+002, 1.211245e+004
7.616538e+002, 1.211094e+004
7.621359e+002, 1.210842e+004
7.626180e+002, 1.210516e+004
7.631002e+002, 1.210162e+004
7.635823e+002, 1.209799e+004
7.640644e+002, 1.209434e+004
7.645465e+002, 1.209091e+004
7.650286e+002, 1.208758e+004
7.655107e+002, 1.208427e+004
7.659929e+002, 1.208071e+004
7.664750e+002, 1.207808e+004
7.669571e+002, 1.207657e+004
7.674392e+002, 1.207582e+004
7.679213e+002, 1.207556e+004
7.684034e+002, 1.207574e+004
7.688856e+002, 1.207588e+004
7.693677e+002, 1.207577e+004
7.698498e+002, 1.207576e+004
7.703319e+002, 1.207632e+004
7.708140e+002, 1.207709e+004
7.712961e+002, 1.207764e+004
7.717783e+002, 1.207784e+004
7.722604e+002, 1.207762e+004
7.727425e+002, 1.207685e+004
7.732246e+002, 1.207570e+004
7.737067e+002, 1.207434e+004
7.741888e+002, 1.207289e+004
7.746710e+002, 1.207124e+004
7.751531e+002, 1.206940e+004
7.756352e+002, 1.206760e+004
7.761173e+002, 1.206616e+004
7.765994e+002, 1.206518e+004
7.770815e+002, 1.206431e+004
7.775637e+002, 1.206355e+004
7.780458e+002, 1.206318e+004
7.785279e+002, 1.206348e+004
7.790100e+002, 1.206444e+004
7.794921e+002, 1.206590e+004
7.799742e+002, 1.206763e+004
7.804564e+002, 1.207014e+004
7.809385e+002, 1.207400e+004
7.814206e+002, 1.207845e+004
7.819027e+002, 1.208250e+004
7.823848e+002, 1.208543e+004
7.828669e+002, 1.208858e+004
7.833491e+002, 1.209198e+004
7.838312e+002, 1.209539e+004
7.843133e+002, 1.209862e+004
7.847954e+002, 1.210154e+004
7.852775e+002, 1.210351e+004
7.857596e+002, 1.210421e+004
7.862418e+002, 1.210418e+004
7.867239e+002, 1.210426e+004
7.872060e+002, 1.210415e+004
7.876881e+002, 1.210328e+004
7.881702e+002, 1.210142e+004
7.886523e+002, 1.209918e+004
7.891345e+002, 1.209678e+004
7.896166e+002, 1.209446e+004
7.900987e+002, 1.209248e+004
7.905808e+002, 1.209106e+004
7.910629e+002, 1.209018e+004
7.915450e+002, 1.209004e+004
7.920272e+002, 1.209062e+004
7.925093e+002, 1.209169e+004
7.929914e+002, 1.209337e+004
7.934735e+002, 1.209612e+004
7.939556e+002, 1.210013e+004
7.944377e+002, 1.210497e+004
7.949199e+002, 1.211008e+004
7.954020e+002, 1.211550e+004
7.958841e+002, 1.212122e+004
7.963662e+002, 1.212746e+004
7.968483e+002, 1.213308e+004
7.973304e+002, 1.213722e+004
7.978126e+002, 1.214012e+004
7.982947e+002, 1.214242e+004
7.987768e+002, 1.214422e+004
7.992589e+002, 1.214427e+004
7.997410e+002, 1.214223e+004
8.002231e+002, 1.213852e+004
8.007053e+002, 1.213400e+004
8.011874e+002, 1.212877e+004
8.016695e+002, 1.212239e+004
8.021516e+002, 1.211475e+004
8.026337e+002, 1.210704e+004
8.031158e+002, 1.210041e+004
8.035980e+002, 1.209493e+004
8.040801e+002, 1.209023e+004
8.045622e+002, 1.208650e+004
8.050443e+002, 1.208389e+004
8.055264e+002, 1.208231e+004
8.060085e+002, 1.208195e+004
8.064907e+002, 1.208307e+004
8.069728e+002, 1.208560e+004
8.074549e+002, 1.208896e+004
8.079370e+002, 1.209274e+004
8.084191e+002, 1.209702e+004
8.089012e+002, 1.210246e+004
8.093834e+002, 1.210838e+004
8.098655e+002, 1.211331e+004
8.103476e+002, 1.211568e+004
8.108297e+002, 1.211799e+004
8.113118e+002, 1.212234e+004
8.117939e+002, 1.212736e+004
8.122761e+002, 1.213078e+004
8.127582e+002, 1.213179e+004
8.132403e+002, 1.213215e+004
8.137224e+002, 1.213202e+004
8.142045e+002, 1.213167e+004
8.146866e+002, 1.213160e+004
8.151688e+002, 1.213192e+004
8.156509e+002, 1.213207e+004
8.161330e+002, 1.213197e+004
8.166151e+002, 1.213183e+004
8.170972e+002, 1.213179e+004
8.175793e+002, 1.213196e+004
8.180615e+002, 1.213248e+004
8.185436e+002, 1.213331e+004
8.190257e+002, 1.213449e+004
8.195078e+002, 1.213607e+004
8.199899e+002, 1.213783e+004
8.204720e+002, 1.213945e+004
8.209542e+002, 1.214083e+004
8.214363e+002, 1.214192e+004
8.219184e+002, 1.214267e+004
8.224005e+002, 1.214297e+004
8.228826e+002, 1.214278e+004
8.233647e+002, 1.214209e+004
8.238469e+002, 1.214099e+004
8.243290e+002, 1.213953e+004
8.248111e+002, 1.213796e+004
8.252932e+002, 1.213658e+004
8.257753e+002, 1.213545e+004
8.262574e+002, 1.213461e+004
8.267396e+002, 1.213425e+004
8.272217e+002, 1.213456e+004
8.277038e+002, 1.213546e+004
8.281859e+002, 1.213747e+004
8.286681e+002, 1.214129e+004
8.291502e+002, 1.214699e+004
8.296323e+002, 1.215328e+004
8.301144e+002, 1.215973e+004
8.305966e+002, 1.216664e+004
8.310787e+002, 1.217447e+004
8.315608e+002, 1.218270e+004
8.320429e+002, 1.219080e+004
8.325250e+002, 1.219838e+004
8.330071e+002, 1.220500e+004
8.334893e+002, 1.221025e+004
8.339714e+002, 1.221419e+004
8.344535e+002, 1.221701e+004
8.349356e+002, 1.221909e+004
8.354177e+002, 1.221973e+004
8.358998e+002, 1.221906e+004
8.363820e+002, 1.221754e+004
8.368641e+002, 1.221567e+004
8.373462e+002, 1.221375e+004
8.378283e+002, 1.221180e+004
8.383104e+002, 1.221005e+004
8.387925e+002, 1.220909e+004
8.392747e+002, 1.220959e+004
8.397568e+002, 1.221118e+004
8.402389e+002, 1.221333e+004
8.407210e+002, 1.221577e+004
8.412031e+002, 1.221880e+004
8.416852e+002, 1.222221e+004
8.421674e+002, 1.222563e+004
8.426495e+002, 1.222873e+004
8.431316e+002, 1.223119e+004
8.436137e+002, 1.223269e+004
8.440958e+002, 1.223304e+004
8.445779e+002, 1.223212e+004
8.450601e+002, 1.222984e+004
8.455422e+002, 1.222638e+004
8.460243e+002, 1.222191e+004
8.465064e+002, 1.221667e+004
8.469885e+002, 1.221113e+004
8.474706e+002, 1.220595e+004
8.479528e+002, 1.220092e+004
8.484349e+002, 1.219600e+004
8.489170e+002, 1.219141e+004
8.493991e+002, 1.218801e+004
8.498812e+002, 1.218592e+004
8.503633e+002, 1.218531e+004
8.508455e+002, 1.218642e+004
8.513276e+002, 1.218903e+004
8.518097e+002, 1.219205e+004
8.522918e+002, 1.219532e+004
8.527739e+002, 1.219908e+004
8.532560e+002, 1.220333e+004
8.537382e+002, 1.220766e+004
8.542203e+002, 1.221185e+004
8.547024e+002, 1.221564e+004
8.551845e+002, 1.221845e+004
8.556666e+002, 1.221987e+004
8.561487e+002, 1.222024e+004
8.566309e+002, 1.221954e+004
8.571130e+002, 1.221793e+004
8.575951e+002, 1.221603e+004
8.580772e+002, 1.221403e+004
8.585593e+002, 1.221143e+004
8.590414e+002, 1.220797e+004
8.595236e+002, 1.220426e+004
8.600057e+002, 1.220096e+004
8.604878e+002, 1.219830e+004
8.609699e+002, 1.219653e+004
8.614520e+002, 1.219624e+004
8.619341e+002, 1.219647e+004
8.624163e+002, 1.219670e+004
8.628984e+002, 1.219711e+004
8.633805e+002, 1.219832e+004
8.638626e+002, 1.220031e+004
8.643447e+002, 1.220242e+004
8.648268e+002, 1.220435e+004
8.653090e+002, 1.220610e+004
8.657911e+002, 1.220764e+004
8.662732e+002, 1.220890e+004
8.667553e+002, 1.220992e+004
8.672374e+002, 1.221089e+004
8.677195e+002, 1.221115e+004
8.682017e+002, 1.221018e+004
8.686838e+002, 1.220829e+004
8.691659e+002, 1.220598e+004
8.696480e+002, 1.220346e+004
8.701301e+002, 1.220057e+004
8.706122e+002, 1.219743e+004
8.710944e+002, 1.219401e+004
8.715765e+002, 1.219029e+004
8.720586e+002, 1.218635e+004
8.725407e+002, 1.218218e+004
8.730228e+002, 1.217778e+004
8.735049e+002, 1.217368e+004
8.739871e+002, 1.217040e+004
8.744692e+002, 1.216775e+004
8.749513e+002, 1.216554e+004
8.754334e+002, 1.216379e+004
8.759155e+002, 1.216240e+004
8.763976e+002, 1.216111e+004
8.768798e+002, 1.216031e+004
8.773619e+002, 1.216042e+004
8.778440e+002, 1.216141e+004
8.783261e+002, 1.216229e+004
8.788082e+002, 1.216297e+004
8.792903e+002, 1.216386e+004
8.797725e+002, 1.216532e+004
8.802546e+002, 1.216717e+004
8.807367e+002, 1.216925e+004
8.812188e+002, 1.217151e+004
8.817009e+002, 1.217400e+004
8.821830e+002, 1.217672e+004
8.826652e+002, 1.217973e+004
8.831473e+002, 1.218307e+004
8.836294e+002, 1.218675e+004
8.841115e+002, 1.219043e+004
8.845936e+002, 1.219409e+004
8.850757e+002, 1.219765e+004
8.855579e+002, 1.220087e+004
8.860400e+002, 1.220392e+004
8.865221e+002, 1.220723e+004
8.870042e+002, 1.221061e+004
8.874863e+002, 1.221366e+004
8.879684e+002, 1.221620e+004
8.884506e+002, 1.221811e+004
8.889327e+002, 1.221924e+004
8.894148e+002, 1.221960e+004
8.898969e+002, 1.221944e+004
8.903790e+002, 1.221892e+004
8.908611e+002, 1.221724e+004
8.913433e+002, 1.221395e+004
8.918254e+002, 1.220990e+004
8.923075e+002, 1.220680e+004
8.927896e+002, 1.220435e+004
8.932717e+002, 1.220145e+004
8.937538e+002, 1.219767e+004
8.942360e+002, 1.219377e+004
8.947181e+002, 1.219016e+004
8.952002e+002, 1.218700e+004
8.956823e+002, 1.218452e+004
8.961644e+002, 1.218302e+004
8.966465e+002, 1.218189e+004
8.971287e+002, 1.218114e+004
8.976108e+002, 1.218088e+004
8.980929e+002, 1.218113e+004
8.985750e+002, 1.218196e+004
8.990571e+002, 1.218370e+004
8.995392e+002, 1.218638e+004
9.000214e+002, 1.218958e+004
9.005035e+002, 1.219287e+004
9.009856e+002, 1.219638e+004
9.014677e+002, 1.220023e+004
9.019498e+002, 1.220428e+004
9.024319e+002, 1.220813e+004
9.029141e+002, 1.221175e+004
9.033962e+002, 1.221479e+004
9.038783e+002, 1.221698e+004
9.043604e+002, 1.221830e+004
9.048425e+002, 1.221916e+004
9.053246e+002, 1.221951e+004
9.058068e+002, 1.221933e+004
9.062889e+002, 1.221882e+004
9.067710e+002, 1.221773e+004
9.072531e+002, 1.221593e+004
9.077352e+002, 1.221353e+004
9.082173e+002, 1.221073e+004
9.086995e+002, 1.220766e+004
9.091816e+002, 1.220448e+004
9.096637e+002, 1.220123e+004
9.101458e+002, 1.219819e+004
9.106279e+002, 1.219625e+004
9.111100e+002, 1.219536e+004
9.115922e+002, 1.219462e+004
9.120743e+002, 1.219349e+004
9.125564e+002, 1.219264e+004
9.130385e+002, 1.219272e+004
9.135206e+002, 1.219351e+004
9.140027e+002, 1.219463e+004
9.144849e+002, 1.219597e+004
9.149670e+002, 1.219755e+004
9.154491e+002, 1.219929e+004
9.159312e+002, 1.220116e+004
9.164133e+002, 1.220308e+004
9.168954e+002, 1.220500e+004
9.173776e+002, 1.220711e+004
9.178597e+002, 1.220938e+004
9.183418e+002, 1.221150e+004
9.188239e+002, 1.221314e+004
9.193060e+002, 1.221437e+004
9.197881e+002, 1.221528e+004
9.202703e+002, 1.221590e+004
9.207524e+002, 1.221578e+004
9.212345e+002, 1.221468e+004
9.217166e+002, 1.221304e+004
9.221987e+002, 1.221112e+004
9.226808e+002, 1.220899e+004
9.231630e+002, 1.220671e+004
9.236451e+002, 1.220444e+004
9.241272e+002, 1.220230e+004
9.246093e+002, 1.220061e+004
9.250914e+002, 1.219924e+004
9.255735e+002, 1.219809e+004
9.260557e+002, 1.219729e+004
9.265378e+002, 1.219691e+004
9.270199e+002, 1.219621e+004
9.275020e+002, 1.219707e+004
9.279841e+002, 1.220012e+004
9.284662e+002, 1.220468e+004
9.289484e+002, 1.220918e+004
9.294305e+002, 1.221347e+004
9.299126e+002, 1.221771e+004
9.303947e+002, 1.222173e+004
9.308768e+002, 1.222538e+004
9.313589e+002, 1.222823e+004
9.318411e+002, 1.223048e+004
9.323232e+002, 1.223246e+004
9.328053e+002, 1.223440e+004
9.332874e+002, 1.223592e+004
9.337695e+002, 1.223725e+004
9.342516e+002, 1.223823e+004
9.347338e+002, 1.223873e+004
9.352159e+002, 1.223888e+004
9.356980e+002, 1.223905e+004
9.361801e+002, 1.223934e+004
9.366622e+002, 1.224027e+004
9.371443e+002, 1.224256e+004
9.376265e+002, 1.224550e+004
9.381086e+002, 1.224824e+004
9.385907e+002, 1.225065e+004
9.390728e+002, 1.225313e+004
9.395549e+002, 1.225558e+004
9.400370e+002, 1.225777e+004
9.405192e+002, 1.225946e+004
9.410013e+002, 1.226056e+004
9.414834e+002, 1.226122e+004
9.419655e+002, 1.226136e+004
9.424476e+002, 1.226053e+004
9.429297e+002, 1.225836e+004
9.434119e+002, 1.225550e+004
9.438940e+002, 1.225249e+004
9.443761e+002, 1.224949e+004
9.448582e+002, 1.224661e+004
9.453403e+002, 1.224419e+004
9.458224e+002, 1.224209e+004
9.463046e+002, 1.224046e+004
9.467867e+002, 1.223935e+004
9.472688e+002, 1.223875e+004
9.477509e+002, 1.223866e+004
9.482330e+002, 1.223921e+004
9.487151e+002, 1.224035e+004
9.491973e+002, 1.224185e+004
9.496794e+002, 1.224353e+004
9.501615e+002, 1.224521e+004
9.506436e+002, 1.224665e+004
9.511257e+002, 1.224761e+004
9.516078e+002, 1.224853e+004
9.520900e+002, 1.224954e+004
9.525721e+002, 1.225010e+004
9.530542e+002, 1.224994e+004
9.535363e+002, 1.224920e+004
9.540184e+002, 1.224813e+004
9.545005e+002, 1.224691e+004
9.549827e+002, 1.224591e+004
9.554648e+002, 1.224539e+004
9.559469e+002, 1.224540e+004
9.564290e+002, 1.224619e+004
9.569111e+002, 1.224768e+004
9.573932e+002, 1.224939e+004
9.578754e+002, 1.225098e+004
9.583575e+002, 1.225340e+004
9.588396e+002, 1.225676e+004
9.593217e+002, 1.226065e+004
9.598038e+002, 1.226444e+004
9.602859e+002, 1.226804e+004
9.607681e+002, 1.227146e+004
9.612502e+002, 1.227463e+004
9.617323e+002, 1.227721e+004
9.622144e+002, 1.227902e+004
9.626965e+002, 1.228004e+004
9.631786e+002, 1.228021e+004
9.636608e+002, 1.227944e+004
9.641429e+002, 1.227901e+004
9.646250e+002, 1.227913e+004
9.651071e+002, 1.227940e+004
9.655892e+002, 1.227986e+004
9.660714e+002, 1.228029e+004
9.665535e+002, 1.227994e+004
9.670356e+002, 1.227904e+004
9.675177e+002, 1.227848e+004
9.679998e+002, 1.227896e+004
9.684819e+002, 1.227953e+004
9.689641e+002, 1.227970e+004
9.694462e+002, 1.227969e+004
9.699283e+002, 1.228008e+004
9.704104e+002, 1.228091e+004
9.708925e+002, 1.228161e+004
9.713746e+002, 1.228204e+004
9.718568e+002, 1.228251e+004
9.723389e+002, 1.228346e+004
9.728210e+002, 1.228475e+004
9.733031e+002, 1.228613e+004
9.737852e+002, 1.228753e+004
9.742673e+002, 1.228912e+004
9.747495e+002, 1.229102e+004
9.752316e+002, 1.229292e+004
9.757137e+002, 1.229449e+004
9.761958e+002, 1.229566e+004
9.766779e+002, 1.229694e+004
9.771600e+002, 1.229826e+004
9.776422e+002, 1.229968e+004
9.781243e+002, 1.230176e+004
9.786064e+002, 1.230346e+004
9.790885e+002, 1.230383e+004
9.795706e+002, 1.230299e+004
9.800527e+002, 1.230159e+004
9.805349e+002, 1.229960e+004
9.810170e+002, 1.229757e+004
9.814991e+002, 1.229576e+004
9.819812e+002, 1.229404e+004
9.824633e+002, 1.229209e+004
9.829454e+002, 1.229002e+004
9.834276e+002, 1.228797e+004
9.839097e+002, 1.228594e+004
9.843918e+002, 1.228426e+004
9.848739e+002, 1.228321e+004
9.853560e+002, 1.228255e+004
9.858381e+002, 1.228200e+004
9.863203e+002, 1.228143e+004
9.868024e+002, 1.228141e+004
9.872845e+002, 1.228204e+004
9.877666e+002, 1.228290e+004
9.882487e+002, 1.228347e+004
9.887308e+002, 1.228410e+004
9.892130e+002, 1.228564e+004
9.896951e+002, 1.228798e+004
9.901772e+002, 1.229069e+004
9.906593e+002, 1.229368e+004
9.911414e+002, 1.229678e+004
9.916235e+002, 1.229977e+004
9.921057e+002, 1.230276e+004
9.925878e+002, 1.230605e+004
9.930699e+002, 1.230961e+004
9.935520e+002, 1.231337e+004
9.940341e+002, 1.231737e+004
9.945162e+002, 1.232104e+004
9.949984e+002, 1.232340e+004
9.954805e+002, 1.232503e+004
9.959626e+002, 1.232685e+004
9.964447e+002, 1.232919e+004
9.969268e+002, 1.233088e+004
9.974089e+002, 1.233189e+004
9.978911e+002, 1.233215e+004
9.983732e+002, 1.233159e+004
9.988553e+002, 1.233035e+004
9.993374e+002, 1.232893e+004
9.998195e+002, 1.232741e+004
1.000302e+003, 1.232592e+004
1.000784e+003, 1.232431e+004
1.001266e+003, 1.232312e+004
1.001748e+003, 1.232282e+004
1.002230e+003, 1.232330e+004
1.002712e+003, 1.232418e+004
1.003194e+003, 1.232570e+004
1.003676e+003, 1.232693e+004
1.004159e+003, 1.232757e+004
1.004641e+003, 1.232815e+004
1.005123e+003, 1.232938e+004
1.005605e+003, 1.233093e+004
1.006087e+003, 1.233210e+004
1.006569e+003, 1.233268e+004
1.007051e+003, 1.233298e+004
1.007533e+003, 1.233316e+004
1.008016e+003, 1.233299e+004
1.008498e+003, 1.233240e+004
1.008980e+003, 1.233135e+004
1.009462e+003, 1.232965e+004
1.009944e+003, 1.232728e+004
1.010426e+003, 1.232401e+004
1.010908e+003, 1.231945e+004
1.011390e+003, 1.231449e+004
1.011872e+003, 1.231013e+004
1.012355e+003, 1.230628e+004
1.012837e+003, 1.230262e+004
1.013319e+003, 1.229951e+004
1.013801e+003, 1.229617e+004
1.014283e+003, 1.229252e+004
1.014765e+003, 1.228893e+004
1.015247e+003, 1.228566e+004
1.015729e+003, 1.228275e+004
1.016211e+003, 1.228044e+004
1.016694e+003, 1.227878e+004
1.017176e+003, 1.227688e+004
1.017658e+003, 1.227276e+004
1.018140e+003, 1.226944e+004
1.018622e+003, 1.226949e+004
1.019104e+003, 1.227255e+004
1.019586e+003, 1.227492e+004
1.020068e+003, 1.227631e+004
1.020551e+003, 1.227781e+004
1.021033e+003, 1.227971e+004
1.021515e+003, 1.228188e+004
1.021997e+003, 1.228414e+004
1.022479e+003, 1.228641e+004
1.022961e+003, 1.228850e+004
1.023443e+003, 1.229015e+004
1.023925e+003, 1.229193e+004
1.024407e+003, 1.229404e+004
1.024890e+003, 1.229618e+004
1.025372e+003, 1.229816e+004
1.025854e+003, 1.229994e+004
1.026336e+003, 1.230157e+004
1.026818e+003, 1.230305e+004
1.027300e+003, 1.230439e+004
1.027782e+003, 1.230578e+004
1.028264e+003, 1.230697e+004
1.028746e+003, 1.230775e+004
1.029229e+003, 1.230822e+004
1.029711e+003, 1.230864e+004
1.030193e+003, 1.230902e+004
1.030675e+003, 1.230954e+004
1.031157e+003, 1.231024e+004
1.031639e+003, 1.231114e+004
1.032121e+003, 1.231244e+004
1.032603e+003, 1.231392e+004
1.033086e+003, 1.231506e+004
1.033568e+003, 1.231571e+004
1.034050e+003, 1.231633e+004
1.034532e+003, 1.231717e+004
1.035014e+003, 1.231786e+004
1.035496e+003, 1.231815e+004
1.035978e+003, 1.231800e+004
1.036460e+003, 1.231775e+004
1.036943e+003, 1.231737e+004
1.037425e+003, 1.231680e+004
1.037907e+003, 1.231616e+004
1.038389e+003, 1.231525e+004
1.038871e+003, 1.231395e+004
1.039353e+003, 1.231235e+004
1.039835e+003, 1.231059e+004
1.040317e+003, 1.230871e+004
1.040799e+003, 1.230678e+004
1.041281e+003, 1.230467e+004
1.041764e+003, 1.230286e+004
1.042246e+003, 1.230199e+004
1.042728e+003, 1.230166e+004
1.043210e+003, 1.230099e+004
1.043692e+003, 1.229988e+004
1.044174e+003, 1.229826e+004
1.044656e+003, 1.229546e+004
1.045138e+003, 1.229275e+004
1.045621e+003, 1.229077e+004
1.046103e+003, 1.228922e+004
1.046585e+003, 1.228731e+004
1.047067e+003, 1.228514e+004
1.047549e+003, 1.228284e+004
1.048031e+003, 1.228059e+004
1.048513e+003, 1.227854e+004
1.048995e+003, 1.227677e+004
1.049478e+003, 1.227557e+004
1.049960e+003, 1.227532e+004
1.050442e+003, 1.227638e+004
1.050924e+003, 1.227769e+004
1.051406e+003, 1.227880e+004
1.051888e+003, 1.228119e+004
1.052370e+003, 1.228584e+004
1.052852e+003, 1.229204e+004
1.053334e+003, 1.229827e+004
1.053817e+003, 1.230437e+004
1.054299e+003, 1.231026e+004
1.054781e+003, 1.231579e+004
1.055263e+003, 1.232067e+004
1.055745e+003, 1.232445e+004
1.056227e+003, 1.232737e+004
1.056709e+003, 1.232967e+004
1.057191e+003, 1.233128e+004
1.057673e+003, 1.233243e+004
1.058156e+003, 1.233322e+004
1.058638e+003, 1.233288e+004
1.059120e+003, 1.233053e+004
1.059602e+003, 1.232725e+004
1.060084e+003, 1.232384e+004
1.060566e+003, 1.232053e+004
1.061048e+003, 1.231759e+004
1.061530e+003, 1.231548e+004
1.062013e+003, 1.231320e+004
1.062495e+003, 1.231052e+004
1.062977e+003, 1.230799e+004
1.063459e+003, 1.230627e+004
1.063941e+003, 1.230539e+004
1.064423e+003, 1.230527e+004
1.064905e+003, 1.230588e+004
1.065387e+003, 1.230718e+004
1.065870e+003, 1.230895e+004
1.066352e+003, 1.231135e+004
1.066834e+003, 1.231452e+004
1.067316e+003, 1.231822e+004
1.067798e+003, 1.232186e+004
1.068280e+003, 1.232531e+004
1.068762e+003, 1.232831e+004
1.069244e+003, 1.233021e+004
1.069726e+003, 1.233199e+004
1.070208e+003, 1.233451e+004
1.070691e+003, 1.233715e+004
1.071173e+003, 1.233898e+004
1.071655e+003, 1.234003e+004
1.072137e+003, 1.234045e+004
1.072619e+003, 1.234028e+004
1.073101e+003, 1.233978e+004
1.073583e+003, 1.233912e+004
1.074065e+003, 1.233841e+004
1.074548e+003, 1.233755e+004
1.075030e+003, 1.233668e+004
1.075512e+003, 1.233633e+004
1.075994e+003, 1.233723e+004
1.076476e+003, 1.233775e+004
1.076958e+003, 1.233734e+004
1.077440e+003, 1.233667e+004
1.077922e+003, 1.233708e+004
1.078405e+003, 1.233825e+004
1.078887e+003, 1.233907e+004
1.079369e+003, 1.233929e+004
1.079851e+003, 1.233949e+004
1.080333e+003, 1.234000e+004
1.080815e+003, 1.234059e+004
1.081297e+003, 1.234100e+004
1.081779e+003, 1.234128e+004
1.082261e+003, 1.234215e+004
1.082744e+003, 1.234357e+004
1.083226e+003, 1.234488e+004
1.083708e+003, 1.234565e+004
1.084190e+003, 1.234615e+004
1.084672e+003, 1.234693e+004
1.085154e+003, 1.234737e+004
1.085636e+003, 1.234650e+004
1.086118e+003, 1.234341e+004
1.086601e+003, 1.234108e+004
1.087083e+003, 1.233984e+004
1.087565e+003, 1.233837e+004
1.088047e+003, 1.233557e+004
1.088529e+003, 1.233204e+004
1.089011e+003, 1.232860e+004
1.089493e+003, 1.232544e+004
1.089975e+003, 1.232266e+004
1.090458e+003, 1.232077e+004
1.090940e+003, 1.231913e+004
1.091422e+003, 1.231757e+004
1.091904e+003, 1.231650e+004
1.092386e+003, 1.231641e+004
1.092868e+003, 1.231730e+004
1.093350e+003, 1.231911e+004
1.093832e+003, 1.232178e+004
1.094314e+003, 1.232508e+004
1.094797e+003, 1.232887e+004
1.095279e+003, 1.233300e+004
1.095761e+003, 1.233737e+004
1.096243e+003, 1.234181e+004
1.096725e+003, 1.234631e+004
1.097207e+003, 1.235079e+004
1.097689e+003, 1.235520e+004
1.098171e+003, 1.235943e+004
1.098653e+003, 1.236355e+004
1.099136e+003, 1.236779e+004
1.099618e+003, 1.237181e+004
1.100100e+003, 1.237525e+004
1.100582e+003, 1.237786e+004
1.101064e+003, 1.238018e+004
1.101546e+003, 1.238221e+004
1.102028e+003, 1.238343e+004
1.102510e+003, 1.238354e+004
1.102993e+003, 1.238257e+004
1.103475e+003, 1.238054e+004
1.103957e+003, 1.237757e+004
1.104439e+003, 1.237393e+004
1.104921e+003, 1.237016e+004
1.105403e+003, 1.236529e+004
1.105885e+003, 1.235935e+004
1.106367e+003, 1.235273e+004
1.106849e+003, 1.234591e+004
1.107332e+003, 1.233894e+004
1.107814e+003, 1.233172e+004
1.108296e+003, 1.232431e+004
1.108778e+003, 1.231699e+004
1.109260e+003, 1.230988e+004
1.109742e+003, 1.230319e+004
1.110224e+003, 1.229696e+004
1.110706e+003, 1.229149e+004
1.111188e+003, 1.228707e+004
1.111671e+003, 1.228377e+004
1.112153e+003, 1.228144e+004
1.112635e+003, 1.228010e+004
1.113117e+003, 1.228013e+004
1.113599e+003, 1.228177e+004
1.114081e+003, 1.228509e+004
1.114563e+003, 1.229025e+004
1.115045e+003, 1.229720e+004
1.115528e+003, 1.230547e+004
1.116010e+003, 1.231507e+004
1.116492e+003, 1.232520e+004
1.116974e+003, 1.233525e+004
1.117456e+003, 1.234570e+004
1.117938e+003, 1.235719e+004
1.118420e+003, 1.236895e+004
1.118902e+003, 1.238017e+004
1.119385e+003, 1.239038e+004
1.119867e+003, 1.239902e+004
1.120349e+003, 1.240581e+004
1.120831e+003, 1.241060e+004
1.121313e+003, 1.241317e+004
1.121795e+003, 1.241355e+004
1.122277e+003, 1.241205e+004
1.122759e+003, 1.240873e+004
1.123241e+003, 1.240371e+004
1.123724e+003, 1.239733e+004
1.124206e+003, 1.238966e+004
1.124688e+003, 1.238104e+004
1.125170e+003, 1.237218e+004
1.125652e+003, 1.236389e+004
1.126134e+003, 1.235641e+004
1.126616e+003, 1.234949e+004
1.127098e+003, 1.234349e+004
1.127580e+003, 1.233908e+004
1.128063e+003, 1.233680e+004
1.128545e+003, 1.233622e+004
1.129027e+003, 1.233742e+004
1.129509e+003, 1.234004e+004
1.129991e+003, 1.234359e+004
1.130473e+003, 1.234790e+004
1.130955e+003, 1.235335e+004
1.131437e+003, 1.235973e+004
1.131920e+003, 1.236680e+004
1.132402e+003, 1.237482e+004
1.132884e+003, 1.238267e+004
1.133366e+003, 1.238942e+004
1.133848e+003, 1.239517e+004
1.134330e+003, 1.240105e+004
1.134812e+003, 1.240710e+004
1.135294e+003, 1.241246e+004
1.135776e+003, 1.241689e+004
1.136259e+003, 1.242066e+004
1.136741e+003, 1.242389e+004
1.137223e+003, 1.242680e+004
1.137705e+003, 1.242979e+004
1.138187e+003, 1.243291e+004
1.138669e+003, 1.243539e+004
1.139151e+003, 1.243725e+004
1.139633e+003, 1.243847e+004
1.140115e+003, 1.243898e+004
1.140598e+003, 1.243903e+004
1.141080e+003, 1.243904e+004
1.141562e+003, 1.243887e+004
1.142044e+003, 1.243829e+004
1.142526e+003, 1.243726e+004
1.143008e+003, 1.243603e+004
1.143490e+003, 1.243483e+004
1.143972e+003, 1.243337e+004
1.144455e+003, 1.243143e+004
1.144937e+003, 1.242933e+004
1.145419e+003, 1.242760e+004
1.145901e+003, 1.242625e+004
1.146383e+003, 1.242523e+004
1.146865e+003, 1.242473e+004
1.147347e+003, 1.242426e+004
1.147829e+003, 1.242363e+004
1.148312e+003, 1.242313e+004
1.148794e+003, 1.242301e+004
1.149276e+003, 1.242322e+004
1.149758e+003, 1.242353e+004
1.150240e+003, 1.242392e+004
1.150722e+003, 1.242437e+004
1.151204e+003, 1.242465e+004
1.151686e+003, 1.242521e+004
1.152168e+003, 1.242622e+004
1.152651e+003, 1.242754e+004
1.153133e+003, 1.242905e+004
1.153615e+003, 1.243072e+004
1.154097e+003, 1.243260e+004
1.154579e+003, 1.243464e+004
1.155061e+003, 1.243690e+004
1.155543e+003, 1.243949e+004
1.156025e+003, 1.244201e+004
1.156507e+003, 1.244421e+004
1.156990e+003, 1.244607e+004
1.157472e+003, 1.244756e+004
1.157954e+003, 1.244864e+004
1.158436e+003, 1.244947e+004
1.158918e+003, 1.245005e+004
1.159400e+003, 1.245031e+004
1.159882e+003, 1.245021e+004
1.160364e+003, 1.244976e+004
1.160847e+003, 1.244899e+004
1.161329e+003, 1.244788e+004
1.161811e+003, 1.244631e+004
1.162293e+003, 1.244434e+004
1.162775e+003, 1.244160e+004
1.163257e+003, 1.243787e+004
1.163739e+003, 1.243407e+004
1.164221e+003, 1.243132e+004
1.164703e+003, 1.242886e+004
1.165186e+003, 1.242584e+004
1.165668e+003, 1.242230e+004
1.166150e+003, 1.241931e+004
1.166632e+003, 1.241709e+004
1.167114e+003, 1.241529e+004
1.167596e+003, 1.241380e+004
1.168078e+003, 1.241298e+004
1.168560e+003, 1.241337e+004
1.169042e+003, 1.241478e+004
1.169525e+003, 1.241696e+004
1.170007e+003, 1.241994e+004
1.170489e+003, 1.242374e+004
1.170971e+003, 1.242835e+004
1.171453e+003, 1.243347e+004
1.171935e+003, 1.243842e+004
1.172417e+003, 1.244402e+004
1.172899e+003, 1.245211e+004
1.173382e+003, 1.246140e+004
1.173864e+003, 1.246957e+004
1.174346e+003, 1.247557e+004
1.174828e+003, 1.248034e+004
1.175310e+003, 1.248357e+004
1.175792e+003, 1.248570e+004
1.176274e+003, 1.248725e+004
1.176756e+003, 1.248778e+004
1.177239e+003, 1.248650e+004
1.177721e+003, 1.248367e+004
1.178203e+003, 1.247994e+004
1.178685e+003, 1.247614e+004
1.179167e+003, 1.247106e+004
1.179649e+003, 1.246472e+004
1.180131e+003, 1.245801e+004
1.180613e+003, 1.245174e+004
1.181095e+003, 1.244604e+004
1.181578e+003, 1.244084e+004
1.182060e+003, 1.243632e+004
1.182542e+003, 1.243285e+004
1.183024e+003, 1.243076e+004
1.183506e+003, 1.242975e+004
1.183988e+003, 1.242969e+004
1.184470e+003, 1.243071e+004
1.184952e+003, 1.243307e+004
1.185434e+003, 1.243646e+004
1.185917e+003, 1.244015e+004
1.186399e+003, 1.244401e+004
1.186881e+003, 1.244849e+004
1.187363e+003, 1.245410e+004
1.187845e+003, 1.245929e+004
1.188327e+003, 1.246341e+004
1.188809e+003, 1.246688e+004
1.189291e+003, 1.247056e+004
1.189774e+003, 1.247413e+004
1.190256e+003, 1.247701e+004
1.190738e+003, 1.247908e+004
1.191220e+003, 1.248021e+004
1.191702e+003, 1.248039e+004
1.192184e+003, 1.247952e+004
1.192666e+003, 1.247759e+004
1.193148e+003, 1.247485e+004
1.193630e+003, 1.247172e+004
1.194113e+003, 1.246834e+004
1.194595e+003, 1.246473e+004
1.195077e+003, 1.246106e+004
1.195559e+003, 1.245788e+004
1.196041e+003, 1.245574e+004
1.196523e+003, 1.245425e+004
1.197005e+003, 1.245327e+004
1.197487e+003, 1.245278e+004
1.197969e+003, 1.245276e+004
1.198452e+003, 1.245308e+004
1.198934e+003, 1.245353e+004
1.199416e+003, 1.245389e+004
1.199898e+003, 1.245408e+004
1.200380e+003, 1.245389e+004
1.200862e+003, 1.245316e+004
1.201344e+003, 1.245174e+004
1.201826e+003, 1.244962e+004
1.202309e+003, 1.244712e+004
1.202791e+003, 1.244416e+004
1.203273e+003, 1.244046e+004
1.203755e+003, 1.243602e+004
1.204237e+003, 1.243116e+004
1.204719e+003, 1.242617e+004
1.205201e+003, 1.242118e+004
1.205683e+003, 1.241632e+004
1.206166e+003, 1.241183e+004
1.206648e+003, 1.240783e+004
1.207130e+003, 1.240444e+004
1.207612e+003, 1.240175e+004
1.208094e+003, 1.239971e+004
1.208576e+003, 1.239861e+004
1.209058e+003, 1.239877e+004
1.209540e+003, 1.239963e+004
1.210022e+003, 1.240080e+004
1.210505e+003, 1.240223e+004
1.210987e+003, 1.240410e+004
1.211469e+003, 1.240639e+004
1.211951e+003, 1.240920e+004
1.212433e+003, 1.241277e+004
1.212915e+003, 1.241637e+004
1.213397e+003, 1.241967e+004
1.213879e+003, 1.242272e+004
1.214361e+003, 1.242548e+004
1.214844e+003, 1.242789e+004
1.215326e+003, 1.243006e+004
1.215808e+003, 1.243189e+004
1.216290e+003, 1.243322e+004
1.216772e+003, 1.243370e+004
1.217254e+003, 1.243388e+004
1.217736e+003, 1.243391e+004
1.218218e+003, 1.243357e+004
1.218701e+003, 1.243268e+004
1.219183e+003, 1.243119e+004
1.219665e+003, 1.242911e+004
1.220147e+003, 1.242644e+004
1.220629e+003, 1.242301e+004
1.221111e+003, 1.241870e+004
1.221593e+003, 1.241391e+004
1.222075e+003, 1.240883e+004
1.222557e+003, 1.240367e+004
1.223040e+003, 1.239870e+004
1.223522e+003, 1.239397e+004
1.224004e+003, 1.238926e+004
1.224486e+003, 1.238468e+004
1.224968e+003, 1.238055e+004
1.225450e+003, 1.237708e+004
1.225932e+003, 1.237406e+004
1.226414e+003, 1.237128e+004
1.226896e+003, 1.236894e+004
1.227379e+003, 1.236725e+004
1.227861e+003, 1.236609e+004
1.228343e+003, 1.236532e+004
1.228825e+003, 1.236482e+004
1.229307e+003, 1.236443e+004
1.229789e+003, 1.236415e+004
1.230271e+003, 1.236369e+004
1.230753e+003, 1.236308e+004
1.231236e+003, 1.236215e+004
1.231718e+003, 1.236059e+004
1.232200e+003, 1.235870e+004
1.232682e+003, 1.235727e+004
1.233164e+003, 1.235642e+004
1.233646e+003, 1.235580e+004
1.234128e+003, 1.235528e+004
1.234610e+003, 1.235534e+004
1.235093e+003, 1.235614e+004
1.235575e+003, 1.235758e+004
1.236057e+003, 1.235945e+004
1.236539e+003, 1.236183e+004
1.237021e+003, 1.236489e+004
1.237503e+003, 1.236858e+004
1.237985e+003, 1.237287e+004
1.238467e+003, 1.237787e+004
1.238949e+003, 1.238299e+004
1.239432e+003, 1.238804e+004
1.239914e+003, 1.239315e+004
1.240396e+003, 1.239841e+004
1.240878e+003, 1.240375e+004
1.241360e+003, 1.240887e+004
1.241842e+003, 1.241376e+004
1.242324e+003, 1.241869e+004
1.242806e+003, 1.242392e+004
1.243288e+003, 1.242875e+004
1.243771e+003, 1.243316e+004
1.244253e+003, 1.243677e+004
1.244735e+003, 1.243879e+004
1.245217e+003, 1.243991e+004
1.245699e+003, 1.244127e+004
1.246181e+003, 1.244293e+004
1.246663e+003, 1.244418e+004
1.247145e+003, 1.244507e+004
1.247628e+003, 1.244539e+004
1.248110e+003, 1.244511e+004
1.248592e+003, 1.244446e+004
1.249074e+003, 1.244378e+004
1.249556e+003, 1.244294e+004
1.250038e+003, 1.244183e+004
1.250520e+003, 1.244047e+004
1.251002e+003, 1.243842e+004
1.251484e+003, 1.243532e+004
1.251967e+003, 1.243361e+004
1.252449e+003, 1.243411e+004
1.252931e+003, 1.243535e+004
1.253413e+003, 1.243600e+004
1.253895e+003, 1.243633e+004
1.254377e+003, 1.243625e+004
1.254859e+003, 1.243584e+004
1.255341e+003, 1.243640e+004
1.255823e+003, 1.243796e+004
1.256306e+003, 1.243929e+004
1.256788e+003, 1.244005e+004
1.257270e+003, 1.244038e+004
1.257752e+003, 1.244036e+004
1.258234e+003, 1.243993e+004
1.258716e+003, 1.243893e+004
1.259198e+003, 1.243742e+004
1.259680e+003, 1.243581e+004
1.260163e+003, 1.243409e+004
1.260645e+003, 1.243130e+004
1.261127e+003, 1.242708e+004
1.261609e+003, 1.242293e+004
1.262091e+003, 1.242067e+004
1.262573e+003, 1.241848e+004
1.263055e+003, 1.241506e+004
1.263537e+003, 1.241089e+004
1.264020e+003, 1.240765e+004
1.264502e+003, 1.240528e+004
1.264984e+003, 1.240293e+004
1.265466e+003, 1.240045e+004
1.265948e+003, 1.239809e+004
1.266430e+003, 1.239617e+004
1.266912e+003, 1.239407e+004
1.267394e+003, 1.239111e+004
1.267876e+003, 1.238787e+004
1.268359e+003, 1.238604e+004
1.268841e+003, 1.238524e+004
1.269323e+003, 1.238433e+004
1.269805e+003, 1.238306e+004
1.270287e+003, 1.238136e+004
1.270769e+003, 1.237902e+004
1.271251e+003, 1.237639e+004
1.271733e+003, 1.237353e+004
1.272215e+003, 1.237056e+004
1.272698e+003, 1.236784e+004
1.273180e+003, 1.236533e+004
1.273662e+003, 1.236288e+004
1.274144e+003, 1.236052e+004
1.274626e+003, 1.235887e+004
1.275108e+003, 1.235824e+004
1.275590e+003, 1.235830e+004
1.276072e+003, 1.235896e+004
1.276555e+003, 1.236031e+004
1.277037e+003, 1.236224e+004
1.277519e+003, 1.236488e+004
1.278001e+003, 1.236837e+004
1.278483e+003, 1.237260e+004
1.278965e+003, 1.237756e+004
1.279447e+003, 1.238313e+004
1.279929e+003, 1.238848e+004
1.280411e+003, 1.239318e+004
1.280894e+003, 1.239717e+004
1.281376e+003, 1.240042e+004
1.281858e+003, 1.240283e+004
1.282340e+003, 1.240436e+004
1.282822e+003, 1.240494e+004
1.283304e+003, 1.240471e+004
1.283786e+003, 1.240374e+004
1.284268e+003, 1.240166e+004
1.284750e+003, 1.239837e+004
1.285233e+003, 1.239453e+004
1.285715e+003, 1.239103e+004
1.286197e+003, 1.238736e+004
1.286679e+003, 1.238304e+004
1.287161e+003, 1.237841e+004
1.287643e+003, 1.237442e+004
1.288125e+003, 1.237118e+004
1.288607e+003, 1.236818e+004
1.289090e+003, 1.236539e+004
1.289572e+003, 1.236337e+004
1.290054e+003, 1.236262e+004
1.290536e+003, 1.236290e+004
1.291018e+003, 1.236394e+004
1.291500e+003, 1.236574e+004
1.291982e+003, 1.236834e+004
1.292464e+003, 1.237169e+004
1.292947e+003, 1.237571e+004
1.293429e+003, 1.238027e+004
1.293911e+003, 1.238546e+004
1.294393e+003, 1.239122e+004
1.294875e+003, 1.239731e+004
1.295357e+003, 1.240332e+004
1.295839e+003, 1.240858e+004
1.296321e+003, 1.241387e+004
1.296803e+003, 1.241907e+004
1.297286e+003, 1.242306e+004
1.297768e+003, 1.242551e+004
1.298250e+003, 1.242679e+004
1.298732e+003, 1.242726e+004
1.299214e+003, 1.242545e+004
1.299696e+003, 1.242110e+004
1.300178e+003, 1.241605e+004
1.300660e+003, 1.241614e+004
##END=



