##NAMES=Chalcocite
##RRUFFID=R130757
##IDEAL CHEMISTRY=Cu^1+^_2_S^2-^
##LOCALITY=China
##OWNER=RRUFF
##SOURCE=Rob Lavinsky
##DESCRIPTION=Black crystals with blue tarnish on a surface
##STATUS=The identification of this mineral has been confirmed by single-crystal X-ray diffraction.
##URL=rruff.info/R130757
139.2411, 0.0000000E+00
139.7232, 0.2734380
140.2053, 0.6289370
140.6874, 1.081879
141.1696, 1.444748
141.6517, 1.947113
142.1338, 2.208557
142.6159, 1.742310
143.0980, 1.087906
143.5801, 0.3641970
144.0623, 9.0180002E-03
144.5444, 7.8674003E-02
145.0265, 0.1954190
145.5086, 0.8970030
145.9907, 2.701508
146.4728, 4.111954
146.9550, 4.557693
147.4371, 3.439453
147.9192, 2.710205
148.4013, 2.622437
148.8834, 2.964676
149.3655, 3.199600
149.8477, 3.188934
150.3298, 3.260559
150.8119, 3.473846
151.2940, 4.136658
151.7761, 4.563080
152.2583, 4.591644
152.7404, 4.403671
153.2225, 4.352356
153.7046, 4.677948
154.1867, 5.115204
154.6688, 5.437073
155.1510, 5.921616
155.6331, 6.034225
156.1152, 5.535049
156.5973, 4.601746
157.0794, 3.726059
157.5615, 3.023315
158.0437, 2.831161
158.5258, 2.712158
159.0079, 3.026718
159.4900, 3.198685
159.9721, 2.923874
160.4542, 2.466858
160.9364, 2.283020
161.4185, 2.736603
161.9006, 3.571289
162.3827, 4.224304
162.8648, 4.604523
163.3469, 4.764206
163.8291, 4.743759
164.3112, 4.552933
164.7933, 4.263626
165.2754, 3.682755
165.7575, 3.096710
166.2396, 2.783569
166.7218, 3.232574
167.2039, 3.706268
167.6860, 3.664124
168.1681, 2.987976
168.6502, 2.380371
169.1323, 2.490738
169.6145, 2.990707
170.0966, 3.442215
170.5787, 3.774460
171.0608, 3.907532
171.5429, 3.715591
172.0250, 3.170593
172.5072, 2.552490
172.9893, 1.920181
173.4714, 1.368729
173.9535, 1.060791
174.4356, 1.452377
174.9177, 1.976105
175.3999, 1.820374
175.8820, 0.8865970
176.3641, 4.9988002E-02
176.8462, 0.2672580
177.3283, 5.9723001E-02
177.8104, 0.4835970
178.2926, 0.8661190
178.7747, 1.185806
179.2568, 1.438080
179.7389, 1.634979
180.2210, 1.663101
180.7031, 1.222275
181.1853, 0.4466250
181.6674, 0.1556700
182.1495, 0.1583710
182.6316, 0.1922000
183.1137, 0.2847750
183.5958, 4.5226999E-02
184.0780, 0.2745210
184.5601, 0.3683010
185.0422, 0.2493590
185.5243, 4.1976999E-02
186.0064, 0.3227080
186.4885, 0.7516940
186.9707, 0.8534550
187.4528, 0.5517880
187.9349, 8.0275998E-02
188.4170, 0.2383420
188.8991, 0.4083860
189.3812, 0.5053710
189.8634, 0.5533910
190.3455, 0.5583800
190.8276, 0.5611420
191.3097, 0.5705570
191.7918, 0.5718990
192.2739, 0.5402680
192.7561, 0.4777530
193.2382, 0.3959200
193.7203, 0.2610930
194.2024, 8.5739002E-02
194.6845, 5.6107000E-02
195.1666, 0.2283480
195.6488, 0.4823150
196.1309, 0.5753480
196.6130, 0.4947200
197.0951, 0.2307430
197.5772, 9.5060002E-03
198.0593, 0.1681210
198.5415, 0.4406740
199.0236, 0.8674620
199.5057, 1.335037
199.9878, 1.546783
200.4699, 1.455139
200.9520, 1.350815
201.4342, 1.431152
201.9163, 1.717087
202.3984, 1.881836
202.8805, 1.862854
203.3626, 1.771042
203.8447, 1.933807
204.3269, 2.418839
204.8090, 2.878296
205.2911, 3.101257
205.7732, 3.056198
206.2553, 2.949402
206.7374, 2.712631
207.2196, 2.476486
207.7017, 2.669968
208.1838, 3.449142
208.6659, 4.232971
209.1480, 4.679871
209.6301, 4.726913
210.1123, 4.734375
210.5944, 4.726868
211.0765, 4.690384
211.5586, 4.547287
212.0407, 4.213654
212.5228, 3.963348
213.0050, 3.964218
213.4871, 4.267075
213.9692, 4.641510
214.4513, 5.124939
214.9334, 5.647476
215.4155, 5.995056
215.8977, 6.073090
216.3798, 6.159180
216.8619, 6.455811
217.3440, 7.119553
217.8261, 7.469193
218.3082, 7.345215
218.7904, 6.920135
219.2725, 6.740112
219.7546, 6.914734
220.2367, 7.139664
220.7188, 7.234482
221.2009, 7.081497
221.6831, 7.145554
222.1652, 7.587936
222.6473, 8.216476
223.1294, 8.393219
223.6115, 7.791092
224.0936, 7.285355
224.5758, 7.377945
225.0579, 8.483139
225.5400, 9.143127
226.0221, 9.182404
226.5042, 8.798889
226.9863, 8.512558
227.4685, 8.264542
227.9506, 8.207230
228.4327, 8.455902
228.9148, 9.254242
229.3969, 9.772049
229.8790, 9.857422
230.3612, 9.696121
230.8433, 9.781067
231.3254, 10.26312
231.8075, 10.75714
232.2896, 11.12237
232.7717, 11.35635
233.2539, 11.42816
233.7360, 11.19275
234.2181, 10.80176
234.7002, 10.72406
235.1823, 11.25264
235.6644, 11.73233
236.1466, 11.86450
236.6287, 11.46454
237.1108, 11.18927
237.5929, 11.05180
238.0750, 11.03450
238.5571, 11.13405
239.0393, 11.50404
239.5214, 11.70868
240.0035, 11.59880
240.4856, 11.06786
240.9677, 10.60240
241.4498, 10.11859
241.9320, 9.716995
242.4141, 9.641296
242.8962, 10.18335
243.3783, 10.62312
243.8604, 10.69014
244.3425, 10.24524
244.8247, 9.891312
245.3068, 9.644852
245.7889, 9.466125
246.2710, 9.302658
246.7531, 9.202347
247.2352, 9.060928
247.7174, 8.842880
248.1995, 8.539993
248.6816, 8.215958
249.1637, 7.848465
249.6458, 7.471390
250.1279, 7.111038
250.6101, 6.649277
251.0922, 6.435165
251.5743, 6.692215
252.0564, 7.548080
252.5385, 7.879089
253.0206, 7.452850
253.5028, 6.682907
253.9849, 6.074768
254.4670, 5.613739
254.9491, 5.379379
255.4312, 5.472443
255.9133, 5.918472
256.3955, 6.055618
256.8776, 5.713776
257.3597, 5.250854
257.8418, 5.063843
258.3239, 5.285904
258.8061, 5.450684
259.2882, 5.431931
259.7703, 5.234268
260.2524, 5.184448
260.7345, 5.362320
261.2166, 5.571762
261.6988, 5.618713
262.1809, 5.427109
262.6630, 5.308899
263.1451, 5.372284
263.6272, 5.577942
264.1093, 5.533783
264.5915, 5.101639
265.0736, 4.663010
265.5557, 4.559418
266.0378, 4.924759
266.5199, 5.162476
267.0020, 5.153915
267.4842, 4.954529
267.9663, 4.865784
268.4484, 4.942093
268.9305, 5.003098
269.4126, 4.872284
269.8947, 4.451675
270.3769, 4.266388
270.8590, 4.404816
271.3411, 4.789169
271.8232, 5.188675
272.3053, 5.613327
272.7874, 6.019485
273.2696, 6.377640
273.7517, 6.679138
274.2338, 6.976212
274.7159, 7.252441
275.1980, 7.547684
275.6801, 7.991684
276.1623, 8.633621
276.6444, 9.209106
277.1265, 9.485703
277.6086, 9.421799
278.0907, 9.747375
278.5728, 10.59666
279.0550, 11.65698
279.5371, 12.34515
280.0192, 12.61702
280.5013, 12.87939
280.9834, 13.26479
281.4655, 13.77480
281.9477, 14.51048
282.4298, 15.49690
282.9119, 16.62054
283.3940, 17.61937
283.8761, 18.47987
284.3582, 19.72215
284.8404, 21.72437
285.3225, 24.32669
285.8046, 26.56015
286.2867, 28.36571
286.7688, 29.98250
287.2509, 31.68631
287.7331, 33.46202
288.2152, 35.10272
288.6973, 36.57831
289.1794, 37.87048
289.6615, 39.04874
290.1436, 40.16762
290.6258, 40.66699
291.1079, 39.91644
291.5900, 38.04951
292.0721, 35.72754
292.5542, 33.02479
293.0363, 30.08282
293.5185, 27.10154
294.0006, 24.06130
294.4827, 21.26929
294.9648, 19.01733
295.4469, 17.15030
295.9290, 15.16415
296.4112, 12.78808
296.8933, 10.51486
297.3754, 9.237923
297.8575, 8.851242
298.3396, 8.675148
298.8217, 8.424026
299.3039, 8.054070
299.7860, 7.443710
300.2681, 6.517021
300.7502, 5.521492
301.2323, 4.666428
301.7144, 3.962685
302.1966, 3.499680
302.6787, 3.522957
303.1608, 3.725014
303.6429, 3.671005
304.1250, 3.309662
304.6071, 2.832672
305.0893, 2.259964
305.5714, 1.698120
306.0535, 1.395134
306.5356, 1.661301
307.0177, 2.110718
307.4998, 2.386322
307.9820, 2.479202
308.4641, 2.494125
308.9462, 2.446228
309.4283, 2.381958
309.9104, 2.366661
310.3925, 2.492409
310.8747, 2.625458
311.3568, 2.687851
311.8389, 2.682426
312.3210, 2.623055
312.8031, 2.410477
313.2852, 2.194557
313.7674, 2.120750
314.2495, 2.292946
314.7316, 2.533348
315.2137, 2.786942
315.6958, 3.045219
316.1779, 3.280769
316.6601, 3.493767
317.1422, 3.670822
317.6243, 3.811729
318.1064, 3.950615
318.5885, 3.975761
319.0706, 3.775597
319.5528, 3.438881
320.0349, 3.137924
320.5170, 2.870773
320.9991, 2.692169
321.4812, 2.655014
321.9633, 2.814499
322.4455, 2.934227
322.9276, 2.958000
323.4097, 2.905037
323.8918, 2.804504
324.3739, 2.704025
324.8560, 2.536629
325.3382, 2.210724
325.8203, 1.685867
326.3024, 1.393028
326.7845, 1.595383
327.2666, 1.912437
327.7487, 2.040947
328.2309, 1.822243
328.7130, 1.597931
329.1951, 1.401627
329.6772, 1.230309
330.1593, 1.041313
330.6414, 0.7862010
331.1236, 0.5623020
331.6057, 0.4227600
332.0878, 0.4225620
332.5699, 0.3853760
333.0520, 0.2740860
333.5341, 0.1315380
334.0163, 0.1050030
334.4984, 0.2766950
334.9805, 0.4078600
335.4626, 0.3643720
335.9447, 4.6677001E-02
336.4268, 7.0297003E-02
336.9090, 0.1261440
337.3911, 0.4339290
337.8732, 0.4905090
338.3553, 0.2060010
338.8374, 2.4216000E-02
339.3195, 0.1013870
339.8017, 0.3964000
340.2838, 0.5347210
340.7659, 0.4992140
341.2480, 0.3814620
341.7301, 0.2168810
342.2122, 4.4860002E-03
342.6944, 5.9096999E-02
343.1765, 0.1634900
343.6586, 0.5676570
344.1407, 0.8413540
344.6228, 0.9688340
345.1049, 1.016235
345.5871, 0.9875180
346.0692, 0.9052730
346.5513, 0.9613190
347.0334, 1.216469
347.5155, 1.538773
347.9977, 1.724518
348.4798, 1.775276
348.9619, 1.788582
349.4440, 1.797470
349.9261, 1.848373
350.4082, 2.064285
350.8904, 2.460411
351.3725, 2.818565
351.8546, 2.909103
352.3367, 2.814362
352.8188, 2.732239
353.3009, 2.713112
353.7831, 2.695839
354.2652, 2.653236
354.7473, 2.597740
355.2294, 2.527023
355.7115, 2.432213
356.1936, 2.327919
356.6758, 2.224487
357.1579, 2.075012
357.6400, 1.954338
358.1221, 1.950432
358.6042, 2.034454
359.0863, 2.094780
359.5685, 2.077332
360.0506, 2.017021
360.5327, 1.924698
361.0148, 1.774803
361.4969, 1.678299
361.9790, 1.686913
362.4612, 1.770325
362.9433, 1.884857
363.4254, 2.034927
363.9075, 2.199997
364.3896, 2.375732
364.8717, 2.573738
365.3539, 2.791466
365.8360, 3.076797
366.3181, 3.290070
366.8002, 3.352539
367.2823, 3.090233
367.7644, 2.861107
368.2466, 2.621887
368.7287, 2.403130
369.2108, 2.535950
369.6929, 3.651955
370.1750, 4.572495
370.6571, 4.651115
371.1393, 3.162926
371.6214, 2.097542
372.1035, 1.617073
372.5856, 1.515259
373.0677, 1.306923
373.5498, 0.8616260
374.0320, 0.5512540
374.5141, 0.5674740
374.9962, 0.9672010
375.4783, 1.229561
375.9604, 1.346504
376.4425, 1.331528
376.9247, 1.167282
377.4068, 0.8299640
377.8889, 0.5299840
378.3710, 0.3265760
378.8531, 0.1923220
379.3352, 1.6243000E-02
379.8174, 0.3175740
380.2995, 0.5369950
380.7816, 0.4829330
381.2637, 0.1892010
381.7458, 7.5363003E-02
382.2279, 0.2867660
382.7101, 0.4186250
383.1922, 0.3907470
383.6743, 0.2245640
384.1564, 6.9916002E-02
384.6385, 1.4313000E-02
385.1206, 2.2064000E-02
385.6028, 2.6123000E-02
386.0849, 2.6588000E-02
386.5670, 2.1179000E-02
387.0491, 2.2509999E-03
387.5312, 3.4340002E-02
388.0133, 5.8701001E-02
388.4955, 9.2339002E-02
388.9776, 9.9059999E-02
389.4597, 1.3527000E-02
389.9418, 0.2154240
390.4239, 0.3218310
390.9060, 0.1129230
391.3882, 0.1861650
391.8703, 0.3690490
392.3524, 0.3726120
392.8345, 0.3021930
393.3166, 0.1166530
393.7987, 0.1018140
394.2809, 0.1881870
394.7630, 1.5251000E-02
395.2451, 0.2365650
395.7272, 0.5649410
396.2093, 1.015320
396.6914, 1.213081
397.1736, 0.9206770
397.6557, 0.4222180
398.1378, 2.2240000E-02
398.6199, 0.5275040
399.1020, 0.8077010
399.5841, 0.7137300
400.0663, 0.3130040
400.5484, 5.3679999E-02
401.0305, 6.0081001E-02
401.5126, 3.3936001E-02
401.9947, 0.1828770
402.4768, 0.8414150
402.9590, 1.067459
403.4411, 0.6763310
403.9232, 8.5749999E-03
404.4053, 0.4283140
404.8874, 0.5436710
405.3695, 0.5030290
405.8517, 0.2876050
406.3338, 8.0650002E-02
406.8159, 0.2187880
407.2980, 7.1800001E-02
407.7801, 0.1046370
408.2622, 1.7982000E-02
408.7444, 0.4164810
409.2265, 0.5609440
409.7086, 0.2386020
410.1907, 0.2538910
410.6728, 0.2854770
411.1549, 0.1062010
411.6371, 0.5223460
412.1192, 0.7464750
412.6013, 0.8125840
413.0834, 0.7291110
413.5655, 0.4671020
414.0476, 0.2774050
414.5298, 0.4934620
415.0119, 0.9561000
415.4940, 1.346420
415.9761, 1.575500
416.4582, 1.649803
416.9403, 1.498749
417.4225, 1.156418
417.9046, 0.8355260
418.3867, 0.6197590
418.8688, 0.5068130
419.3509, 0.5179520
419.8330, 0.7200160
420.3152, 0.9089970
420.7973, 1.083572
421.2794, 1.185768
421.7615, 1.111946
422.2436, 0.4467850
422.7257, 3.3195000E-02
423.2079, 3.5133000E-02
423.6900, 0.7588120
424.1721, 1.286781
424.6542, 1.492821
425.1363, 1.518486
425.6184, 1.458763
426.1006, 1.244644
426.5827, 1.052086
427.0648, 0.8586200
427.5469, 0.6947020
428.0290, 0.7014310
428.5111, 0.9799880
428.9933, 1.225777
429.4754, 1.230453
429.9575, 0.9123540
430.4396, 1.049080
430.9217, 1.828835
431.4038, 2.661522
431.8860, 2.663803
432.3681, 1.800209
432.8502, 1.123276
433.3323, 0.9724810
433.8144, 1.152679
434.2965, 1.119217
434.7787, 0.8786010
435.2608, 0.6762540
435.7429, 0.7568820
436.2250, 1.005669
436.7071, 1.128891
437.1892, 1.078300
437.6714, 0.9482190
438.1535, 0.7968520
438.6356, 0.6654430
439.1177, 0.6275940
439.5998, 0.7714000
440.0819, 0.9601210
440.5641, 1.041077
441.0462, 1.030869
441.5283, 1.122688
442.0104, 1.631508
442.4925, 2.177292
442.9746, 2.417236
443.4568, 2.118004
443.9389, 1.804977
444.4210, 1.575607
444.9031, 1.446518
445.3852, 1.450775
445.8673, 1.768410
446.3495, 2.055664
446.8316, 2.194191
447.3137, 2.161339
447.7958, 2.181313
448.2779, 2.353386
448.7600, 2.491745
449.2422, 2.432831
449.7243, 2.064301
450.2064, 1.751221
450.6885, 1.517197
451.1706, 1.366302
451.6527, 1.307755
452.1349, 1.354683
452.6170, 1.393173
453.0991, 1.356842
453.5812, 1.243217
454.0633, 1.135567
454.5454, 1.045181
455.0276, 1.019424
455.5097, 1.106758
455.9918, 1.291893
456.4739, 1.500671
456.9560, 1.752144
457.4381, 1.947113
457.9203, 1.906090
458.4024, 1.651436
458.8845, 1.327057
459.3666, 0.9588700
459.8488, 0.6208270
460.3309, 0.3857880
460.8130, 0.2533950
461.2951, 0.2157360
461.7772, 0.2731400
462.2593, 0.3930890
462.7415, 0.5656360
463.2236, 1.023300
463.7057, 1.316978
464.1878, 1.155396
464.6699, 0.6487880
465.1520, 0.2213360
465.6342, 2.8374000E-02
466.1163, 0.1406400
466.5984, 0.1017230
467.0805, 0.1532670
467.5626, 0.3048020
468.0447, 0.2671360
468.5269, 0.1705250
469.0090, 0.1395490
469.4911, 0.1535110
469.9732, 0.2363510
470.4553, 0.3791350
470.9374, 0.5898820
471.4196, 0.9943160
471.9017, 1.731194
472.3838, 2.228531
472.8659, 2.015968
473.3480, 1.085594
473.8301, 0.5028230
474.3123, 0.3178560
474.7944, 0.3293150
475.2765, 0.3201600
475.7586, 0.3001250
476.2407, 0.3272780
476.7228, 0.4570010
477.2050, 0.6070940
477.6871, 0.6499250
478.1692, 0.5958940
478.6513, 0.5006410
479.1334, 0.3190380
479.6155, 0.1573870
480.0977, 0.1477510
480.5798, 0.3162770
481.0619, 0.4913940
481.5440, 0.5182270
482.0261, 0.5061950
482.5082, 0.6064450
482.9904, 1.077911
483.4725, 1.443916
483.9546, 1.551155
484.4367, 1.428574
484.9188, 1.208931
485.4009, 0.7113800
485.8831, 0.2981030
486.3652, 0.1303020
486.8473, 0.2885970
487.3294, 0.3754120
487.8115, 0.3270870
488.2936, 0.2627330
488.7758, 0.3345110
489.2579, 0.6305080
489.7400, 0.7484050
490.2221, 0.5343860
490.7042, 0.1487270
491.1863, 0.1502610
491.6685, 0.5859450
492.1506, 0.9593350
492.6327, 0.9159090
493.1148, 0.5564580
493.5969, 0.3645860
494.0790, 0.3572920
494.5612, 0.4370350
495.0433, 0.5641100
495.5254, 0.7037730
496.0075, 0.7863310
496.4896, 0.8023760
496.9717, 0.7402800
497.4539, 0.4672780
497.9360, 9.6084997E-02
498.4181, 7.2173998E-02
498.9002, 0.3512420
499.3823, 0.8298030
499.8644, 0.9728550
500.3466, 0.7226870
500.8287, 0.5939410
501.3108, 0.8692630
501.7929, 1.247932
502.2750, 1.500275
502.7571, 1.585670
503.2393, 1.556808
503.7214, 1.314827
504.2035, 0.9850460
504.6856, 0.8319700
505.1677, 0.9094160
505.6498, 1.074188
506.1320, 1.335793
506.6141, 1.686455
507.0962, 1.811806
507.5783, 1.660782
508.0604, 1.459953
508.5425, 1.423294
509.0247, 1.530762
509.5068, 1.452148
509.9889, 1.090126
510.4710, 0.7187810
510.9531, 0.8046340
511.4352, 1.232025
511.9174, 1.577072
512.3995, 1.606148
512.8816, 1.491699
513.3637, 1.380600
513.8458, 1.283249
514.3279, 1.265480
514.8101, 1.492668
515.2922, 1.734581
515.7743, 1.775642
516.2564, 1.513496
516.7385, 1.291451
517.2206, 1.190147
517.7028, 1.202278
518.1849, 1.318871
518.6670, 1.742210
519.1491, 2.035027
519.6312, 2.103668
520.1133, 1.992691
520.5955, 1.886948
521.0776, 1.830475
521.5597, 1.725037
522.0418, 1.449989
522.5239, 0.9701460
523.0060, 0.8035740
523.4882, 1.019394
523.9703, 1.334846
524.4524, 1.465416
524.9345, 1.431114
525.4166, 1.364944
525.8987, 1.260033
526.3809, 1.195053
526.8630, 1.393578
527.3451, 1.772766
527.8272, 1.991760
528.3093, 1.728760
528.7914, 1.303734
529.2736, 1.005585
529.7557, 0.8439560
530.2378, 0.8769230
530.7199, 1.384811
531.2020, 1.954590
531.6841, 2.209671
532.1663, 1.914757
532.6484, 1.694283
533.1305, 1.812149
533.6126, 2.065468
534.0947, 2.159149
534.5768, 1.770813
535.0590, 1.602730
535.5411, 1.916382
536.0232, 2.587082
536.5053, 2.790085
536.9874, 2.303978
537.4695, 1.844902
537.9517, 1.882462
538.4338, 2.462708
538.9159, 2.511162
539.3980, 1.904205
539.8801, 1.251183
540.3622, 1.411057
540.8444, 2.181229
541.3265, 2.562057
541.8086, 2.212151
542.2907, 1.634140
542.7728, 1.464180
543.2549, 1.597748
543.7371, 1.744476
544.2192, 1.726318
544.7013, 1.689285
545.1834, 1.777962
545.6655, 1.983521
546.1476, 2.113647
546.6298, 2.098816
547.1119, 1.977783
547.5940, 1.742188
548.0761, 1.207619
548.5582, 0.9382480
549.0403, 1.160507
549.5225, 1.579483
550.0046, 1.837456
550.4867, 1.848885
550.9688, 1.874916
551.4509, 1.987770
551.9330, 2.138794
552.4152, 2.112228
552.8973, 1.870399
553.3794, 1.671738
553.8615, 1.684441
554.3436, 1.863235
554.8257, 1.985931
555.3079, 2.051994
555.7900, 2.034325
556.2721, 1.862152
556.7542, 1.603348
557.2363, 1.365921
557.7184, 1.164795
558.2006, 1.012337
558.6827, 0.9880450
559.1648, 1.008415
559.6469, 0.9313200
560.1290, 0.5403290
560.6111, 0.2055440
561.0933, 0.1213530
561.5754, 0.2489240
562.0575, 0.3175200
562.5396, 0.1646730
563.0217, 6.5575004E-02
563.5038, 0.1762470
563.9860, 0.6030810
564.4681, 0.6878590
564.9502, 0.2231450
565.4323, 0.2634960
565.9144, 0.1444780
566.3965, 0.6576160
566.8787, 1.117798
567.3608, 1.037506
567.8429, 0.6634900
568.3250, 0.3452220
568.8071, 8.8988997E-02
569.2892, 3.8963001E-02
569.7714, 7.6653004E-02
570.2535, 0.2815780
570.7356, 0.3281100
571.2177, 0.2514340
571.6998, 0.2521510
572.1819, 0.6636280
572.6641, 1.054726
573.1462, 1.004852
573.6283, 0.3508450
574.1104, 0.1180950
574.5925, 7.3170001E-03
575.0746, 0.3073580
575.5568, 0.4859700
576.0389, 0.3537900
576.5210, 0.2888950
577.0031, 0.3894960
577.4852, 0.5305710
577.9673, 0.3903580
578.4495, 0.1982960
578.9316, 0.5176390
579.4137, 0.2329330
579.8958, 0.4725190
580.3779, 0.8075490
580.8600, 0.7598950
581.3422, 0.6128770
581.8243, 0.5015260
582.3064, 0.4425960
582.7885, 0.4870760
583.2706, 0.6420520
583.7527, 0.8491360
584.2349, 1.155510
584.7170, 1.450676
585.1991, 1.591072
585.6812, 1.490059
586.1633, 1.313972
586.6454, 1.070183
587.1276, 0.8063130
587.6097, 0.6129000
588.0918, 0.6147770
588.5739, 0.5606000
589.0560, 0.3030170
589.5381, 9.5481999E-02
590.0203, 0.1328890
590.5024, 0.3989870
590.9845, 0.8792190
591.4666, 0.9464490
591.9487, 0.5957110
592.4308, 0.4538500
592.9130, 0.5432050
593.3951, 0.7331850
593.8772, 0.9639050
594.3593, 1.197243
594.8414, 1.289612
595.3235, 1.196037
595.8057, 1.022842
596.2878, 0.7844160
596.7699, 0.5533750
597.2520, 0.4677120
597.7341, 0.7307660
598.2162, 1.005013
598.6984, 1.106133
599.1805, 1.073486
599.6626, 1.069412
600.1447, 1.162216
600.6268, 1.256516
601.1089, 1.334694
601.5911, 1.403633
602.0732, 1.353615
602.5553, 1.087639
603.0374, 0.8583830
603.5195, 0.8739620
604.0016, 1.155891
604.4838, 1.435158
604.9659, 1.730118
605.4480, 1.907883
605.9301, 1.671455
606.4122, 1.132149
606.8943, 0.7964250
607.3765, 0.8680420
607.8586, 1.082977
608.3407, 1.196281
608.8228, 1.222923
609.3049, 1.210777
609.7870, 1.106323
610.2692, 1.038002
610.7513, 1.128418
611.2334, 1.357109
611.7155, 1.474564
612.1976, 1.298264
612.6797, 1.115059
613.1619, 1.092232
613.6440, 1.316765
614.1261, 1.272202
614.6082, 0.8235020
615.0903, 0.3312150
615.5724, 0.1345210
616.0546, 0.1864470
616.5367, 0.2531890
617.0188, 0.3349000
617.5009, 0.4245450
617.9830, 0.4816670
618.4651, 0.5231860
618.9473, 0.6400760
619.4294, 0.9859010
619.9115, 1.303719
620.3936, 1.165718
620.8757, 0.7099300
621.3578, 0.4682310
621.8400, 1.009705
622.3221, 1.545547
622.8042, 1.636047
623.2863, 1.244423
623.7684, 0.8852230
624.2505, 0.5666050
624.7327, 0.3064960
625.2148, 0.1106190
625.6969, 2.5742000E-02
626.1790, 3.4317002E-02
626.6611, 0.2990490
627.1432, 0.5812990
627.6254, 0.6790850
628.1075, 0.6089250
628.5896, 0.6523740
629.0717, 0.8911820
629.5538, 1.153908
630.0359, 1.188278
630.5181, 1.061104
631.0002, 0.9440540
631.4823, 0.8738170
631.9644, 0.8730090
632.4465, 1.030365
632.9286, 1.268509
633.4108, 1.372154
633.8929, 1.100502
634.3750, 0.8399660
634.8571, 0.7489550
635.3392, 0.8396220
635.8214, 0.9656070
636.3035, 1.197441
636.7856, 1.354240
637.2677, 1.332893
637.7498, 1.096840
638.2319, 0.9097060
638.7141, 0.7643430
639.1962, 0.6932450
639.6783, 0.8224870
640.1604, 1.071091
640.6425, 1.087143
641.1246, 0.7498320
641.6068, 0.3734130
642.0889, 0.2595600
642.5710, 0.3203660
643.0531, 0.4138110
643.5352, 0.5576320
644.0173, 0.6458890
644.4995, 0.5573960
644.9816, 0.3743290
645.4637, 0.3380890
645.9458, 0.5552750
646.4279, 0.8152620
646.9100, 1.098824
647.3922, 1.396919
647.8743, 1.580444
648.3564, 1.644936
648.8385, 1.619408
649.3206, 1.441521
649.8027, 1.148399
650.2849, 1.144653
650.7670, 1.446220
651.2491, 1.773552
651.7312, 1.881058
652.2133, 1.864624
652.6954, 1.827065
653.1776, 1.770699
653.6597, 1.700478
654.1418, 1.642685
654.6239, 1.556419
655.1060, 1.401207
655.5881, 0.9569240
656.0703, 0.7062840
656.5524, 0.8520430
657.0345, 1.198860
657.5166, 1.419350
657.9987, 1.515648
658.4808, 1.469238
658.9630, 1.206017
659.4451, 0.8290940
659.9272, 0.7132640
660.4093, 0.8614650
660.8914, 1.052544
661.3735, 1.277946
661.8557, 1.431702
662.3378, 1.186394
662.8199, 0.6043700
663.3020, 0.2114490
663.7841, 0.5976330
664.2662, 1.119308
664.7484, 1.200043
665.2305, 0.6853560
665.7126, 0.3332370
666.1947, 0.4636840
666.6768, 0.7284930
667.1589, 0.8821950
667.6411, 0.9277570
668.1232, 0.8812180
668.6053, 0.6710590
669.0874, 0.4647450
669.5695, 0.5167850
670.0516, 0.8216400
670.5338, 1.113289
671.0159, 1.392715
671.4980, 1.506187
671.9801, 0.9979250
672.4622, 0.1152570
672.9443, 0.4390870
673.4265, 9.2231996E-02
673.9086, 0.4095000
674.3907, 0.5608220
674.8728, 0.4571380
675.3549, 0.3876040
675.8370, 0.5817260
676.3192, 0.6797100
676.8013, 0.4391250
677.2834, 9.0865999E-02
677.7655, 0.2248540
678.2476, 0.2610240
678.7297, 0.6877210
679.2119, 0.6602860
679.6940, 0.2095340
680.1761, 7.8217000E-02
680.6582, 0.2010650
681.1403, 0.1648410
681.6224, 0.2287520
682.1046, 0.7269970
682.5867, 0.7305680
683.0688, 9.4916999E-02
683.5509, 0.4135820
684.0330, 0.1026920
684.5151, 0.5188830
684.9973, 0.9328920
685.4794, 0.9217300
685.9615, 0.8893810
686.4436, 0.9395140
686.9257, 0.9758610
687.4078, 0.8845830
687.8900, 0.6025090
688.3721, 0.3502880
688.8542, 0.1344910
689.3363, 7.3199999E-04
689.8184, 9.8572001E-02
690.3005, 0.4107890
690.7827, 0.6721800
691.2648, 0.7718430
691.7469, 0.7744140
692.2290, 0.7287220
692.7111, 0.6560130
693.1932, 0.6274260
693.6754, 0.7084430
694.1575, 0.8182070
694.6396, 0.8749310
695.1217, 0.8924940
695.6038, 1.049660
696.0859, 1.724068
696.5681, 2.159157
697.0502, 1.987015
697.5323, 1.176361
698.0144, 0.5963060
698.4965, 0.2575300
698.9786, 0.1171800
699.4608, 0.2047500
699.9429, 0.4763640
700.4250, 0.7915950
700.9071, 1.158211
701.3892, 1.343903
701.8713, 0.9209140
702.3535, 0.2998430
702.8356, 2.0508001E-02
703.3177, 0.2904360
703.7998, 0.5837170
704.2819, 0.6236500
704.7640, 0.6205140
705.2462, 0.8226700
705.7283, 1.618118
706.2104, 1.944504
706.6925, 1.569618
707.1746, 0.8837510
707.6567, 0.5645370
708.1389, 0.6426700
708.6210, 0.5898440
709.1031, 0.2296830
709.5852, 0.2210080
710.0673, 0.4270940
710.5494, 0.4242780
711.0316, 0.3262630
711.5137, 0.1112140
711.9958, 0.1147380
712.4779, 0.3012770
712.9600, 0.4462360
713.4421, 0.5392460
713.9243, 0.5593800
714.4064, 0.5467910
714.8885, 0.5035630
715.3706, 0.4345320
715.8527, 0.3823850
716.3348, 0.3561170
716.8170, 0.3168640
717.2991, 0.2137830
717.7812, 7.7995002E-02
718.2633, 0.1294630
718.7454, 0.3619610
719.2275, 0.5196690
719.7097, 0.3344570
720.1918, 2.2682000E-02
720.6739, 0.1570970
721.1560, 0.1868670
721.6381, 0.1809840
722.1202, 0.1821210
722.6024, 0.1866070
723.0845, 0.2162550
723.5666, 0.3458480
724.0487, 0.2393800
724.5308, 0.3004300
725.0129, 0.8152920
725.4951, 0.8709110
725.9772, 0.4372710
726.4593, 0.1034010
726.9414, 9.2566997E-02
727.4235, 0.1799090
727.9056, 0.1502300
728.3878, 4.6417002E-02
728.8699, 2.4909999E-02
729.3520, 2.0140000E-03
729.8341, 5.4908998E-02
730.3162, 0.4023590
730.7983, 0.8144760
731.2805, 1.088554
731.7626, 1.126892
732.2447, 1.045845
732.7268, 0.7728040
733.2089, 0.4346620
733.6910, 0.2600560
734.1732, 0.2907640
734.6553, 0.2626270
735.1374, 5.0170999E-02
735.6195, 0.1748280
736.1016, 6.8660001E-03
736.5837, 0.4570010
737.0659, 0.8754120
737.5480, 1.163383
738.0301, 1.264778
738.5122, 1.017715
738.9943, 0.5591130
739.4764, 0.2365040
739.9586, 0.1535030
740.4407, 0.1966400
740.9228, 0.4403530
741.4049, 0.7772450
741.8870, 0.8329320
742.3691, 0.4940260
742.8513, 0.1556240
743.3334, 9.0851001E-02
743.8155, 0.2001340
744.2976, 0.1970750
744.7797, 1.062157
745.2618, 1.664932
745.7440, 1.290421
746.2261, 0.5685650
746.7082, 0.2406080
747.1903, 0.2942890
747.6724, 0.3614580
748.1545, 0.2265550
748.6367, 0.1010970
749.1188, 0.1486510
749.6009, 0.4085770
750.0830, 0.4435810
750.5651, 0.1099170
751.0472, 0.1871340
751.5294, 0.1655500
752.0115, 0.1619110
752.4936, 0.4008790
752.9757, 0.5556340
753.4578, 0.5788190
753.9399, 0.2858580
754.4221, 0.1058810
754.9042, 0.2690510
755.3863, 0.1607440
755.8684, 7.3624000E-02
756.3505, 0.6327210
756.8326, 1.101318
757.3148, 1.108925
757.7969, 0.3130720
758.2790, 0.1054460
758.7611, 3.0090000E-02
759.2432, 0.3008960
759.7253, 0.3166200
760.2075, 6.7382999E-02
760.6896, 6.3660003E-02
761.1717, 1.8348999E-02
761.6538, 0.1087490
762.1359, 0.3300930
762.6180, 0.5401990
763.1002, 0.4765700
763.5823, 4.3738998E-02
764.0644, 0.3842090
764.5465, 1.6829999E-02
765.0286, 0.6744380
765.5107, 1.063362
765.9929, 0.8810200
766.4750, 0.7830280
766.9571, 0.8171770
767.4392, 0.8696980
767.9213, 0.8251570
768.4034, 0.6923980
768.8856, 0.5602190
769.3677, 0.4227910
769.8498, 0.3808360
770.3319, 0.6534120
770.8140, 1.096252
771.2961, 1.416260
771.7783, 1.495850
772.2604, 1.482697
772.7425, 1.367630
773.2246, 1.233437
773.7067, 1.208214
774.1888, 1.393784
774.6710, 1.563332
775.1531, 1.716850
775.6352, 1.828247
776.1173, 1.842323
776.5994, 1.755600
777.0815, 1.660973
777.5637, 1.562737
778.0458, 1.501976
778.5279, 1.597801
779.0100, 1.780113
779.4921, 1.871536
779.9742, 1.634369
780.4564, 1.479431
780.9385, 1.673500
781.4206, 2.059616
781.9027, 2.327362
782.3848, 2.452682
782.8669, 2.467316
783.3491, 2.349480
783.8312, 2.146744
784.3133, 1.966934
784.7954, 1.805336
785.2775, 1.647751
785.7596, 1.461449
786.2418, 1.339195
786.7239, 1.488136
787.2060, 1.795845
787.6881, 2.002419
788.1702, 1.856583
788.6523, 1.725883
789.1345, 1.756424
789.6166, 1.915405
790.0987, 2.104530
790.5808, 2.388107
791.0629, 2.551842
791.5450, 2.497108
792.0272, 2.323624
792.5093, 2.330696
792.9914, 2.503311
793.4735, 2.665169
793.9556, 2.761909
794.4377, 2.814156
794.9199, 2.836655
795.4020, 2.839043
795.8841, 2.845291
796.3662, 2.901421
796.8483, 2.924133
797.3304, 2.901436
797.8126, 2.822403
798.2947, 2.629318
798.7768, 2.249153
799.2589, 1.960442
799.7410, 1.843201
800.2231, 1.868912
800.7053, 2.008987
801.1874, 2.241051
801.6695, 2.446907
802.1516, 2.552292
802.6337, 2.628845
803.1158, 2.729279
803.5980, 2.853508
804.0801, 3.005882
804.5622, 3.349174
805.0443, 3.521294
805.5264, 3.319786
806.0085, 2.900764
806.4907, 2.794563
806.9728, 3.059059
807.4549, 3.341125
807.9370, 3.547150
808.4191, 3.675758
808.9012, 3.696213
809.3834, 3.631714
809.8655, 3.555504
810.3476, 3.541710
810.8297, 3.485146
811.3118, 3.224648
811.7939, 2.864067
812.2761, 2.716782
812.7582, 2.944908
813.2403, 3.239670
813.7224, 3.603577
814.2045, 3.963173
814.6866, 4.048790
815.1688, 3.854988
815.6509, 3.749062
816.1330, 3.882729
816.6151, 4.152336
817.0972, 4.480927
817.5793, 4.819191
818.0615, 5.049629
818.5436, 5.078850
819.0257, 5.030655
819.5078, 4.860954
819.9899, 4.652893
820.4720, 4.648773
820.9542, 4.985252
821.4363, 5.190247
821.9184, 5.138535
822.4005, 4.922318
822.8826, 4.646294
823.3647, 4.337433
823.8469, 4.165344
824.3290, 4.206932
824.8111, 4.387108
825.2932, 4.756744
825.7753, 5.201904
826.2574, 5.487587
826.7396, 5.344597
827.2217, 5.305428
827.7038, 5.590553
828.1859, 5.965645
828.6681, 5.911507
829.1502, 5.332443
829.6323, 5.038124
830.1144, 5.293587
830.5966, 5.738899
831.0787, 5.828789
831.5608, 5.674934
832.0429, 5.547241
832.5250, 5.557312
833.0071, 5.584648
833.4893, 5.578552
833.9714, 5.548050
834.4535, 5.501015
834.9356, 5.382835
835.4177, 5.363449
835.8998, 5.490479
836.3820, 5.674423
836.8641, 5.775688
837.3462, 5.805168
837.8283, 5.882599
838.3104, 6.060951
838.7925, 6.185715
839.2747, 6.036049
839.7568, 5.762337
840.2389, 5.571053
840.7210, 5.550743
841.2031, 5.549652
841.6852, 5.499535
842.1674, 5.485352
842.6495, 5.616371
843.1316, 5.937088
843.6137, 6.145317
844.0958, 6.208221
844.5779, 6.211777
845.0601, 6.264076
845.5422, 6.329849
846.0243, 6.323280
846.5064, 6.216484
846.9885, 6.112022
847.4706, 6.028824
847.9528, 5.994957
848.4349, 6.055054
848.9170, 6.285019
849.3991, 6.360840
849.8812, 6.208206
850.3633, 6.043411
850.8455, 6.064316
851.3276, 6.246841
851.8097, 6.568993
852.2918, 7.024895
852.7739, 7.259224
853.2560, 6.813751
853.7382, 6.171608
854.2203, 5.769272
854.7024, 5.667252
855.1845, 5.684753
855.6666, 5.930969
856.1487, 6.135941
856.6309, 6.145538
857.1130, 5.964729
857.5951, 5.934151
858.0772, 6.068115
858.5593, 6.234962
859.0414, 6.329430
859.5236, 6.351807
860.0057, 6.300896
860.4878, 6.200974
860.9699, 6.148094
861.4520, 6.285614
861.9341, 6.347664
862.4163, 6.108856
862.8984, 5.658310
863.3805, 5.615173
863.8626, 6.116417
864.3447, 6.471191
864.8268, 6.378540
865.3090, 6.010719
865.7911, 5.733414
866.2732, 5.542824
866.7553, 5.436928
867.2374, 5.455406
867.7195, 5.518013
868.2017, 5.624306
868.6838, 5.730255
869.1659, 5.731728
869.6480, 5.593277
870.1301, 5.393478
870.6122, 5.088905
871.0944, 4.788391
871.5765, 4.782806
872.0586, 5.030434
872.5407, 5.213890
873.0228, 5.253372
873.5049, 5.170563
873.9871, 4.934586
874.4692, 4.607109
874.9513, 4.279144
875.4334, 3.852394
875.9155, 3.611343
876.3976, 3.657822
876.8798, 3.820503
877.3619, 3.921616
877.8440, 3.959099
878.3261, 3.875740
878.8082, 3.642624
879.2903, 3.415291
879.7725, 3.343483
880.2546, 3.378853
880.7367, 3.488411
881.2188, 3.705841
881.7009, 3.790222
882.1830, 3.512802
882.6652, 3.177864
883.1473, 3.001762
883.6294, 3.013809
884.1115, 3.007385
884.5936, 2.976852
885.0757, 2.912369
885.5579, 2.810883
886.0400, 2.666237
886.5221, 2.414215
887.0042, 2.072441
887.4863, 1.834236
887.9684, 1.841347
888.4506, 1.950714
888.9327, 2.177742
889.4148, 2.492439
889.8969, 2.442703
890.3790, 1.853905
890.8611, 1.439507
891.3433, 1.590050
891.8254, 2.074242
892.3075, 2.228539
892.7896, 2.102112
893.2717, 1.967972
893.7538, 1.993004
894.2360, 2.025642
894.7181, 1.948524
895.2002, 1.813591
895.6823, 1.765015
896.1644, 1.904205
896.6465, 1.925217
897.1287, 1.750282
897.6108, 1.496765
898.0929, 1.312408
898.5750, 1.220665
899.0571, 1.286751
899.5392, 1.606712
900.0214, 1.858932
900.5035, 1.750778
900.9856, 1.444412
901.4677, 1.113060
901.9498, 0.6511610
902.4319, 0.4683380
902.9141, 0.7097630
903.3962, 1.023682
903.8783, 1.039886
904.3604, 0.7973560
904.8425, 0.7057420
905.3246, 0.7947920
905.8068, 0.9348140
906.2889, 1.208542
906.7710, 1.352303
907.2531, 1.006294
907.7352, 0.1014250
908.2173, 0.5391460
908.6995, 0.7768550
909.1816, 0.7644650
909.6637, 0.4894330
910.1458, 2.1820001E-03
910.6279, 0.3773040
911.1100, 0.6406710
911.5922, 0.7258910
912.0743, 0.4542620
912.5564, 0.1121440
913.0385, 1.5815999E-02
913.5206, 2.6260000E-02
914.0027, 9.0255998E-02
914.4849, 0.2776030
914.9670, 0.2856600
915.4491, 4.0375002E-02
915.9312, 0.5027390
916.4133, 0.6599350
916.8954, 0.5188370
917.3776, 0.4216920
917.8597, 0.4791870
918.3418, 0.5208050
918.8239, 0.2515030
919.3060, 0.1094280
919.7881, 0.2345050
920.2703, 0.1513210
920.7524, 0.3645100
921.2345, 0.2748490
921.7166, 1.6487001E-02
922.1987, 0.3881380
922.6808, 0.9569090
923.1630, 1.206078
923.6451, 1.104263
924.1272, 0.8337780
924.6093, 0.4111710
925.0914, 4.9599999E-04
925.5735, 0.2155760
926.0557, 0.2249450
926.5378, 0.1084900
927.0199, 0.2858350
927.5020, 0.6324160
927.9841, 0.8079610
928.4662, 0.8398740
928.9484, 0.9102860
929.4305, 1.018959
929.9126, 1.054779
930.3947, 0.9013980
930.8768, 0.7162020
931.3589, 0.7499770
931.8411, 0.8922040
932.3232, 0.8966290
932.8053, 0.5308530
933.2874, 0.2274860
933.7695, 6.8793997E-02
934.2516, 5.1270002E-03
934.7338, 5.5762999E-02
935.2159, 7.3036000E-02
935.6980, 6.8755999E-02
936.1801, 0.4181440
936.6622, 0.7726440
937.1443, 0.9816670
937.6265, 1.047806
938.1086, 0.9147490
938.5907, 0.4727480
939.0728, 0.2643050
939.5549, 0.5929720
940.0370, 0.9002990
940.5192, 0.7932820
941.0013, 0.3069920
941.4834, 0.1833950
941.9655, 0.4160080
942.4476, 0.7341770
942.9297, 1.023781
943.4119, 1.261765
943.8940, 1.470222
944.3761, 1.618935
944.8582, 1.573914
945.3403, 1.054642
945.8224, 0.6857450
946.3046, 0.6383740
946.7867, 0.7812350
947.2688, 0.8493800
947.7509, 0.8389430
948.2330, 0.6741410
948.7151, 0.2555160
949.1973, 0.1069640
949.6794, 8.6631998E-02
950.1615, 0.1331410
950.6436, 0.3392720
951.1257, 0.5329360
951.6078, 0.6039430
952.0900, 0.4866100
952.5721, 0.3588940
953.0542, 0.4250560
953.5363, 0.6310200
954.0184, 0.5501790
954.5005, 0.1836550
954.9827, 1.3062000E-02
955.4648, 0.5735470
955.9469, 1.203720
956.4290, 1.268364
956.9111, 0.7808610
957.3932, 0.4584120
957.8754, 0.3503570
958.3575, 0.3603130
958.8396, 0.5119860
959.3217, 0.7045670
959.8038, 0.6470720
960.2859, 0.4122390
960.7681, 0.2622150
961.2502, 0.3445130
961.7323, 0.4520570
962.2144, 0.4910580
962.6965, 0.4770660
963.1786, 0.4132080
963.6608, 0.2197190
964.1429, 0.2522510
964.6250, 0.5964890
965.1071, 0.9296880
965.5892, 0.8858800
966.0714, 0.5802990
966.5535, 0.2947240
967.0356, 6.9458000E-02
967.5177, 8.3443001E-02
967.9998, 0.1959300
968.4819, 0.2101900
968.9641, 4.5235001E-02
969.4462, 0.2660680
969.9283, 0.5316700
970.4104, 0.7621080
970.8925, 0.8435130
971.3746, 0.6538160
971.8568, 0.4018780
972.3389, 0.4445800
972.8210, 0.6646800
973.3031, 0.8113630
973.7852, 0.7411270
974.2673, 0.6240010
974.7495, 0.4650880
975.2316, 0.3209690
975.7137, 0.2258220
976.1958, 0.1772540
976.6779, 0.3482280
977.1600, 0.7791210
977.6422, 1.108803
978.1243, 0.9543690
978.6064, 0.5788120
979.0885, 0.2350460
979.5706, 4.2908002E-02
980.0527, 0.1947630
980.5349, 0.1547390
981.0170, 7.8743003E-02
981.4991, 2.5180001E-03
981.9812, 6.0509000E-02
982.4633, 2.3643000E-02
982.9454, 9.2170998E-02
983.4276, 0.1305470
983.9097, 3.9551001E-02
984.3918, 0.2547000
984.8739, 0.4233170
985.3560, 0.5430450
985.8381, 0.6285930
986.3203, 0.7034610
986.8024, 0.6812520
987.2845, 0.5083620
987.7666, 0.3692550
988.2487, 0.5156630
988.7308, 0.8361130
989.2130, 1.104401
989.6951, 1.292465
990.1772, 1.240906
990.6593, 0.4105220
991.1414, 0.2520830
991.6235, 0.1210170
992.1057, 0.6506420
992.5878, 1.286613
993.0699, 1.805901
993.5520, 2.052513
994.0341, 1.897263
994.5162, 1.552223
994.9984, 1.218246
995.4805, 0.9522400
995.9626, 0.8659130
996.4447, 1.135323
996.9268, 1.355759
997.4089, 1.510956
997.8911, 1.556404
998.3732, 1.375374
998.8553, 0.9836880
999.3374, 0.8306730
999.8195, 0.9461900
1000.302, 1.227119
1000.784, 1.885422
1001.266, 2.448006
1001.748, 2.419235
1002.230, 1.847191
1002.712, 1.447678
1003.194, 1.295448
1003.676, 1.254250
1004.159, 1.310600
1004.641, 1.422409
1005.123, 1.543037
1005.605, 1.649063
1006.087, 1.673225
1006.569, 1.589088
1007.051, 1.407372
1007.533, 0.9965820
1008.016, 0.6450420
1008.498, 0.6258850
1008.980, 1.036324
1009.462, 1.161713
1009.944, 0.9589460
1010.426, 0.7909930
1010.908, 1.020668
1011.390, 1.392662
1011.872, 1.590431
1012.355, 1.613503
1012.837, 1.543274
1013.319, 1.365532
1013.801, 1.185623
1014.283, 0.9923710
1014.765, 0.8388980
1015.247, 0.8097380
1015.729, 0.9039540
1016.211, 1.171844
1016.694, 1.677681
1017.176, 2.075714
1017.658, 1.981316
1018.140, 1.716743
1018.622, 1.603455
1019.104, 1.725914
1019.586, 1.605164
1020.068, 1.124008
1020.551, 0.7888180
1021.033, 0.9655910
1021.515, 1.409790
1021.997, 1.645950
1022.479, 1.707504
1022.961, 1.666100
1023.443, 1.379128
1023.925, 1.203506
1024.407, 1.274109
1024.890, 1.476517
1025.372, 1.701927
1025.854, 1.951050
1026.336, 2.129768
1026.818, 2.227257
1027.300, 2.411720
1027.782, 3.100838
1028.264, 3.740730
1028.746, 3.659065
1029.229, 2.807709
1029.711, 2.296066
1030.193, 2.311874
1030.675, 2.403091
1031.157, 2.375687
1031.639, 2.378578
1032.121, 3.006180
1032.603, 3.969460
1033.086, 4.290375
1033.568, 3.294327
1034.050, 2.425873
1034.532, 2.448494
1035.014, 2.822243
1035.496, 3.100853
1035.978, 3.293098
1036.460, 3.274658
1036.943, 3.033104
1037.425, 2.765228
1037.907, 2.597954
1038.389, 2.504295
1038.871, 2.436913
1039.353, 2.407082
1039.835, 2.476151
1040.317, 2.817238
1040.799, 2.947701
1041.281, 2.710762
1041.764, 2.388756
1042.246, 2.448509
1042.728, 2.779045
1043.210, 3.039749
1043.692, 3.176155
1044.174, 3.229042
1044.656, 3.196091
1045.138, 3.113182
1045.621, 2.987373
1046.103, 2.827576
1046.585, 2.719391
1047.067, 2.662247
1047.549, 2.668602
1048.031, 2.795616
1048.513, 2.910446
1048.995, 2.786308
1049.478, 2.566689
1049.960, 2.451286
1050.442, 2.653030
1050.924, 2.673172
1051.406, 2.444870
1051.888, 2.142609
1052.370, 1.881943
1052.852, 1.683929
1053.334, 1.653435
1053.817, 1.776222
1054.299, 1.877312
1054.781, 1.818802
1055.263, 1.757935
1055.745, 1.768616
1056.227, 1.829102
1056.709, 1.934654
1057.191, 2.100212
1057.673, 2.000145
1058.156, 1.502586
1058.638, 0.9433210
1059.120, 0.5965120
1059.602, 0.4139560
1060.084, 0.3577350
1060.566, 0.4371490
1061.048, 0.5546570
1061.530, 0.7068790
1062.013, 0.9023900
1062.495, 1.192909
1062.977, 1.491386
1063.459, 1.549286
1063.941, 1.434586
1064.423, 1.348419
1064.905, 1.445564
1065.387, 1.480362
1065.870, 1.275810
1066.352, 1.051659
1066.834, 1.041901
1067.316, 1.250389
1067.798, 1.364670
1068.280, 1.367729
1068.762, 1.289383
1069.244, 1.106064
1069.726, 0.8758620
1070.208, 0.5660020
1070.691, 0.2677380
1071.173, 0.3893810
1071.655, 1.140800
1072.137, 1.497437
1072.619, 1.185371
1073.101, 0.7172850
1073.583, 0.8150860
1074.065, 1.187981
1074.548, 1.372910
1075.030, 1.279945
1075.512, 1.127892
1075.994, 0.8705290
1076.476, 0.6946030
1076.958, 0.7049410
1077.440, 0.8595430
1077.922, 1.050011
1078.405, 1.249908
1078.887, 1.326599
1079.369, 1.141548
1079.851, 0.9811400
1080.333, 1.073662
1080.815, 1.231949
1081.297, 1.246300
1081.779, 1.087425
1082.261, 0.9386750
1082.744, 0.7958220
1083.226, 0.7005460
1083.708, 0.7110600
1084.190, 0.7620930
1084.672, 0.7766720
1085.154, 0.7683940
1085.636, 0.8015980
1086.118, 0.8875810
1086.601, 1.017693
1087.083, 1.212669
1087.565, 1.394318
1088.047, 1.487823
1088.529, 1.490944
1089.011, 1.368645
1089.493, 1.119041
1089.975, 0.9001770
1090.458, 0.7768100
1090.940, 0.7013170
1091.422, 0.6576230
1091.904, 0.6455760
1092.386, 0.6591190
1092.868, 0.7019270
1093.350, 0.8202740
1093.832, 1.069839
1094.314, 1.258957
1094.797, 1.264427
1095.279, 1.139412
1095.761, 0.8788150
1096.243, 0.4689940
1096.725, 0.3345340
1097.207, 0.4983440
1097.689, 0.6835860
1098.171, 0.6977160
1098.653, 0.6951520
1099.136, 0.9761730
1099.618, 1.346283
1100.100, 1.410156
1100.582, 0.6862790
1101.064, 0.4553150
1101.546, 0.9103850
1102.028, 1.449585
1102.510, 1.487602
1102.993, 1.214638
1103.475, 1.041389
1103.957, 0.9613040
1104.439, 0.8203130
1104.921, 0.3396990
1105.403, 9.0057001E-02
1105.885, 0.2970430
1106.367, 0.7079090
1106.849, 0.9219440
1107.332, 0.9487230
1107.814, 0.7697680
1108.296, 0.3590320
1108.778, 6.9527000E-02
1109.260, 0.3158260
1109.742, 0.5773620
1110.224, 0.4276280
1110.706, 0.5809330
1111.188, 0.6727370
1111.671, 0.4578170
1112.153, 0.6993790
1112.635, 0.4272000
1113.117, 4.9042001E-02
1113.599, 5.7785001E-02
1114.081, 2.7634000E-02
1114.563, 2.5017001E-02
1115.045, 0.1033400
1115.528, 2.3368999E-02
1116.010, 0.4364780
1116.492, 0.7074660
1116.974, 0.4603500
1117.456, 4.6027999E-02
1117.938, 8.5097998E-02
1118.420, 0.3894500
1118.902, 0.5543290
1119.385, 0.3079760
1119.867, 0.1415710
1120.349, 7.5324997E-02
1120.831, 9.9770002E-02
1121.313, 0.2976070
1121.795, 0.5627210
1122.277, 0.5116580
1122.759, 0.1981280
1123.241, 5.9499999E-04
1123.724, 0.3195500
1124.206, 0.4777830
1124.688, 0.1883390
1125.170, 0.2676390
1125.652, 0.4732280
1126.134, 0.4488300
1126.616, 0.2449420
1127.098, 0.1404570
1127.580, 0.3593140
1128.063, 3.7932999E-02
1128.545, 0.4743120
1129.027, 0.5544430
1129.509, 0.3752140
1129.991, 0.2889630
1130.473, 0.3004070
1130.955, 8.2405001E-02
1131.437, 0.5452350
1131.920, 1.046127
1132.402, 0.7147750
1132.884, 0.1460420
1133.366, 3.6201000E-02
1133.848, 0.2457120
1134.330, 0.3395230
1134.812, 0.1943440
1135.294, 0.1446760
1135.776, 0.3773350
1136.259, 0.7071150
1136.741, 0.9072340
1137.223, 1.027992
1137.705, 1.159889
1138.187, 1.383713
1138.669, 1.431152
1139.151, 1.215302
1139.633, 1.044693
1140.115, 1.254929
1140.598, 1.588547
1141.080, 1.334320
1141.562, 0.7451320
1142.044, 0.5207210
1142.526, 1.537903
1143.008, 1.990303
1143.490, 1.431007
1143.972, 0.6817170
1144.455, 0.6015090
1144.937, 1.002716
1145.419, 1.329926
1145.901, 1.545074
1146.383, 1.603561
1146.865, 1.274498
1147.347, 1.044342
1147.829, 1.073326
1148.312, 1.255188
1148.794, 1.430489
1149.276, 1.608833
1149.758, 1.874168
1150.240, 2.238487
1150.722, 2.491714
1151.204, 2.467964
1151.686, 2.319313
1152.168, 2.076378
1152.651, 1.793991
1153.133, 1.642265
1153.615, 1.593262
1154.097, 1.589005
1154.579, 1.665977
1155.061, 1.786667
1155.543, 2.009132
1156.025, 2.175194
1156.507, 2.132507
1156.990, 1.930367
1157.472, 1.826347
1157.954, 1.828598
1158.436, 1.804634
1158.918, 1.697723
1159.400, 1.607788
1159.882, 1.661041
1160.364, 1.738838
1160.847, 1.698891
1161.329, 1.776657
1161.811, 1.905563
1162.293, 1.850922
1162.775, 2.133453
1163.257, 2.137047
1163.739, 2.065384
1164.221, 2.228516
1164.703, 2.476196
1165.186, 2.543541
1165.668, 2.218559
1166.150, 2.113670
1166.632, 2.283966
1167.114, 2.475334
1167.596, 2.479836
1168.078, 2.399620
1168.560, 2.410141
1169.042, 2.477821
1169.525, 2.510803
1170.007, 2.582985
1170.489, 2.402435
1170.971, 1.815002
1171.453, 1.324310
1171.935, 1.570564
1172.417, 2.189537
1172.899, 2.503670
1173.382, 2.530251
1173.864, 2.442497
1174.346, 2.157310
1174.828, 1.937836
1175.310, 1.761955
1175.792, 1.767273
1176.274, 2.380066
1176.756, 3.238632
1177.239, 3.369034
1177.721, 2.749863
1178.203, 2.343895
1178.685, 2.783669
1179.167, 3.165726
1179.649, 3.292168
1180.131, 3.226685
1180.613, 2.972801
1181.095, 2.634644
1181.578, 2.581337
1182.060, 2.880600
1182.542, 3.088821
1183.024, 2.930000
1183.506, 2.695923
1183.988, 2.455139
1184.470, 2.277260
1184.952, 2.373108
1185.434, 2.651649
1185.917, 2.848366
1186.399, 2.879120
1186.881, 2.833649
1187.363, 2.629395
1187.845, 2.524063
1188.327, 2.737625
1188.809, 3.112610
1189.291, 2.863373
1189.774, 2.137115
1190.256, 1.679008
1190.738, 1.810722
1191.220, 1.986893
1191.702, 1.926102
1192.184, 1.858231
1192.666, 1.976570
1193.148, 1.846176
1193.630, 2.128029
1194.113, 1.761726
1194.595, 1.516457
1195.077, 1.577332
1195.559, 1.753044
1196.041, 2.210403
1196.523, 2.507767
1197.005, 2.176857
1197.487, 1.281799
1197.969, 0.9974670
1198.452, 1.252838
1198.934, 1.489250
1199.416, 1.272629
1199.898, 1.149590
1200.380, 1.599960
1200.862, 2.111664
1201.344, 2.127304
1201.826, 1.647514
1202.309, 1.405075
1202.791, 1.393745
1203.273, 1.466301
1203.755, 1.769257
1204.237, 1.869476
1204.719, 1.261398
1205.201, 0.5079500
1205.683, 0.3395390
1206.166, 0.7448040
1206.648, 0.9165650
1207.130, 0.8320470
1207.612, 0.6996690
1208.094, 0.6226650
1208.576, 0.5663680
1209.058, 0.6032260
1209.540, 0.5966030
1210.022, 0.2345500
1210.505, 0.4586030
1210.987, 0.5512920
1211.469, 4.9060001E-03
1211.951, 0.4350280
1212.433, 5.5130001E-02
1212.915, 0.5169830
1213.397, 0.3167040
1213.879, 0.2070620
1214.361, 0.5581360
1214.844, 0.7341770
1215.326, 0.6249470
1215.808, 0.2147980
1216.290, 0.1433330
1216.772, 0.2891770
1217.254, 0.2224040
1217.736, 0.1996610
1218.218, 0.7539750
1218.701, 0.9717480
1219.183, 0.8778760
1219.665, 0.7828450
1220.147, 0.7337110
1220.629, 0.6656110
1221.111, 0.4572750
1221.593, 0.3030700
1222.075, 0.3155900
1222.557, 0.4469910
1223.040, 0.6251370
1223.522, 0.8320010
1224.004, 0.8897930
1224.486, 0.7514800
1224.968, 0.6499630
1225.450, 0.8157500
1225.932, 0.9596330
1226.414, 0.8998950
1226.896, 0.7298050
1227.379, 0.7275920
1227.861, 0.8734970
1228.343, 1.100777
1228.825, 1.428192
1229.307, 1.608215
1229.789, 1.420609
1230.271, 1.118187
1230.753, 0.7540890
1231.236, 0.4187620
1231.718, 0.5412980
1232.200, 0.9809420
1232.682, 1.127441
1233.164, 0.7589870
1233.646, 0.4279250
1234.128, 0.4241940
1234.610, 0.5062710
1235.093, 0.5885090
1235.575, 0.6568680
1236.057, 0.6227720
1236.539, 0.5320970
1237.021, 0.5632480
1237.503, 0.8283690
1237.985, 0.9757310
1238.467, 0.7604220
1238.949, 0.5320210
1239.432, 0.4345780
1239.914, 0.4366530
1240.396, 0.4643550
1240.878, 0.5218120
1241.360, 0.5853810
1241.842, 0.5503230
1242.324, 0.8912050
1242.806, 2.164459
1243.288, 3.067131
1243.771, 2.825409
1244.253, 1.888649
1244.735, 1.241264
1245.217, 0.8543090
1245.699, 0.6709060
1246.181, 0.7548220
1246.663, 0.8217930
1247.145, 0.8247760
1247.628, 0.8340910
1248.110, 0.8831250
1248.592, 0.9676130
1249.074, 1.141594
1249.556, 1.325340
1250.038, 1.347710
1250.520, 1.024078
1251.002, 0.9404530
1251.484, 1.224556
1251.967, 1.406502
1252.449, 1.069641
1252.931, 0.6263960
1253.413, 0.8708570
1253.895, 1.445801
1254.377, 1.682587
1254.859, 1.259811
1255.341, 1.020782
1255.823, 0.9341200
1256.306, 0.9545290
1256.788, 1.178535
1257.270, 1.327904
1257.752, 1.368462
1258.234, 1.267273
1258.716, 1.016594
1259.198, 0.4751890
1259.680, 0.5003970
1260.163, 1.102234
1260.645, 1.646751
1261.127, 1.816818
1261.609, 1.733368
1262.091, 1.309319
1262.573, 0.8117220
1263.055, 0.6184230
1263.537, 0.7727360
1264.020, 0.9487610
1264.502, 1.146027
1264.984, 1.316978
1265.466, 1.407639
1265.948, 1.490440
1266.430, 1.601028
1266.912, 1.736069
1267.394, 1.916771
1267.876, 2.142441
1268.359, 2.184395
1268.841, 2.058319
1269.323, 1.904007
1269.805, 1.739250
1270.287, 1.641106
1270.769, 1.701279
1271.251, 1.798462
1271.733, 1.855507
1272.215, 1.870361
1272.698, 1.807007
1273.180, 1.677483
1273.662, 1.536293
1274.144, 1.410507
1274.626, 1.266235
1275.108, 1.032150
1275.590, 0.8700410
1276.072, 0.9370040
1276.555, 1.173531
1277.037, 1.432198
1277.519, 1.683144
1278.001, 1.843002
1278.483, 1.825783
1278.965, 1.790604
1279.447, 1.758247
1279.929, 1.684418
1280.411, 1.523956
1280.894, 1.309113
1281.376, 0.9927140
1281.858, 0.6901630
1282.340, 0.6732330
1282.822, 1.339836
1283.304, 1.529770
1283.786, 1.153839
1284.268, 0.7446900
1284.750, 0.6661220
1285.233, 0.7487410
1285.715, 0.8811950
1286.197, 1.001495
1286.679, 0.9820860
1287.161, 0.7625270
1287.643, 0.6609500
1288.125, 0.6798630
1288.607, 0.7394260
1289.090, 0.8446580
1289.572, 0.9064940
1290.054, 0.8676830
1290.536, 0.7369690
1291.018, 0.4859540
1291.500, 0.1000750
1291.982, 0.1048970
1292.464, 0.4528880
1292.947, 0.7120440
1293.429, 0.5963820
1293.911, 0.4313280
1294.393, 0.3386000
1294.875, 0.2756580
1295.357, 0.2153930
1295.839, 0.1576160
1296.321, 5.4382000E-02
1296.803, 4.3549001E-02
1297.286, 5.2131999E-02
1297.768, 0.7588200
1298.250, 1.043991
1298.732, 0.5658190
1299.214, 1.1400000E-04
1299.696, 4.5563001E-02
1300.178, 0.2177730
1300.660, 0.0000000E+00
##END=



