##NAMES=Cianciulliite
##RRUFFID=R150124
##IDEAL CHEMISTRY=Mg_2_Mn^2+^Zn^2+^_2_(OH)_10_&#183;2-4H_2_O
##LOCALITY=Franklin Mine, Franklin, Sussex Co., New Jersey, USA
##OWNER=RRUFF
##SOURCE=Van King
##DESCRIPTION=Yellow brown aggregate. A cotype sample from Peter J. Dunn.
##STATUS=unconfirmed
##URL=rruff.info/R150124
115.3354, 0.0000000E+00
115.8175, 0.7599180
116.2996, 7.2417997E-02
116.7817, 0.3544620
117.2639, 4.553955
117.7460, 10.02646
118.2281, 13.63095
118.7102, 13.19534
119.1923, 11.25412
119.6744, 3.535522
120.1566, 10.13919
120.6387, 13.75128
121.1208, 14.52856
121.6029, 3.904663
122.0850, 8.043182
122.5671, 6.284912
123.0493, 4.296570
123.5314, 10.55264
124.0135, 1.664368
124.4956, 7.820740
124.9777, 7.987335
125.4598, 10.90747
125.9420, 7.885986
126.4241, 6.704376
126.9062, 11.47281
127.3883, 12.94876
127.8704, 9.248505
128.3525, 12.35345
128.8347, 3.302979
129.3168, 4.922699
129.7989, 11.14905
130.2810, 7.128479
130.7631, 7.662109
131.2452, 8.690155
131.7274, 11.22275
132.2095, 14.11096
132.6916, 13.57999
133.1737, 9.192963
133.6558, 4.278564
134.1379, 2.146454
134.6201, 2.760437
135.1022, 3.676575
135.5843, 4.327271
136.0664, 4.715546
136.5485, 4.543182
137.0306, 3.423889
137.5128, 2.672882
137.9949, 4.273590
138.4770, 8.802307
138.9591, 12.95761
139.4412, 15.73181
139.9233, 17.02829
140.4055, 17.88022
140.8876, 18.40341
141.3697, 18.38663
141.8518, 17.04218
142.3339, 13.22751
142.8160, 10.36374
143.2982, 10.14673
143.7803, 14.01666
144.2624, 16.12817
144.7445, 15.48541
145.2266, 13.18454
145.7087, 11.88403
146.1909, 11.81027
146.6730, 11.81241
147.1551, 12.32437
147.6372, 15.36942
148.1193, 17.13858
148.6014, 16.05890
149.0836, 13.21426
149.5657, 11.68866
150.0478, 12.62692
150.5299, 14.22604
151.0120, 15.66599
151.4941, 17.59482
151.9763, 18.64529
152.4584, 18.55536
152.9405, 17.46747
153.4226, 16.07452
153.9047, 13.45197
154.3868, 11.35553
154.8690, 10.67276
155.3511, 13.75055
155.8332, 15.77954
156.3153, 15.69315
156.7974, 13.69537
157.2795, 11.65366
157.7617, 9.227356
158.2438, 7.304871
158.7259, 6.618652
159.2080, 9.495270
159.6901, 11.60287
160.1722, 10.84259
160.6544, 7.458221
161.1365, 5.186707
161.6186, 6.057465
162.1007, 8.422363
162.5828, 10.61981
163.0649, 11.93771
163.5471, 12.46533
164.0292, 11.83011
164.5113, 10.01892
164.9934, 8.404480
165.4755, 8.144257
165.9576, 8.347626
166.4398, 7.959564
166.9219, 5.622803
167.4040, 3.168854
167.8861, 1.918060
168.3682, 1.986267
168.8503, 2.540802
169.3325, 3.437195
169.8146, 4.461456
170.2967, 5.262360
170.7788, 5.456940
171.2609, 5.097107
171.7430, 3.974640
172.2252, 2.004211
172.7073, 0.3981630
173.1894, 0.5865780
173.6715, 1.856445
174.1536, 2.785309
174.6357, 2.749695
175.1179, 1.990997
175.6000, 0.4432370
176.0821, 2.103333
176.5642, 4.236725
177.0463, 4.168732
177.5284, 2.441681
178.0106, 0.7260130
178.4927, 0.2174680
178.9748, 0.5374450
179.4569, 0.3199770
179.9390, 0.5534970
180.4211, 1.453705
180.9033, 1.569214
181.3854, 1.028625
181.8675, 0.4472960
182.3496, 0.4400330
182.8317, 0.6403500
183.3138, 4.3976001E-02
183.7960, 1.631683
184.2781, 3.605652
184.7602, 4.777771
185.2423, 5.208649
185.7244, 5.342529
186.2065, 5.483826
186.6887, 5.551117
187.1708, 5.201691
187.6529, 4.324982
188.1350, 3.187592
188.6171, 2.124329
189.0992, 1.121399
189.5814, 0.4147950
190.0635, 0.1390990
190.5456, 0.2991030
191.0277, 1.028229
191.5098, 2.576752
191.9919, 4.329987
192.4741, 4.776825
192.9562, 3.859222
193.4383, 2.969727
193.9204, 3.039886
194.4025, 4.030060
194.8846, 5.495148
195.3668, 7.779205
195.8489, 10.05542
196.3310, 9.878204
196.8131, 6.934937
197.2952, 3.990051
197.7773, 3.184174
198.2595, 4.599792
198.7416, 5.328308
199.2237, 4.731232
199.7058, 3.464935
200.1879, 3.689362
200.6700, 5.806335
201.1522, 7.635345
201.6343, 7.319183
202.1164, 4.576996
202.5985, 2.577545
203.0806, 1.703949
203.5627, 1.801697
204.0449, 2.825867
204.5270, 5.208893
205.0091, 7.133179
205.4912, 6.851227
205.9733, 3.758728
206.4554, 2.141357
206.9376, 3.175690
207.4197, 5.862885
207.9018, 6.063324
208.3839, 2.865234
208.8660, 0.4919130
209.3481, 1.682068
209.8303, 0.3066410
210.3124, 1.462036
210.7945, 3.686859
211.2766, 6.093842
211.7587, 7.526581
212.2408, 7.688141
212.7230, 7.506927
213.2051, 7.683075
213.6872, 8.488434
214.1693, 8.649323
214.6514, 7.749847
215.1335, 6.075500
215.6157, 5.134338
216.0978, 5.229706
216.5799, 5.456543
217.0620, 5.065277
217.5441, 3.537415
218.0262, 2.943909
218.5084, 3.786316
218.9905, 5.732269
219.4726, 7.160370
219.9547, 8.108337
220.4368, 8.520752
220.9189, 8.212860
221.4011, 6.703369
221.8832, 5.842865
222.3653, 6.239471
222.8474, 7.420990
223.3295, 7.052277
223.8116, 4.239746
224.2938, 1.313019
224.7759, 0.3662110
225.2580, 0.5530090
225.7401, 4.5837000E-02
226.2222, 1.231995
226.7043, 3.166840
227.1865, 5.581085
227.6686, 9.374512
228.1507, 12.22864
228.6328, 12.49255
229.1149, 8.650146
229.5970, 5.777863
230.0792, 4.350769
230.5613, 4.093475
231.0434, 4.177094
231.5255, 4.965912
232.0076, 5.595947
232.4897, 5.476746
232.9719, 3.929169
233.4540, 3.202179
233.9361, 3.679321
234.4182, 4.907593
234.9003, 5.239532
235.3824, 3.985962
235.8646, 3.082550
236.3467, 3.518707
236.8288, 5.984772
237.3109, 8.155609
237.7930, 9.965546
238.2751, 11.36304
238.7573, 12.09338
239.2394, 11.95813
239.7215, 11.52130
240.2036, 10.98132
240.6857, 10.33093
241.1678, 9.560272
241.6500, 8.548584
242.1321, 7.441620
242.6142, 6.664459
243.0963, 6.330292
243.5784, 6.160248
244.0605, 6.141083
244.5427, 6.669922
245.0248, 6.275543
245.5069, 4.156708
245.9890, 1.463684
246.4711, 0.9242250
246.9532, 3.813812
247.4354, 6.391388
247.9175, 7.057953
248.3996, 5.059326
248.8817, 3.825256
249.3638, 3.705627
249.8459, 4.137787
250.3281, 4.036163
250.8102, 3.016052
251.2923, 2.111542
251.7744, 1.599609
252.2565, 1.414734
252.7386, 2.062958
253.2208, 4.120361
253.7029, 6.589722
254.1850, 7.913422
254.6671, 7.731842
255.1492, 7.033417
255.6313, 5.882874
256.1135, 4.083923
256.5956, 3.319244
257.0777, 3.895599
257.5598, 5.157593
258.0419, 6.453247
258.5240, 8.256134
259.0062, 8.932190
259.4883, 7.382599
259.9704, 3.324341
260.4525, 1.867737
260.9346, 4.404602
261.4167, 7.858704
261.8989, 8.246735
262.3810, 3.908844
262.8631, 1.059540
263.3452, 1.721802
263.8273, 5.870972
264.3094, 8.103394
264.7916, 7.985382
265.2737, 6.819885
265.7558, 5.640472
266.2379, 4.226959
266.7200, 3.464539
267.2021, 3.788879
267.6843, 5.207336
268.1664, 6.232635
268.6485, 6.794983
269.1306, 6.948486
269.6127, 6.645874
270.0948, 5.770264
270.5770, 4.816345
271.0591, 3.556274
271.5412, 2.294586
272.0233, 2.818817
272.5054, 5.689514
272.9875, 8.752106
273.4697, 10.41199
273.9518, 10.51224
274.4339, 10.37143
274.9160, 10.06577
275.3981, 9.666931
275.8802, 9.300018
276.3624, 8.902466
276.8445, 8.855591
277.3266, 9.681793
277.8087, 11.48782
278.2908, 12.53210
278.7729, 12.56784
279.2551, 11.88065
279.7372, 10.99222
280.2193, 9.872559
280.7014, 8.827698
281.1835, 8.018738
281.6656, 7.432404
282.1478, 6.859436
282.6299, 6.253571
283.1120, 5.679932
283.5941, 5.061920
284.0762, 4.371094
284.5583, 4.230682
285.0405, 5.453064
285.5226, 7.785736
286.0047, 8.647034
286.4868, 7.776642
286.9689, 6.255951
287.4510, 5.510315
287.9332, 5.517120
288.4153, 5.534729
288.8974, 5.233185
289.3795, 4.696564
289.8616, 4.129089
290.3438, 3.476288
290.8259, 3.124908
291.3080, 4.120789
291.7901, 6.109894
292.2722, 6.928131
292.7543, 5.286377
293.2365, 2.263519
293.7186, 5.0841998E-02
294.2007, 1.335480
294.6828, 1.468140
295.1649, 1.168915
295.6470, 5.565338
296.1292, 8.412598
296.6113, 8.360474
297.0934, 6.832703
297.5755, 6.144592
298.0576, 6.196320
298.5397, 5.956451
299.0219, 4.151184
299.5040, 1.551331
299.9861, 0.2838440
300.4682, 1.084503
300.9503, 0.9008180
301.4324, 1.292053
301.9146, 4.820618
302.3967, 6.938629
302.8788, 4.023102
303.3609, 0.7987060
303.8430, 2.566406
304.3251, 2.4261000E-02
304.8073, 3.334808
305.2894, 3.945587
305.7715, 2.625244
306.2536, 1.297272
306.7357, 0.6972660
307.2178, 0.7639770
307.7000, 1.549561
308.1821, 3.213959
308.6642, 4.705078
309.1463, 4.805450
309.6284, 4.281616
310.1105, 4.332886
310.5927, 6.333405
311.0748, 8.483948
311.5569, 9.742310
312.0390, 10.05820
312.5211, 9.352509
313.0032, 6.369995
313.4854, 2.802429
313.9675, 0.4786380
314.4496, 1.143860
314.9317, 2.198486
315.4138, 2.402649
315.8959, 1.887817
316.3781, 1.471191
316.8602, 1.232330
317.3423, 1.397217
317.8244, 2.253540
318.3065, 5.072632
318.7886, 6.864410
319.2708, 5.704773
319.7529, 2.627960
320.2350, 0.5366520
320.7171, 0.7297060
321.1992, 1.816711
321.6813, 3.329620
322.1635, 5.799896
322.6456, 7.250336
323.1277, 6.713318
323.6098, 5.007172
324.0919, 3.498962
324.5740, 2.408112
325.0562, 1.548828
325.5383, 0.8836980
326.0204, 0.4112240
326.5025, 0.1493840
326.9846, 0.2324220
327.4667, 0.4192810
327.9489, 0.5622560
328.4310, 0.5964360
328.9131, 0.7268370
329.3952, 0.9190980
329.8773, 1.179474
330.3594, 1.906006
330.8416, 3.906311
331.3237, 5.665253
331.8058, 5.988739
332.2879, 3.480194
332.7700, 1.944550
333.2521, 2.145905
333.7343, 3.635040
334.2164, 4.090118
334.6985, 2.726990
335.1806, 1.477905
335.6627, 1.617279
336.1448, 3.982666
336.6270, 5.197418
337.1091, 4.688690
337.5912, 3.165131
338.0733, 2.649933
338.5554, 3.441559
339.0375, 4.485809
339.5197, 5.546387
340.0018, 6.656952
340.4839, 6.967346
340.9660, 6.344849
341.4481, 5.180634
341.9302, 3.625641
342.4124, 1.562683
342.8945, 0.7402650
343.3766, 2.386475
343.8587, 5.666901
344.3408, 6.655762
344.8229, 4.558441
345.3051, 1.867340
345.7872, 0.4987790
346.2693, 0.4956970
346.7514, 0.8655700
347.2335, 1.580292
347.7156, 2.793701
348.1978, 5.329254
348.6799, 9.261414
349.1620, 11.95648
349.6441, 11.14615
350.1262, 8.167786
350.6083, 6.260040
351.0905, 5.934387
351.5726, 6.120209
352.0547, 5.406921
352.5368, 4.142273
353.0189, 3.343231
353.5010, 3.356293
353.9832, 4.114563
354.4653, 6.271881
354.9474, 9.963501
355.4295, 12.37393
355.9116, 9.449493
356.3937, 4.185059
356.8759, 1.116547
357.3580, 4.121704
357.8401, 7.967072
358.3222, 8.843048
358.8043, 7.220612
359.2864, 5.711151
359.7686, 5.757141
360.2507, 6.455017
360.7328, 7.074066
361.2149, 7.431244
361.6970, 7.503815
362.1791, 7.783203
362.6613, 7.875854
363.1434, 7.035278
363.6255, 3.154297
364.1076, 0.2373350
364.5897, 1.181091
365.0718, 1.396057
365.5540, 3.480927
366.0361, 3.860535
366.5182, 3.549713
367.0003, 3.770233
367.4824, 6.219971
367.9645, 7.617798
368.4467, 6.632141
368.9288, 3.120728
369.4109, 0.9872130
369.8930, 1.003601
370.3751, 1.821350
370.8572, 2.578064
371.3394, 3.253754
371.8215, 3.840881
372.3036, 4.297852
372.7857, 4.692688
373.2678, 5.350861
373.7499, 6.745789
374.2321, 7.527832
374.7142, 6.651367
375.1963, 3.334595
375.6784, 2.610260
376.1605, 5.337433
376.6426, 9.185181
377.1248, 10.34869
377.6069, 8.338501
378.0890, 6.406036
378.5711, 5.626343
379.0532, 5.920837
379.5353, 6.707428
380.0175, 8.140442
380.4996, 9.228760
380.9817, 8.428223
381.4638, 6.095062
381.9459, 5.030151
382.4280, 6.367065
382.9102, 8.486115
383.3923, 7.440857
383.8744, 3.604645
384.3565, 0.8936460
384.8386, 3.332977
385.3207, 8.470398
385.8029, 11.01328
386.2850, 10.18140
386.7671, 8.145996
387.2492, 6.665894
387.7313, 5.687408
388.2134, 5.108673
388.6956, 5.077484
389.1777, 5.304504
389.6598, 5.785736
390.1419, 6.516663
390.6240, 6.784393
391.1061, 5.317627
391.5883, 3.414642
392.0704, 2.526337
392.5525, 4.241486
393.0346, 5.569183
393.5167, 3.952759
393.9988, 0.6002500
394.4810, 1.072479
394.9631, 1.719482
395.4452, 5.208679
395.9273, 7.624512
396.4094, 8.695953
396.8915, 8.924774
397.3737, 7.525482
397.8558, 5.606384
398.3379, 4.534546
398.8200, 5.457825
399.3021, 6.176697
399.7842, 6.154236
400.2664, 5.402710
400.7485, 4.598816
401.2306, 3.273712
401.7127, 2.351135
402.1948, 4.145233
402.6769, 7.878021
403.1591, 8.996735
403.6412, 0.2899480
404.1233, 3.844666
404.6054, 2.598541
405.0875, 1.135803
405.5696, 7.165497
406.0518, 0.5937190
406.5339, 5.352997
407.0160, 5.810516
407.4981, 8.764832
407.9802, 5.238403
408.4623, 5.982819
408.9445, 6.938843
409.4266, 7.411743
409.9087, 7.227814
410.3908, 6.615143
410.8729, 5.957275
411.3550, 5.288422
411.8372, 4.828918
412.3193, 4.519409
412.8014, 4.508789
413.2835, 5.334961
413.7656, 7.317749
414.2477, 9.203674
414.7299, 9.356842
415.2120, 8.353851
415.6941, 7.472778
416.1762, 7.731995
416.6583, 8.079865
417.1404, 7.120697
417.6226, 4.903931
418.1047, 3.513153
418.5868, 4.686066
419.0689, 6.993713
419.5510, 9.152344
420.0331, 11.24078
420.5153, 12.52872
420.9974, 12.44669
421.4795, 11.31140
421.9616, 9.897186
422.4437, 7.553162
422.9258, 5.826202
423.4080, 5.482880
423.8901, 7.145538
424.3722, 8.158875
424.8543, 7.830933
425.3364, 7.023651
425.8185, 6.577209
426.3007, 7.021088
426.7828, 7.027222
427.2649, 6.149750
427.7470, 4.609192
428.2291, 3.774445
428.7112, 3.959839
429.1934, 4.290161
429.6755, 4.237640
430.1576, 3.665497
430.6397, 3.513763
431.1218, 4.134888
431.6039, 4.646332
432.0861, 3.171173
432.5682, 0.4760740
433.0503, 3.290741
433.5324, 4.178009
434.0145, 3.433319
434.4966, 1.656158
434.9788, 1.207642
435.4609, 3.493835
435.9430, 3.316345
436.4251, 1.453491
436.9072, 5.8288999E-02
437.3893, 1.037964
437.8715, 1.100586
438.3536, 1.048523
438.8357, 4.600769
439.3178, 7.291748
439.7999, 7.421204
440.2820, 6.506226
440.7642, 5.823669
441.2463, 5.434387
441.7284, 4.947876
442.2105, 3.792114
442.6926, 2.657593
443.1747, 2.114197
443.6569, 2.525391
444.1390, 3.226013
444.6211, 4.398376
445.1032, 5.751892
445.5853, 6.403076
446.0674, 5.949341
446.5496, 5.007751
447.0317, 3.558411
447.5138, 1.091125
447.9959, 4.0955000E-02
448.4780, 1.411316
448.9601, 3.336182
449.4423, 3.468445
449.9244, 0.2536010
450.4065, 1.336304
450.8886, 7.7514999E-02
451.3707, 3.584351
451.8528, 5.338989
452.3350, 4.920654
452.8171, 4.134888
453.2992, 3.577148
453.7813, 3.198181
454.2634, 3.553772
454.7455, 4.912781
455.2277, 6.153015
455.7098, 5.266846
456.1919, 2.643005
456.6740, 1.081055
457.1561, 2.168274
457.6382, 4.272827
458.1204, 4.164246
458.6025, 2.163940
459.0846, 0.5714720
459.5667, 1.534973
460.0488, 3.790466
460.5309, 4.610779
461.0131, 3.322571
461.4952, 1.846252
461.9773, 2.283997
462.4594, 3.502319
462.9415, 4.050659
463.4236, 2.126953
463.9058, 0.5632320
464.3879, 1.828552
464.8700, 5.360474
465.3521, 7.420349
465.8342, 6.171204
466.3163, 3.884338
466.7985, 1.642883
467.2806, 1.354126
467.7627, 2.598328
468.2448, 0.6661380
468.7269, 2.438110
469.2090, 3.781494
469.6912, 2.019775
470.1733, 1.001465
470.6554, 1.841492
471.1375, 4.317627
471.6196, 6.256714
472.1017, 7.692139
472.5839, 8.474976
473.0660, 8.267395
473.5481, 7.056519
474.0302, 6.349060
474.5123, 6.400818
474.9944, 6.618958
475.4766, 5.892334
475.9587, 4.399902
476.4408, 3.392029
476.9229, 3.641968
477.4050, 4.484863
477.8871, 5.056152
478.3693, 5.330566
478.8514, 5.035889
479.3335, 2.843323
479.8156, 0.4564210
480.2977, 0.3546140
480.7798, 3.783508
481.2620, 6.671204
481.7441, 5.815979
482.2262, 3.088135
482.7083, 1.248718
483.1904, 1.108337
483.6725, 2.094177
484.1547, 4.595337
484.6368, 8.421936
485.1189, 11.45312
485.6010, 13.40979
486.0831, 14.45001
486.5652, 14.61926
487.0474, 13.52045
487.5295, 12.33002
488.0116, 10.57819
488.4937, 9.083191
488.9758, 9.261047
489.4579, 11.87958
489.9401, 13.77814
490.4222, 13.95227
490.9043, 12.69263
491.3864, 11.67108
491.8685, 11.02350
492.3506, 10.55206
492.8328, 10.18427
493.3149, 9.795410
493.7970, 9.220276
494.2791, 8.387451
494.7612, 7.453735
495.2433, 6.473938
495.7255, 5.611267
496.2076, 5.274597
496.6897, 5.999084
497.1718, 6.716187
497.6539, 5.963684
498.1360, 4.216553
498.6182, 3.307739
499.1003, 5.309875
499.5824, 7.741272
500.0645, 8.719482
500.5466, 7.725403
501.0287, 6.700989
501.5109, 5.827332
501.9930, 5.389526
502.4751, 5.672729
502.9572, 8.230164
503.4393, 9.648621
503.9214, 8.790894
504.4036, 6.469666
504.8857, 5.597900
505.3678, 6.906128
505.8499, 8.307556
506.3320, 9.148376
506.8141, 9.392273
507.2963, 8.892944
507.7784, 7.388611
508.2605, 5.541382
508.7426, 3.937256
509.2247, 2.620789
509.7068, 2.366882
510.1890, 3.644775
510.6711, 5.459961
511.1532, 5.886230
511.6353, 5.234314
512.1174, 5.034729
512.5995, 6.628662
513.0817, 8.781738
513.5638, 10.00946
514.0459, 10.24792
514.5280, 10.01666
515.0101, 9.626282
515.4922, 8.945801
515.9744, 8.503418
516.4565, 8.240723
516.9386, 8.587341
517.4207, 10.02026
517.9028, 11.98108
518.3849, 13.37775
518.8671, 14.25458
519.3492, 14.24438
519.8313, 12.38605
520.3134, 9.000977
520.7955, 7.444031
521.2776, 8.727905
521.7598, 10.30713
522.2419, 10.65051
522.7240, 9.326416
523.2061, 9.010498
523.6882, 10.01129
524.1703, 11.46735
524.6525, 12.13861
525.1346, 11.98376
525.6167, 11.88666
526.0988, 12.48914
526.5809, 13.14569
527.0630, 12.39124
527.5452, 10.45264
528.0273, 8.519592
528.5094, 6.978699
528.9915, 6.027954
529.4736, 6.116028
529.9557, 7.311584
530.4379, 8.440308
530.9200, 8.724548
531.4021, 8.634277
531.8842, 8.644714
532.3663, 9.073181
532.8484, 9.302063
533.3306, 9.013855
533.8127, 8.423401
534.2948, 7.997253
534.7769, 8.472351
535.2590, 8.266052
535.7411, 6.466553
536.2233, 3.179688
536.7054, 2.110840
537.1875, 4.221741
537.6696, 6.713074
538.1517, 7.919983
538.6339, 7.808594
539.1160, 6.745483
539.5981, 4.327454
540.0802, 2.176147
540.5623, 2.919128
541.0444, 6.054810
541.5266, 8.795715
542.0087, 10.40588
542.4908, 11.02240
542.9729, 10.45258
543.4550, 8.914429
543.9371, 5.879028
544.4193, 8.036926
544.9014, 9.166321
545.3835, 9.322510
545.8656, 5.585510
546.3477, 6.879456
546.8298, 6.159546
547.3120, 5.358765
547.7941, 7.365662
548.2762, 4.204163
548.7583, 6.171997
549.2404, 6.096924
549.7225, 6.961304
550.2047, 5.800476
550.6868, 5.268127
551.1689, 6.765991
551.6510, 7.142395
552.1331, 5.755554
552.6152, 6.691956
553.0974, 3.484070
553.5795, 3.917725
554.0616, 5.923279
554.5437, 4.649597
555.0258, 5.633728
555.5079, 5.760315
555.9901, 1.983948
556.4722, 5.000305
556.9543, 5.081604
557.4364, 2.149109
557.9185, 4.938171
558.4006, 5.772522
558.8828, 6.850403
559.3649, 6.201355
559.8470, 5.069763
560.3291, 3.163818
560.8112, 1.570129
561.2933, 0.9612430
561.7755, 1.358032
562.2576, 1.420959
562.7397, 0.1763310
563.2218, 0.8112180
563.7039, 0.6519780
564.1860, 1.443604
564.6682, 2.605225
565.1503, 2.585876
565.6324, 1.977112
566.1145, 1.383057
566.5966, 0.7599490
567.0787, 0.7840580
567.5609, 1.987427
568.0430, 3.463562
568.5251, 2.938416
569.0072, 0.6383670
569.4893, 1.643616
569.9714, 3.315796
570.4536, 4.223389
570.9357, 3.653076
571.4178, 1.731018
571.8999, 0.3110350
572.3820, 6.755493
572.8641, 0.5359500
573.3463, 3.164429
573.8284, 4.478516
574.3105, 3.614746
574.7926, 0.3425900
575.2747, 0.5881960
575.7568, 1.759888
576.2390, 3.773499
576.7211, 3.168457
577.2032, 2.173096
577.6853, 2.552429
578.1674, 5.141724
578.6495, 2.812744
579.1317, 1.948120
579.6138, 5.919678
580.0959, 7.148376
580.5780, 4.090637
581.0601, 6.572021
581.5422, 0.9599000
582.0244, 0.2162480
582.5065, 5.125671
582.9886, 2.104187
583.4707, 4.466492
583.9528, 0.2908330
584.4349, 0.2788090
584.9171, 0.9402470
585.3992, 0.7828370
585.8813, 1.809082
586.3634, 3.872192
586.8455, 3.603271
587.3276, 1.810608
587.8098, 0.7075810
588.2919, 0.8882450
588.7740, 1.659302
589.2561, 3.160278
589.7382, 5.419556
590.2203, 6.390869
590.7025, 5.464905
591.1846, 4.323059
591.6667, 4.237122
592.1488, 5.336548
592.6309, 5.285889
593.1130, 3.618103
593.5952, 2.260010
594.0773, 4.749329
594.5594, 9.827209
595.0415, 12.35620
595.5236, 10.33441
596.0057, 6.682068
596.4879, 3.499390
596.9700, 1.201111
597.4521, 0.8092040
597.9342, 5.205566
598.4163, 9.515503
598.8984, 10.88391
599.3806, 9.507507
599.8627, 7.810059
600.3448, 5.483948
600.8269, 3.690369
601.3090, 2.949158
601.7911, 3.386047
602.2733, 4.476807
602.7554, 6.659241
603.2375, 8.873047
603.7196, 10.10425
604.2017, 10.30762
604.6838, 9.915039
605.1660, 8.687988
605.6481, 7.555420
606.1302, 8.415588
606.6123, 10.84583
607.0944, 12.85614
607.5765, 13.51385
608.0587, 13.59436
608.5408, 13.84393
609.0229, 14.25854
609.5050, 14.83868
609.9871, 15.95697
610.4692, 16.92542
610.9514, 16.97998
611.4335, 15.98322
611.9156, 15.98157
612.3977, 19.24658
612.8798, 22.18433
613.3619, 22.38708
613.8441, 17.50464
614.3262, 15.69409
614.8083, 17.80273
615.2904, 21.80182
615.7725, 25.65472
616.2546, 29.44690
616.7368, 31.54706
617.2189, 31.32056
617.7010, 29.85901
618.1831, 28.90527
618.6652, 28.40039
619.1473, 28.10864
619.6295, 27.74042
620.1116, 27.65826
620.5937, 28.38965
621.0758, 29.77386
621.5579, 31.18738
622.0400, 33.01337
622.5222, 34.18848
623.0043, 33.47083
623.4864, 30.02979
623.9685, 28.96356
624.4506, 33.00574
624.9327, 37.68573
625.4149, 39.98486
625.8970, 38.90649
626.3791, 38.30237
626.8612, 38.17645
627.3433, 38.70966
627.8254, 40.87054
628.3076, 44.54547
628.7897, 46.59216
629.2718, 45.64935
629.7539, 43.71924
630.2360, 43.57288
630.7181, 45.33777
631.2003, 47.68622
631.6824, 51.01599
632.1645, 53.83307
632.6466, 55.37964
633.1287, 55.56860
633.6108, 54.71869
634.0930, 50.68701
634.5751, 47.54913
635.0572, 48.33984
635.5393, 54.20697
636.0214, 57.75220
636.5035, 57.94495
636.9857, 57.06567
637.4678, 56.59656
637.9499, 56.46417
638.4320, 57.42883
638.9141, 59.78943
639.3962, 62.48175
639.8784, 64.21973
640.3605, 65.09943
640.8426, 65.70831
641.3247, 66.25391
641.8068, 66.49756
642.2889, 65.62726
642.7711, 64.25500
643.2532, 63.78638
643.7353, 65.46979
644.2174, 67.61371
644.6995, 69.76447
645.1816, 71.80554
645.6638, 73.19708
646.1459, 72.99255
646.6280, 73.01746
647.1101, 74.08319
647.5922, 76.28516
648.0743, 77.53772
648.5565, 77.57770
649.0386, 77.30029
649.5207, 77.26111
650.0028, 77.46277
650.4849, 78.24243
650.9670, 79.74963
651.4492, 80.89642
651.9313, 80.05414
652.4134, 78.09277
652.8955, 76.73096
653.3776, 76.64703
653.8597, 76.63116
654.3419, 75.34583
654.8240, 73.77142
655.3061, 73.47186
655.7882, 77.32104
656.2703, 79.68793
656.7524, 78.22656
657.2346, 74.42603
657.7167, 72.65576
658.1988, 73.73639
658.6809, 74.89874
659.1630, 75.26324
659.6451, 74.92407
660.1273, 74.28107
660.6094, 73.29108
661.0915, 72.52118
661.5736, 72.54871
662.0557, 72.98071
662.5378, 73.09772
663.0200, 72.85516
663.5021, 72.35742
663.9842, 71.70941
664.4663, 70.88367
664.9484, 69.57495
665.4305, 67.39917
665.9127, 65.96619
666.3948, 66.82843
666.8769, 68.07574
667.3590, 67.48389
667.8411, 63.56097
668.3232, 61.14716
668.8054, 61.22070
669.2875, 62.40741
669.7696, 61.93427
670.2517, 59.77454
670.7338, 58.74518
671.2159, 60.36884
671.6981, 62.63403
672.1802, 61.65912
672.6623, 58.19739
673.1444, 54.89166
673.6265, 53.75946
674.1086, 52.78479
674.5908, 49.79993
675.0729, 45.30267
675.5550, 42.44452
676.0371, 43.78668
676.5192, 45.58844
677.0013, 46.35388
677.4835, 46.08881
677.9656, 44.63690
678.4477, 40.95752
678.9298, 37.97601
679.4119, 38.50287
679.8940, 42.59808
680.3762, 44.18817
680.8583, 42.80084
681.3404, 40.54523
681.8225, 39.80194
682.3046, 39.72882
682.7867, 38.29065
683.2689, 34.64343
683.7510, 31.52832
684.2331, 31.70691
684.7152, 33.41241
685.1973, 34.34430
685.6794, 33.30029
686.1616, 32.30182
686.6437, 31.67029
687.1258, 31.02191
687.6079, 29.16211
688.0900, 25.49518
688.5721, 22.63501
689.0543, 21.84619
689.5364, 22.28235
690.0185, 20.62964
690.5006, 17.34967
690.9827, 14.90186
691.4648, 16.30188
691.9470, 18.86780
692.4291, 17.83136
692.9112, 13.87939
693.3933, 10.84070
693.8754, 12.62665
694.3575, 14.74408
694.8397, 13.60870
695.3218, 8.763855
695.8039, 5.659302
696.2860, 6.307068
696.7681, 7.749390
697.2502, 8.507751
697.7324, 8.516541
698.2145, 8.426270
698.6966, 7.741333
699.1787, 7.104004
699.6608, 7.165344
700.1429, 7.583557
700.6251, 8.038513
701.1072, 8.473450
701.5893, 8.499817
702.0714, 7.419617
702.5535, 5.859924
703.0356, 4.941711
703.5178, 5.219238
703.9999, 5.738342
704.4820, 6.698059
704.9641, 7.515686
705.4462, 7.289734
705.9283, 4.242249
706.4105, 2.980103
706.8926, 5.162354
707.3747, 8.846130
707.8568, 9.139038
708.3389, 5.573547
708.8210, 3.063904
709.3032, 3.909119
709.7853, 6.259338
710.2674, 5.605652
710.7495, 2.589172
711.2316, 9.6619003E-02
711.7137, 0.2567750
712.1959, 0.4442140
712.6780, 2.087891
713.1601, 4.367432
713.6422, 5.239502
714.1243, 2.171204
714.6064, 0.5109860
715.0886, 0.7272950
715.5707, 1.620422
716.0528, 2.627991
716.5349, 1.819763
717.0170, 0.8910520
717.4991, 1.223083
717.9813, 2.573181
718.4634, 2.862671
718.9455, 2.006775
719.4276, 0.9399410
719.9097, 0.6481930
720.3918, 0.5711060
720.8740, 0.3433840
721.3561, 2.571106
721.8382, 3.818420
722.3203, 1.661316
722.8024, 1.185852
723.2845, 2.257813
723.7667, 0.5092770
724.2488, 1.733032
724.7309, 0.5789180
725.2130, 1.196655
725.6951, 1.270264
726.1772, 0.5338130
726.6594, 1.221497
727.1415, 0.1278690
727.6236, 1.644531
728.1057, 2.976196
728.5878, 3.780579
729.0699, 3.781311
729.5521, 2.413208
730.0342, 0.9765010
730.5163, 0.3250120
730.9984, 0.2284550
731.4805, 0.2735600
731.9626, 0.6550290
732.4448, 0.8228760
732.9269, 0.4895020
733.4090, 0.1328130
733.8911, 0.1509400
734.3732, 0.6386110
734.8553, 1.216919
735.3375, 1.237915
735.8196, 0.8607790
736.3017, 0.5211790
736.7838, 0.1808470
737.2659, 0.3865970
737.7480, 1.951782
738.2302, 3.310181
738.7123, 3.290955
739.1944, 2.071167
739.6765, 0.4761960
740.1586, 2.405823
740.6407, 4.468567
741.1229, 4.265991
741.6050, 1.945496
742.0871, 0.6452030
742.5692, 0.5775760
743.0513, 0.9963990
743.5334, 1.835876
744.0156, 2.316956
744.4977, 4.672729
744.9798, 5.243591
745.4619, 1.144409
745.9440, 1.452209
746.4261, 0.4564210
746.9083, 0.6816410
747.3904, 3.200439
747.8725, 2.141541
748.3546, 1.666870
748.8367, 1.826477
749.3188, 3.663757
749.8010, 1.885986
750.2831, 1.234131
750.7652, 4.208252
751.2473, 5.182556
751.7294, 3.011108
752.2115, 4.989746
752.6937, 0.4299930
753.1758, 0.6597290
753.6579, 4.581238
754.1400, 2.642700
754.6221, 4.715881
755.1042, 5.259766
755.5864, 1.162659
756.0685, 4.544617
756.5506, 5.015503
757.0327, 0.1145020
757.5148, 5.433777
757.9969, 1.287537
758.4791, 0.5242920
758.9612, 2.306152
759.4433, 1.439087
759.9254, 4.758423
760.4075, 4.055481
760.8896, 2.998474
761.3718, 3.517578
761.8539, 2.598328
762.3360, 3.932617
762.8181, 2.634460
763.3002, 4.145386
763.7823, 6.297241
764.2645, 3.590698
764.7466, 6.049744
765.2287, 0.5277100
765.7108, 1.700500
766.1929, 2.167969
766.6750, 6.909851
767.1572, 1.438293
767.6393, 2.429443
768.1214, 6.176147
768.6035, 6.080444
769.0856, 7.599365
769.5677, 4.351990
770.0499, 5.594055
770.5320, 5.608643
771.0141, 5.952087
771.4962, 6.221375
771.9783, 8.912720
772.4604, 10.93158
772.9426, 9.659973
773.4247, 6.652954
773.9068, 5.450378
774.3889, 8.544739
774.8710, 10.47314
775.3531, 9.822327
775.8353, 7.597961
776.3174, 6.926086
776.7995, 7.918030
777.2816, 8.304749
777.7637, 6.756958
778.2458, 4.704346
778.7280, 4.728516
779.2101, 6.202148
779.6922, 7.464233
780.1743, 7.930969
780.6564, 8.127014
781.1385, 7.813660
781.6207, 7.206360
782.1028, 7.476563
782.5849, 9.791504
783.0670, 11.54254
783.5491, 11.73187
784.0313, 10.76941
784.5134, 10.82855
784.9955, 12.03589
785.4776, 12.52045
785.9597, 10.55975
786.4418, 7.915283
786.9240, 7.411072
787.4061, 8.658386
787.8882, 10.29425
788.3703, 13.37811
788.8524, 14.97815
789.3345, 11.95837
789.8167, 5.305054
790.2988, 3.066162
790.7809, 8.184387
791.2630, 12.39191
791.7451, 12.48236
792.2272, 9.609253
792.7094, 9.050659
793.1915, 10.69653
793.6736, 11.75958
794.1557, 10.03656
794.6378, 7.209717
795.1199, 4.961792
795.6021, 3.348755
796.0842, 2.705811
796.5663, 4.221375
797.0484, 5.994873
797.5305, 7.320801
798.0126, 8.215149
798.4948, 8.415771
798.9769, 7.533997
799.4590, 6.951904
799.9411, 7.697693
800.4232, 9.104919
800.9053, 7.458252
801.3875, 3.028381
801.8696, 0.5435180
802.3517, 4.744751
802.8338, 10.32581
803.3159, 11.70746
803.7980, 9.762756
804.2802, 7.735535
804.7623, 5.851135
805.2444, 5.261230
805.7265, 6.598145
806.2086, 9.846924
806.6907, 10.58862
807.1729, 8.120056
807.6550, 6.266785
808.1371, 7.527649
808.6192, 10.53094
809.1013, 11.52185
809.5834, 10.65362
810.0656, 8.877014
810.5477, 4.785034
811.0298, 1.605286
811.5119, 2.293030
811.9940, 6.200745
812.4761, 8.708679
812.9583, 8.402100
813.4404, 7.234558
813.9225, 6.019714
814.4046, 4.673218
814.8867, 3.929443
815.3688, 4.152283
815.8510, 4.697937
816.3331, 5.544617
816.8152, 6.576660
817.2973, 7.642029
817.7794, 8.666809
818.2615, 8.959351
818.7437, 6.366455
819.2258, 4.756287
819.7079, 7.382629
820.1900, 13.27991
820.6721, 14.82800
821.1542, 9.997620
821.6364, 5.427063
822.1185, 3.245300
822.6006, 2.931458
823.0827, 2.085205
823.5648, 1.037354
824.0469, 1.240601
824.5291, 5.007324
825.0112, 9.134460
825.4933, 10.58783
825.9754, 10.07739
826.4575, 9.759460
826.9396, 11.46173
827.4218, 12.07428
827.9039, 9.852295
828.3860, 6.021362
828.8681, 6.072937
829.3502, 10.97668
829.8323, 14.03918
830.3145, 12.57300
830.7966, 8.512268
831.2787, 5.001099
831.7608, 2.157227
832.2429, 0.3948360
832.7250, 0.1524050
833.2072, 0.7000120
833.6893, 2.433777
834.1714, 4.648071
834.6535, 5.329895
835.1356, 2.821289
835.6177, 1.705627
836.0999, 3.239624
836.5820, 6.192871
837.0641, 7.897522
837.5462, 8.407593
838.0283, 8.388123
838.5104, 8.156372
838.9926, 7.399231
839.4747, 5.362244
839.9568, 2.966553
840.4389, 1.759827
840.9210, 3.157104
841.4031, 4.743652
841.8853, 6.810425
842.3674, 8.355347
842.8495, 7.451477
843.3316, 3.301758
843.8137, 0.8105470
844.2958, 0.9716800
844.7780, 2.335205
845.2601, 3.017639
845.7422, 3.318359
846.2243, 4.150452
846.7064, 6.258728
847.1885, 7.661804
847.6707, 6.528442
848.1528, 4.355530
848.6349, 2.946899
849.1170, 2.386658
849.5991, 2.770569
850.0812, 4.485229
850.5634, 6.560852
851.0455, 8.157043
851.5276, 9.233643
852.0097, 9.113220
852.4918, 7.507263
852.9739, 6.155640
853.4561, 7.973450
853.9382, 10.25787
854.4203, 9.483704
854.9024, 3.559143
855.3845, 0.4500120
855.8666, 7.6476999E-02
856.3488, 1.606262
856.8309, 2.531738
857.3130, 2.435913
857.7951, 3.940735
858.2772, 7.286682
858.7593, 10.43652
859.2415, 12.17969
859.7236, 12.23431
860.2057, 9.154846
860.6878, 2.843384
861.1699, 1.601440
861.6520, 0.8104250
862.1342, 1.844604
862.6163, 5.187561
863.0984, 9.279236
863.5805, 10.04071
864.0626, 6.369446
864.5447, 2.590881
865.0269, 1.373779
865.5090, 1.948608
865.9911, 1.505310
866.4732, 0.2481690
866.9553, 0.4313350
867.4374, 0.9572140
867.9196, 2.692688
868.4017, 3.490479
868.8838, 3.433105
869.3659, 3.700623
869.8480, 5.357422
870.3301, 5.601074
870.8123, 2.760498
871.2944, 1.685608
871.7765, 2.106262
872.2586, 1.117615
872.7407, 3.973328
873.2228, 4.300171
873.7050, 3.882568
874.1871, 4.759094
874.6692, 6.279602
875.1513, 7.041382
875.6334, 5.657288
876.1155, 4.649170
876.5977, 4.335632
877.0798, 4.712280
877.5619, 6.349609
878.0440, 9.472717
878.5261, 10.33246
879.0082, 7.635864
879.4904, 3.928101
879.9725, 2.232910
880.4546, 1.932739
880.9367, 1.950928
881.4188, 2.001831
881.9009, 2.314880
882.3831, 3.607117
882.8652, 4.799744
883.3473, 4.782837
883.8294, 3.228882
884.3115, 1.545288
884.7936, 0.4628910
885.2758, 1.681335
885.7579, 0.1813960
886.2400, 3.476868
886.7221, 3.934692
887.2042, 0.8777470
887.6863, 1.655701
888.1685, 0.9650270
888.6506, 0.7677610
889.1327, 2.029846
889.6148, 2.626648
890.0969, 3.601746
890.5790, 5.303955
891.0612, 6.530640
891.5433, 6.332703
892.0254, 5.080261
892.5075, 3.632385
892.9896, 2.155884
893.4717, 2.119141
893.9539, 7.423279
894.4360, 11.82184
894.9181, 9.539429
895.4002, 1.836914
895.8823, 2.175720
896.3644, 0.4427490
896.8466, 2.096313
897.3287, 4.718018
897.8108, 6.813354
898.2929, 6.145752
898.7750, 3.213989
899.2571, 1.164612
899.7393, 1.832092
900.2214, 2.857788
900.7035, 1.436218
901.1856, 0.7885740
901.6677, 1.030212
902.1498, 4.146240
902.6320, 7.405273
903.1141, 7.833130
903.5962, 6.734070
904.0783, 5.613831
904.5604, 4.482849
905.0425, 3.551575
905.5247, 2.775269
906.0068, 2.677612
906.4889, 4.511292
906.9710, 6.893921
907.4531, 8.246155
907.9352, 8.103333
908.4174, 7.770203
908.8995, 7.138855
909.3816, 6.753296
909.8637, 7.143372
910.3458, 8.312256
910.8279, 8.565491
911.3101, 7.886963
911.7922, 7.016174
912.2743, 6.268738
912.7564, 5.753174
913.2385, 5.878479
913.7206, 6.523743
914.2028, 6.461731
914.6849, 4.488892
915.1670, 2.643616
915.6491, 1.220764
916.1312, 0.4458010
916.6133, 1.863403
917.0955, 5.559998
917.5776, 7.790710
918.0597, 6.510620
918.5418, 4.214355
919.0239, 3.956970
919.5060, 5.018799
919.9882, 5.707703
920.4703, 5.253235
920.9524, 4.523010
921.4345, 3.208923
921.9166, 2.044067
922.3987, 2.130371
922.8809, 3.562012
923.3630, 4.575684
923.8451, 5.015930
924.3272, 5.193848
924.8093, 5.372620
925.2914, 5.530151
925.7736, 5.532410
926.2557, 5.378662
926.7378, 4.921204
927.2199, 3.035767
927.7020, 1.934387
928.1841, 3.230591
928.6663, 6.913147
929.1484, 8.281677
929.6305, 7.334900
930.1126, 6.267700
930.5947, 6.435059
931.0768, 7.003784
931.5590, 6.948792
932.0411, 6.351074
932.5232, 5.631409
933.0053, 4.087708
933.4874, 3.514404
933.9695, 4.792969
934.4517, 7.069153
934.9338, 8.450745
935.4159, 8.931091
935.8980, 8.222473
936.3801, 5.757751
936.8622, 3.406616
937.3444, 4.163879
937.8265, 6.258545
938.3086, 6.986877
938.7907, 4.579102
939.2728, 2.873718
939.7549, 2.680603
940.2371, 3.203918
940.7192, 3.977722
941.2013, 5.011169
941.6834, 5.606628
942.1655, 5.711670
942.6476, 5.772400
943.1298, 5.948792
943.6119, 6.497498
944.0940, 7.979248
944.5761, 10.31671
945.0582, 11.10278
945.5403, 8.494263
946.0225, 5.702576
946.5046, 3.440002
946.9867, 1.759216
947.4688, 1.240051
947.9509, 1.813049
948.4330, 2.240540
948.9152, 1.549927
949.3973, 1.110413
949.8794, 2.960510
950.3615, 5.837036
950.8436, 7.505310
951.3257, 5.482544
951.8079, 5.137268
952.2900, 7.765076
952.7721, 10.79266
953.2542, 10.65143
953.7363, 7.812744
954.2184, 6.379150
954.7006, 6.722229
955.1827, 6.902588
955.6648, 4.820679
956.1469, 2.426086
956.6290, 1.618530
957.1111, 2.815674
957.5933, 3.544617
958.0754, 3.717529
958.5575, 3.386963
959.0396, 2.309753
959.5217, 0.8262940
960.0038, 1.4650000E-03
960.4860, 0.2249760
960.9681, 5.2002002E-02
961.4502, 1.210388
961.9323, 2.382080
962.4144, 2.868042
962.8965, 3.023010
963.3787, 3.688293
963.8608, 5.380005
964.3429, 6.456177
964.8250, 6.483826
965.3071, 6.059509
965.7892, 5.859558
966.2714, 5.935303
966.7535, 6.604980
967.2356, 8.046936
967.7177, 9.063843
968.1998, 8.716248
968.6819, 7.910461
969.1641, 7.378052
969.6462, 7.199768
970.1283, 5.914734
970.6104, 3.125793
971.0925, 1.358215
971.5746, 2.917358
972.0568, 5.967468
972.5389, 7.646606
973.0210, 7.986694
973.5031, 7.035828
973.9852, 2.515198
974.4673, 0.4991460
974.9495, 6.8053998E-02
975.4316, 2.412231
975.9137, 5.075378
976.3958, 8.008118
976.8779, 9.397827
977.3600, 8.748901
977.8422, 7.305176
978.3243, 6.037170
978.8064, 4.961548
979.2885, 4.270874
979.7706, 4.290894
980.2527, 3.687012
980.7349, 0.9378050
981.2170, 1.358704
981.6991, 1.660400
982.1812, 0.1846310
982.6633, 2.019226
983.1454, 4.798035
983.6276, 6.499695
984.1097, 5.227539
984.5918, 3.321594
985.0739, 1.708069
985.5560, 0.8808590
986.0381, 2.491333
986.5203, 8.864014
987.0024, 12.65747
987.4845, 12.49506
987.9666, 10.33929
988.4487, 8.574585
988.9308, 7.262329
989.4130, 6.159363
989.8951, 5.072693
990.3772, 4.672424
990.8593, 5.875610
991.3414, 7.455566
991.8235, 8.563538
992.3057, 9.180725
992.7878, 9.569946
993.2699, 9.718323
993.7520, 9.742859
994.2341, 9.640320
994.7162, 9.502991
995.1984, 9.696899
995.6805, 9.980713
996.1626, 9.706970
996.6447, 8.142273
997.1268, 6.568726
997.6089, 4.737183
998.0911, 3.435730
998.5732, 4.423157
999.0553, 7.665100
999.5374, 8.621155
1000.020, 6.519653
1000.502, 3.924866
1000.984, 2.815735
1001.466, 2.633667
1001.948, 3.153748
1002.430, 4.446899
1002.912, 4.815002
1003.394, 3.662842
1003.876, 2.554138
1004.359, 2.043701
1004.841, 2.113892
1005.323, 2.776794
1005.805, 3.926270
1006.287, 5.328979
1006.769, 7.524841
1007.251, 9.130188
1007.733, 8.456909
1008.216, 7.232971
1008.698, 8.277161
1009.180, 13.25366
1009.662, 13.64703
1010.144, 8.303894
1010.626, 1.957092
1011.108, 1.180481
1011.590, 1.975891
1012.072, 1.141602
1012.555, 1.138428
1013.037, 3.086548
1013.519, 3.809265
1014.001, 4.405151
1014.483, 5.333130
1014.965, 6.367310
1015.447, 6.793091
1015.929, 6.627197
1016.411, 5.890076
1016.894, 4.384338
1017.376, 2.833984
1017.858, 1.157532
1018.340, 0.1552730
1018.822, 1.183228
1019.304, 6.433105
1019.786, 8.152100
1020.268, 5.350525
1020.751, 1.670776
1021.233, 0.5953370
1021.715, 1.398254
1022.197, 0.5322270
1022.679, 1.850220
1023.161, 4.447998
1023.643, 8.195068
1024.125, 10.20813
1024.607, 7.554321
1025.090, 3.078796
1025.572, 3.248352
1026.054, 8.517578
1026.536, 11.78571
1027.018, 11.52533
1027.500, 10.05878
1027.982, 9.734314
1028.464, 9.666138
1028.947, 8.668884
1029.429, 6.276978
1029.911, 4.547729
1030.393, 3.767273
1030.875, 3.368164
1031.357, 3.133789
1031.839, 3.053772
1032.321, 2.837219
1032.803, 2.694763
1033.286, 3.328979
1033.768, 6.453674
1034.250, 8.862427
1034.732, 8.817932
1035.214, 7.339600
1035.696, 5.973572
1036.178, 4.820740
1036.660, 2.680786
1037.143, 0.8811040
1037.625, 3.290344
1038.107, 0.9754640
1038.589, 3.188171
1039.071, 5.642090
1039.553, 6.349670
1040.035, 5.986450
1040.517, 3.183594
1041.000, 1.484680
1041.482, 2.157104
1041.964, 4.281067
1042.446, 5.962585
1042.928, 7.197754
1043.410, 7.916931
1043.892, 8.167480
1044.374, 7.760376
1044.856, 6.220215
1045.339, 4.132568
1045.821, 1.894836
1046.303, 0.7500610
1046.785, 1.015259
1047.267, 1.376953
1047.749, 3.686829
1048.231, 3.731750
1048.713, 2.877869
1049.195, 2.583191
1049.677, 2.839111
1050.160, 3.588196
1050.642, 6.373596
1051.124, 7.184021
1051.606, 4.629517
1052.088, 1.374268
1052.570, 1.397461
1053.052, 3.843262
1053.534, 5.396301
1054.017, 5.647705
1054.499, 5.606323
1054.981, 5.572815
1055.463, 5.746521
1055.945, 6.283203
1056.427, 7.140930
1056.909, 8.495605
1057.391, 10.53156
1057.874, 10.79529
1058.356, 7.738037
1058.838, 4.081543
1059.320, 2.947327
1059.802, 3.456970
1060.284, 4.499756
1060.766, 6.865845
1061.248, 6.996765
1061.730, 3.603394
1062.213, 0.3430790
1062.695, 6.6530001E-03
1063.177, 1.894958
1063.659, 4.172974
1064.141, 6.524841
1064.623, 7.453430
1065.105, 3.565308
1065.587, 1.120728
1066.070, 4.255127
1066.552, 9.405396
1067.034, 11.16388
1067.516, 9.409302
1067.998, 7.960632
1068.480, 7.283813
1068.962, 6.667786
1069.444, 5.122620
1069.927, 3.860962
1070.409, 4.471680
1070.891, 6.906616
1071.373, 7.514832
1071.855, 5.550293
1072.337, 3.471741
1072.819, 1.680542
1073.301, 0.7834470
1073.783, 3.124329
1074.266, 6.928711
1074.748, 8.217285
1075.230, 4.678040
1075.712, 1.992188
1076.194, 2.127563
1076.676, 2.983459
1077.158, 3.575256
1077.640, 3.840881
1078.122, 2.644043
1078.604, 0.2593990
1079.087, 1.007568
1079.569, 0.9592290
1080.051, 3.726440
1080.533, 7.145874
1081.015, 9.739624
1081.497, 8.734497
1081.979, 2.762634
1082.461, 0.1138920
1082.944, 0.9998780
1083.426, 3.171753
1083.908, 4.019958
1084.390, 4.070374
1084.872, 3.684998
1085.354, 2.975830
1085.836, 2.765869
1086.318, 3.604309
1086.801, 4.072937
1087.283, 3.678833
1087.765, 3.004272
1088.247, 3.109314
1088.729, 3.804077
1089.211, 4.591370
1089.693, 5.361206
1090.175, 6.258484
1090.657, 8.432068
1091.140, 9.551880
1091.622, 7.690125
1092.104, 3.498840
1092.586, 2.812439
1093.068, 5.328064
1093.550, 7.541931
1094.032, 7.922791
1094.514, 6.972778
1094.997, 3.227112
1095.479, 0.9978030
1095.961, 2.047058
1096.443, 1.221313
1096.925, 3.596741
1097.407, 4.999451
1097.889, 5.954712
1098.371, 7.023071
1098.854, 7.758728
1099.336, 7.500916
1099.818, 6.386047
1100.300, 4.985352
1100.782, 3.030701
1101.264, 1.356079
1101.746, 0.2582400
1102.228, 0.9123540
1102.710, 1.805725
1103.193, 6.198181
1103.675, 7.790161
1104.157, 5.978821
1104.639, 4.185120
1105.121, 3.961182
1105.603, 4.101685
1106.085, 4.056335
1106.567, 4.091064
1107.049, 5.526367
1107.531, 8.047668
1108.014, 8.816833
1108.496, 6.796997
1108.978, 4.502441
1109.460, 4.422119
1109.942, 5.150635
1110.424, 5.751526
1110.906, 5.938782
1111.388, 5.007324
1111.871, 2.835938
1112.353, 2.078308
1112.835, 5.653625
1113.317, 9.556641
1113.799, 9.672058
1114.281, 7.614441
1114.763, 6.013550
1115.245, 5.364441
1115.728, 5.260803
1116.210, 5.941345
1116.692, 6.404358
1117.174, 5.403809
1117.656, 3.825745
1118.138, 3.133667
1118.620, 3.306335
1119.102, 4.059082
1119.584, 6.526062
1120.067, 7.617065
1120.549, 6.060303
1121.031, 4.227478
1121.513, 6.134583
1121.995, 10.37799
1122.477, 11.88867
1122.959, 10.24115
1123.441, 8.198975
1123.924, 6.972229
1124.406, 5.977844
1124.888, 5.055542
1125.370, 4.125244
1125.852, 2.664063
1126.334, 0.8054200
1126.816, 0.2858280
1127.298, 1.812805
1127.781, 3.178284
1128.263, 1.905762
1128.745, 0.4547730
1129.227, 1.158325
1129.709, 3.911011
1130.191, 5.999512
1130.673, 7.487854
1131.155, 7.204590
1131.637, 3.358093
1132.120, 4.0833000E-02
1132.602, 2.667664
1133.084, 7.893860
1133.566, 10.44623
1134.048, 8.947388
1134.530, 7.425598
1135.012, 5.826965
1135.494, 4.383118
1135.976, 2.972351
1136.458, 1.959778
1136.941, 2.002808
1137.423, 3.201294
1137.905, 4.567871
1138.387, 7.185669
1138.869, 8.337036
1139.351, 7.268250
1139.833, 6.047913
1140.315, 7.122864
1140.798, 9.479248
1141.280, 10.82935
1141.762, 11.25128
1142.244, 10.52948
1142.726, 7.690369
1143.208, 5.618713
1143.690, 5.258728
1144.172, 5.539124
1144.655, 4.471497
1145.137, 2.588013
1145.619, 2.160889
1146.101, 3.492981
1146.583, 4.944092
1147.065, 6.301636
1147.547, 6.733337
1148.029, 5.110474
1148.511, 2.729736
1148.994, 4.534912
1149.476, 9.757751
1149.958, 10.62097
1150.440, 4.304443
1150.922, 1.245239
1151.404, 1.070679
1151.886, 5.235840
1152.368, 6.328857
1152.851, 8.411438
1153.333, 10.43939
1153.815, 9.725403
1154.297, 12.11169
1154.779, 10.65033
1155.261, 8.454529
1155.743, 8.435669
1156.225, 9.237366
1156.708, 9.422119
1157.190, 9.007080
1157.672, 7.052979
1158.154, 3.248596
1158.636, 0.6591190
1159.118, 1.555542
1159.600, 3.924683
1160.082, 6.808655
1160.564, 9.304565
1161.047, 9.338745
1161.529, 4.797180
1162.011, 2.604675
1162.493, 3.291870
1162.975, 4.203674
1163.457, 2.583130
1163.939, 0.4283450
1164.421, 1.245422
1164.903, 3.929504
1165.385, 4.968201
1165.868, 3.644165
1166.350, 2.746155
1166.832, 6.388489
1167.314, 7.430603
1167.796, 1.915588
1168.278, 2.151306
1168.760, 0.8422850
1169.242, 0.6872560
1169.725, 5.267334
1170.207, 2.569885
1170.689, 3.264404
1171.171, 3.641052
1171.653, 6.515320
1172.135, 3.980713
1172.617, 3.116760
1173.099, 7.663391
1173.582, 9.214539
1174.064, 6.057007
1174.546, 9.089844
1175.028, 1.062317
1175.510, 2.740417
1175.992, 8.605896
1176.474, 5.720093
1176.956, 8.851807
1177.438, 9.691528
1177.921, 0.1179810
1178.403, 8.655579
1178.885, 9.359985
1179.367, 2.021179
1179.849, 9.938110
1180.331, 3.708313
1180.813, 2.527771
1181.295, 5.147278
1181.778, 3.805908
1182.260, 8.709656
1182.742, 7.596375
1183.224, 5.945557
1183.706, 6.640625
1184.188, 0.6837160
1184.670, 7.057922
1185.152, 5.013428
1185.635, 7.157349
1186.117, 10.24988
1186.599, 6.068787
1187.081, 9.585266
1187.563, 1.171631
1188.045, 2.742493
1188.527, 3.238098
1189.009, 10.11749
1189.491, 1.838501
1189.974, 3.116333
1190.456, 8.517944
1190.938, 8.171021
1191.420, 10.22662
1191.902, 5.166870
1192.384, 4.052002
1192.866, 3.728088
1193.348, 6.449707
1193.830, 5.127197
1194.313, 0.2029420
1194.795, 2.675232
1195.277, 2.682251
1195.759, 7.849060
1196.241, 7.247681
1196.723, 9.185242
1197.205, 3.975708
1197.687, 6.232117
1198.169, 4.894836
1198.652, 9.6619003E-02
1199.134, 3.063354
1199.616, 2.221985
1200.098, 8.201111
1200.580, 10.83502
1201.062, 10.95142
1201.544, 9.405151
1202.026, 6.098022
1202.509, 5.568665
1202.991, 8.244629
1203.473, 10.31830
1203.955, 7.901917
1204.437, 5.083496
1204.919, 4.850525
1205.401, 3.713074
1205.883, 3.272705
1206.365, 4.210388
1206.848, 4.028381
1207.330, 5.769775
1207.812, 7.646790
1208.294, 8.081665
1208.776, 8.268494
1209.258, 10.08032
1209.740, 12.34143
1210.222, 11.24670
1210.705, 6.667053
1211.187, 4.445190
1211.669, 5.788269
1212.151, 7.880615
1212.633, 9.577209
1213.115, 10.18878
1213.597, 7.949097
1214.079, 9.396179
1214.562, 4.655212
1215.044, 9.170837
1215.526, 11.74200
1216.008, 10.80145
1216.490, 8.837402
1216.972, 6.942322
1217.454, 5.566040
1217.936, 5.121033
1218.418, 5.484558
1218.901, 6.424561
1219.383, 7.909241
1219.865, 9.271851
1220.347, 10.37988
1220.829, 11.07104
1221.311, 11.59814
1221.793, 11.24524
1222.275, 8.829834
1222.757, 4.961609
1223.240, 4.680603
1223.722, 7.409241
1224.204, 9.205872
1224.686, 8.096924
1225.168, 6.250061
1225.650, 4.267334
1226.132, 2.935059
1226.614, 2.544189
1227.096, 2.940063
1227.579, 3.503906
1228.061, 4.055542
1228.543, 3.909668
1229.025, 1.997620
1229.507, 0.8920900
1229.989, 2.847046
1230.471, 5.596802
1230.953, 7.503540
1231.436, 8.588562
1231.918, 8.728882
1232.400, 8.070801
1232.882, 7.728333
1233.364, 8.920471
1233.846, 9.088013
1234.328, 5.576416
1234.810, 1.845215
1235.292, 0.4215090
1235.775, 1.065002
1236.257, 2.283264
1236.739, 3.846802
1237.221, 4.542542
1237.703, 2.329041
1238.185, 1.646484
1238.667, 6.242676
1239.149, 10.91754
1239.632, 11.73425
1240.114, 9.337585
1240.596, 7.217590
1241.078, 5.450684
1241.560, 4.288025
1242.042, 3.970398
1242.524, 4.185791
1243.006, 5.568542
1243.489, 6.481140
1243.971, 4.914185
1244.453, 1.797119
1244.935, 1.644226
1245.417, 3.587830
1245.899, 4.400269
1246.381, 0.1896970
1246.863, 1.194519
1247.345, 2.699707
1247.828, 6.907410
1248.310, 6.051270
1248.792, 2.390442
1249.274, 3.690491
1249.756, 8.328369
1250.238, 11.17346
1250.720, 9.027161
1251.202, 6.623291
1251.684, 3.606750
1252.167, 1.236145
1252.649, 0.9547120
1253.131, 1.885925
1253.613, 2.311340
1254.095, 2.434875
1254.577, 3.043823
1255.059, 4.803955
1255.541, 6.208801
1256.023, 7.221436
1256.506, 7.691101
1256.988, 6.927612
1257.470, 5.931580
1257.952, 6.280212
1258.434, 7.599365
1258.916, 8.680481
1259.398, 9.295166
1259.880, 10.00305
1260.363, 10.89624
1260.845, 11.56165
1261.327, 11.91937
1261.809, 11.64777
1262.291, 9.513794
1262.773, 6.638611
1263.255, 6.230774
1263.737, 9.337280
1264.219, 9.872620
1264.702, 7.273987
1265.184, 4.475586
1265.666, 4.140320
1266.148, 4.104309
1266.630, 1.843811
1267.112, 2.754639
1267.594, 0.6524050
1268.076, 3.187683
1268.559, 5.266846
1269.041, 5.241516
1269.523, 4.229614
1270.005, 1.911865
1270.487, 3.5399999E-03
1270.969, 0.3782350
1271.451, 0.2086180
1271.933, 1.259949
1272.416, 2.709961
1272.898, 3.799805
1273.380, 4.487732
1273.862, 4.971252
1274.344, 5.294800
1274.826, 5.362244
1275.308, 5.748413
1275.790, 5.810181
1276.272, 4.250061
1276.755, 1.861572
1277.237, 2.086792
1277.719, 4.724792
1278.201, 6.967468
1278.683, 7.067383
1279.165, 7.458435
1279.647, 9.103394
1280.129, 10.22284
1280.611, 7.860962
1281.094, 3.915100
1281.576, 2.500427
1282.058, 3.384216
1282.540, 4.419250
1283.022, 5.173523
1283.504, 5.976685
1283.986, 7.161438
1284.468, 7.328735
1284.950, 2.827942
1285.433, 1.924866
1285.915, 8.1542999E-02
1286.397, 6.490967
1286.879, 9.665161
1287.361, 8.295837
1287.843, 6.263184
1288.325, 3.746033
1288.807, 2.014954
1289.290, 2.232300
1289.772, 3.633484
1290.254, 7.001099
1290.736, 10.57422
1291.218, 9.985901
1291.700, 4.683838
1292.182, 3.229492
1292.664, 6.170410
1293.146, 8.996338
1293.629, 8.280762
1294.111, 5.846436
1294.593, 4.946167
1295.075, 4.406067
1295.557, 3.994812
1296.039, 3.692139
1296.521, 2.963684
1297.003, 1.953491
1297.486, 2.213135
1297.968, 7.164063
1298.450, 10.03699
1298.932, 8.586670
1299.414, 5.373352
1299.896, 2.644592
1300.378, 0.5958250
1300.860, 2.8441999E-02
1301.343, 0.5954590
1301.825, 0.0000000E+00
##END=



