##NAMES=Cianciulliite
##RRUFFID=R150124
##IDEAL CHEMISTRY=Mg_2_Mn^2+^Zn^2+^_2_(OH)_10_&#183;2-4H_2_O
##LOCALITY=Franklin Mine, Franklin, Sussex Co., New Jersey, USA
##OWNER=RRUFF
##SOURCE=Van King
##DESCRIPTION=Yellow brown aggregate. A cotype sample from Peter J. Dunn.
##STATUS=unconfirmed
##URL=rruff.info/R150124
8.930109e+001, 0.000000e+000
8.978320e+001, 4.746264e+002
9.026532e+001, 4.678666e+002
9.074744e+001, 4.675936e+002
9.122955e+001, 4.768114e+002
9.171167e+001, 4.886561e+002
9.219379e+001, 4.956651e+002
9.267590e+001, 4.983181e+002
9.315802e+001, 4.969971e+002
9.364014e+001, 4.886685e+002
9.412225e+001, 4.763111e+002
9.460437e+001, 4.686621e+002
9.508649e+001, 4.699754e+002
9.556860e+001, 4.758995e+002
9.605072e+001, 4.765706e+002
9.653284e+001, 4.721982e+002
9.701495e+001, 4.660581e+002
9.749707e+001, 4.604229e+002
9.797919e+001, 4.552335e+002
9.846130e+001, 4.517919e+002
9.894342e+001, 4.510148e+002
9.942554e+001, 4.526199e+002
9.990765e+001, 4.530256e+002
1.003898e+002, 4.519857e+002
1.008719e+002, 4.503581e+002
1.013540e+002, 4.494924e+002
1.018361e+002, 4.496686e+002
1.023182e+002, 4.495028e+002
1.028004e+002, 4.480228e+002
1.032825e+002, 4.443271e+002
1.037646e+002, 4.432978e+002
1.042467e+002, 4.455448e+002
1.047288e+002, 4.500230e+002
1.052109e+002, 4.542802e+002
1.056931e+002, 4.578437e+002
1.061752e+002, 4.619518e+002
1.066573e+002, 4.672731e+002
1.071394e+002, 4.747050e+002
1.076215e+002, 4.818458e+002
1.081036e+002, 4.900611e+002
1.085858e+002, 4.985520e+002
1.090679e+002, 5.024888e+002
1.095500e+002, 4.979647e+002
1.100321e+002, 4.919415e+002
1.105142e+002, 4.881520e+002
1.109963e+002, 4.879487e+002
1.114785e+002, 4.883947e+002
1.119606e+002, 4.890805e+002
1.124427e+002, 4.900109e+002
1.129248e+002, 4.918179e+002
1.134069e+002, 4.952562e+002
1.138890e+002, 4.992405e+002
1.143712e+002, 5.029405e+002
1.148533e+002, 5.066363e+002
1.153354e+002, 5.096032e+002
1.158175e+002, 5.110529e+002
1.162996e+002, 5.107889e+002
1.167817e+002, 5.115369e+002
1.172639e+002, 5.159009e+002
1.177460e+002, 5.214293e+002
1.182281e+002, 5.250089e+002
1.187102e+002, 5.244867e+002
1.191923e+002, 5.224108e+002
1.196744e+002, 5.200478e+002
1.201566e+002, 5.174152e+002
1.206387e+002, 5.150021e+002
1.211208e+002, 5.124447e+002
1.216029e+002, 5.102913e+002
1.220850e+002, 5.097062e+002
1.225671e+002, 5.120978e+002
1.230493e+002, 5.159665e+002
1.235314e+002, 5.203054e+002
1.240135e+002, 5.257304e+002
1.244956e+002, 5.296248e+002
1.249777e+002, 5.279848e+002
1.254598e+002, 5.220782e+002
1.259420e+002, 5.167413e+002
1.264241e+002, 5.164395e+002
1.269062e+002, 5.186908e+002
1.273883e+002, 5.186439e+002
1.278704e+002, 5.142096e+002
1.283525e+002, 5.084721e+002
1.288347e+002, 5.062553e+002
1.293168e+002, 5.074173e+002
1.297989e+002, 5.094426e+002
1.302810e+002, 5.103683e+002
1.307631e+002, 5.104622e+002
1.312452e+002, 5.110162e+002
1.317274e+002, 5.130638e+002
1.322095e+002, 5.154515e+002
1.326916e+002, 5.144215e+002
1.331737e+002, 5.095469e+002
1.336558e+002, 5.041550e+002
1.341379e+002, 5.015487e+002
1.346201e+002, 5.016939e+002
1.351022e+002, 5.021500e+002
1.355843e+002, 5.023504e+002
1.360664e+002, 5.022975e+002
1.365485e+002, 5.016917e+002
1.370306e+002, 5.001470e+002
1.375128e+002, 4.989765e+002
1.379949e+002, 5.001648e+002
1.384770e+002, 5.042676e+002
1.389591e+002, 5.080179e+002
1.394412e+002, 5.103903e+002
1.399233e+002, 5.112930e+002
1.404055e+002, 5.117589e+002
1.408876e+002, 5.119028e+002
1.413697e+002, 5.114620e+002
1.418518e+002, 5.096411e+002
1.423339e+002, 5.053921e+002
1.428160e+002, 5.021346e+002
1.432982e+002, 5.015329e+002
1.437803e+002, 5.049793e+002
1.442624e+002, 5.065470e+002
1.447445e+002, 5.054806e+002
1.452266e+002, 5.027612e+002
1.457087e+002, 5.006336e+002
1.461909e+002, 4.989708e+002
1.466730e+002, 4.980209e+002
1.471551e+002, 4.980274e+002
1.476372e+002, 5.004706e+002
1.481193e+002, 5.013440e+002
1.486014e+002, 4.995515e+002
1.490836e+002, 4.960471e+002
1.495657e+002, 4.940653e+002
1.500478e+002, 4.947043e+002
1.505299e+002, 4.960203e+002
1.510120e+002, 4.971812e+002
1.514941e+002, 4.988220e+002
1.519763e+002, 4.995457e+002
1.524584e+002, 4.990427e+002
1.529405e+002, 4.974814e+002
1.534226e+002, 4.957407e+002
1.539047e+002, 4.928391e+002
1.543868e+002, 4.904465e+002
1.548690e+002, 4.894713e+002
1.553511e+002, 4.922999e+002
1.558332e+002, 4.941133e+002
1.563153e+002, 4.937663e+002
1.567974e+002, 4.914879e+002
1.572795e+002, 4.891845e+002
1.577617e+002, 4.864789e+002
1.582438e+002, 4.843178e+002
1.587259e+002, 4.833862e+002
1.592080e+002, 4.859569e+002
1.596901e+002, 4.877662e+002
1.601722e+002, 4.867704e+002
1.606544e+002, 4.831430e+002
1.611365e+002, 4.805916e+002
1.616186e+002, 4.812327e+002
1.621007e+002, 4.832184e+002
1.625828e+002, 4.848578e+002
1.630649e+002, 4.859113e+002
1.635471e+002, 4.862339e+002
1.640292e+002, 4.854040e+002
1.645113e+002, 4.834052e+002
1.649934e+002, 4.816064e+002
1.654755e+002, 4.811392e+002
1.659576e+002, 4.811358e+002
1.664398e+002, 4.805338e+002
1.669219e+002, 4.779748e+002
1.674040e+002, 4.753329e+002
1.678861e+002, 4.739137e+002
1.683682e+002, 4.738081e+002
1.688503e+002, 4.741785e+002
1.693325e+002, 4.749040e+002
1.698146e+002, 4.757113e+002
1.702967e+002, 4.761509e+002
1.707788e+002, 4.760800e+002
1.712609e+002, 4.755378e+002
1.717430e+002, 4.742786e+002
1.722252e+002, 4.721706e+002
1.727073e+002, 4.703965e+002
1.731894e+002, 4.703322e+002
1.736715e+002, 4.713464e+002
1.741536e+002, 4.720214e+002
1.746357e+002, 4.717314e+002
1.751179e+002, 4.707169e+002
1.756000e+002, 4.689064e+002
1.760821e+002, 4.660942e+002
1.765642e+002, 4.636990e+002
1.770463e+002, 4.635134e+002
1.775284e+002, 4.649915e+002
1.780106e+002, 4.664555e+002
1.784927e+002, 4.671454e+002
1.789748e+002, 4.672150e+002
1.794569e+002, 4.667586e+002
1.799390e+002, 4.656552e+002
1.804211e+002, 4.645268e+002
1.809033e+002, 4.641851e+002
1.813854e+002, 4.645016e+002
1.818675e+002, 4.648609e+002
1.823496e+002, 4.646481e+002
1.828317e+002, 4.642298e+002
1.833138e+002, 4.646103e+002
1.837960e+002, 4.660721e+002
1.842781e+002, 4.678340e+002
1.847602e+002, 4.687958e+002
1.852423e+002, 4.690172e+002
1.857244e+002, 4.689418e+002
1.862065e+002, 4.688747e+002
1.866887e+002, 4.687353e+002
1.871708e+002, 4.681833e+002
1.876529e+002, 4.671042e+002
1.881350e+002, 4.657575e+002
1.886171e+002, 4.644756e+002
1.890992e+002, 4.632528e+002
1.895814e+002, 4.623413e+002
1.900635e+002, 4.618742e+002
1.905456e+002, 4.618466e+002
1.910277e+002, 4.623843e+002
1.915098e+002, 4.637387e+002
1.919919e+002, 4.652996e+002
1.924741e+002, 4.655581e+002
1.929562e+002, 4.644539e+002
1.934383e+002, 4.633757e+002
1.939204e+002, 4.632556e+002
1.944025e+002, 4.640555e+002
1.948846e+002, 4.653317e+002
1.953668e+002, 4.674316e+002
1.958489e+002, 4.695343e+002
1.963310e+002, 4.691945e+002
1.968131e+002, 4.660905e+002
1.972952e+002, 4.629868e+002
1.977773e+002, 4.620240e+002
1.982595e+002, 4.632834e+002
1.987416e+002, 4.638501e+002
1.992237e+002, 4.630901e+002
1.997058e+002, 4.616656e+002
2.001879e+002, 4.617393e+002
2.006700e+002, 4.637112e+002
2.011522e+002, 4.653970e+002
2.016343e+002, 4.649396e+002
2.021164e+002, 4.620587e+002
2.025985e+002, 4.599116e+002
2.030806e+002, 4.588865e+002
2.035627e+002, 4.588474e+002
2.040449e+002, 4.597480e+002
2.045270e+002, 4.620118e+002
2.050091e+002, 4.638115e+002
2.054912e+002, 4.633959e+002
2.059733e+002, 4.601767e+002
2.064554e+002, 4.584527e+002
2.069376e+002, 4.593836e+002
2.074197e+002, 4.619697e+002
2.079018e+002, 4.620706e+002
2.083839e+002, 4.587744e+002
2.088660e+002, 4.553152e+002
2.093481e+002, 4.540222e+002
2.098303e+002, 4.552993e+002
2.103124e+002, 4.569783e+002
2.107945e+002, 4.591159e+002
2.112766e+002, 4.614374e+002
2.117587e+002, 4.627861e+002
2.122408e+002, 4.628651e+002
2.127230e+002, 4.626028e+002
2.132051e+002, 4.626983e+002
2.136872e+002, 4.634190e+002
2.141693e+002, 4.634914e+002
2.146514e+002, 4.625071e+002
2.151335e+002, 4.607582e+002
2.156157e+002, 4.597440e+002
2.160978e+002, 4.597677e+002
2.165799e+002, 4.599243e+002
2.170620e+002, 4.594644e+002
2.175441e+002, 4.578695e+002
2.180262e+002, 4.572104e+002
2.185084e+002, 4.579886e+002
2.189905e+002, 4.598777e+002
2.194726e+002, 4.612467e+002
2.199547e+002, 4.621353e+002
2.204368e+002, 4.624911e+002
2.209189e+002, 4.621279e+002
2.214011e+002, 4.605643e+002
2.218832e+002, 4.596509e+002
2.223653e+002, 4.599958e+002
2.228474e+002, 4.611267e+002
2.233295e+002, 4.607086e+002
2.238116e+002, 4.578479e+002
2.242938e+002, 4.548743e+002
2.247759e+002, 4.531561e+002
2.252580e+002, 4.529422e+002
2.257401e+002, 4.534332e+002
2.262222e+002, 4.546957e+002
2.267043e+002, 4.566119e+002
2.271865e+002, 4.590035e+002
2.276686e+002, 4.627714e+002
2.281507e+002, 4.655990e+002
2.286328e+002, 4.658373e+002
2.291149e+002, 4.619719e+002
2.295970e+002, 4.590823e+002
2.300792e+002, 4.576512e+002
2.305613e+002, 4.574211e+002
2.310434e+002, 4.575258e+002
2.315255e+002, 4.583161e+002
2.320076e+002, 4.589415e+002
2.324897e+002, 4.588196e+002
2.329719e+002, 4.572753e+002
2.334540e+002, 4.565804e+002
2.339361e+002, 4.572505e+002
2.344182e+002, 4.588077e+002
2.349003e+002, 4.594663e+002
2.353824e+002, 4.584329e+002
2.358646e+002, 4.576371e+002
2.363467e+002, 4.581154e+002
2.368288e+002, 4.605783e+002
2.373109e+002, 4.627525e+002
2.377930e+002, 4.646624e+002
2.382751e+002, 4.662295e+002
2.387573e+002, 4.671385e+002
2.392394e+002, 4.671497e+002
2.397215e+002, 4.668246e+002
2.402036e+002, 4.663976e+002
2.406857e+002, 4.658745e+002
2.411678e+002, 4.651954e+002
2.416500e+002, 4.642231e+002
2.421321e+002, 4.631307e+002
2.426142e+002, 4.623542e+002
2.430963e+002, 4.620003e+002
2.435784e+002, 4.618173e+002
2.440605e+002, 4.618095e+002
2.445427e+002, 4.623614e+002
2.450248e+002, 4.619929e+002
2.455069e+002, 4.599050e+002
2.459890e+002, 4.572198e+002
2.464711e+002, 4.566286e+002
2.469532e+002, 4.595660e+002
2.474354e+002, 4.622297e+002
2.479175e+002, 4.629997e+002
2.483996e+002, 4.610927e+002
2.488817e+002, 4.599198e+002
2.493638e+002, 4.598415e+002
2.498459e+002, 4.603039e+002
2.503281e+002, 4.602352e+002
2.508102e+002, 4.592602e+002
2.512923e+002, 4.584117e+002
2.517744e+002, 4.579566e+002
2.522565e+002, 4.578228e+002
2.527386e+002, 4.585174e+002
2.532208e+002, 4.606130e+002
2.537029e+002, 4.631152e+002
2.541850e+002, 4.644728e+002
2.546671e+002, 4.643365e+002
2.551492e+002, 4.636967e+002
2.556313e+002, 4.626119e+002
2.561135e+002, 4.608669e+002
2.565956e+002, 4.601446e+002
2.570777e+002, 4.607698e+002
2.575598e+002, 4.620932e+002
2.580419e+002, 4.634504e+002
2.585240e+002, 4.653043e+002
2.590062e+002, 4.660231e+002
2.594883e+002, 4.645177e+002
2.599704e+002, 4.605169e+002
2.604525e+002, 4.591363e+002
2.609346e+002, 4.617655e+002
2.614167e+002, 4.653118e+002
2.618989e+002, 4.657836e+002
2.623810e+002, 4.615109e+002
2.628631e+002, 4.587110e+002
2.633452e+002, 4.594257e+002
2.638273e+002, 4.636462e+002
2.643094e+002, 4.659706e+002
2.647916e+002, 4.659391e+002
2.652737e+002, 4.648469e+002
2.657558e+002, 4.637408e+002
2.662379e+002, 4.624188e+002
2.667200e+002, 4.618374e+002
2.672021e+002, 4.624132e+002
2.676843e+002, 4.639936e+002
2.681664e+002, 4.651140e+002
2.686485e+002, 4.657500e+002
2.691306e+002, 4.659663e+002
2.696127e+002, 4.657211e+002
2.700948e+002, 4.649035e+002
2.705770e+002, 4.640097e+002
2.710591e+002, 4.628099e+002
2.715412e+002, 4.616064e+002
2.720233e+002, 4.621898e+002
2.725054e+002, 4.651252e+002
2.729875e+002, 4.682633e+002
2.734697e+002, 4.700116e+002
2.739518e+002, 4.702015e+002
2.744339e+002, 4.701501e+002
2.749160e+002, 4.699333e+002
2.753981e+002, 4.696240e+002
2.758802e+002, 4.693531e+002
2.763624e+002, 4.690523e+002
2.768445e+002, 4.690964e+002
2.773266e+002, 4.700023e+002
2.778087e+002, 4.718793e+002
2.782908e+002, 4.729940e+002
2.787729e+002, 4.731118e+002
2.792551e+002, 4.725146e+002
2.797372e+002, 4.717196e+002
2.802193e+002, 4.706860e+002
2.807014e+002, 4.697206e+002
2.811835e+002, 4.689966e+002
2.816656e+002, 4.685120e+002
2.821478e+002, 4.680631e+002
2.826299e+002, 4.676366e+002
2.831120e+002, 4.672540e+002
2.835941e+002, 4.667951e+002
2.840762e+002, 4.662308e+002
2.845583e+002, 4.661962e+002
2.850405e+002, 4.675057e+002
2.855226e+002, 4.699046e+002
2.860047e+002, 4.708416e+002
2.864868e+002, 4.700575e+002
2.869689e+002, 4.686253e+002
2.874510e+002, 4.679783e+002
2.879332e+002, 4.680789e+002
2.884153e+002, 4.681809e+002
2.888974e+002, 4.679620e+002
2.893795e+002, 4.675078e+002
2.898616e+002, 4.670261e+002
2.903438e+002, 4.664656e+002
2.908259e+002, 4.662241e+002
2.913080e+002, 4.673327e+002
2.917901e+002, 4.694315e+002
2.922722e+002, 4.703521e+002
2.927543e+002, 4.688092e+002
2.932365e+002, 4.658891e+002
2.937186e+002, 4.637827e+002
2.942007e+002, 4.625010e+002
2.946828e+002, 4.624626e+002
2.951649e+002, 4.651816e+002
2.956470e+002, 4.696568e+002
2.961292e+002, 4.725827e+002
2.966113e+002, 4.726121e+002
2.970934e+002, 4.711720e+002
2.975755e+002, 4.705716e+002
2.980576e+002, 4.707111e+002
2.985397e+002, 4.705590e+002
2.990219e+002, 4.688354e+002
2.995040e+002, 4.662986e+002
2.999861e+002, 4.645458e+002
3.004682e+002, 4.638356e+002
3.009503e+002, 4.641120e+002
3.014324e+002, 4.663991e+002
3.019146e+002, 4.700225e+002
3.023967e+002, 4.722336e+002
3.028788e+002, 4.694132e+002
3.033609e+002, 4.646957e+002
3.038430e+002, 4.630442e+002
3.043251e+002, 4.657553e+002
3.048073e+002, 4.691741e+002
3.052894e+002, 4.698824e+002
3.057715e+002, 4.686585e+002
3.062536e+002, 4.674230e+002
3.067357e+002, 4.668825e+002
3.072178e+002, 4.669586e+002
3.077000e+002, 4.678277e+002
3.081821e+002, 4.695919e+002
3.086642e+002, 4.711891e+002
3.091463e+002, 4.713984e+002
3.096284e+002, 4.709869e+002
3.101105e+002, 4.711596e+002
3.105927e+002, 4.732792e+002
3.110748e+002, 4.755407e+002
3.115569e+002, 4.768906e+002
3.120390e+002, 4.772782e+002
3.125211e+002, 4.766447e+002
3.130032e+002, 4.737441e+002
3.134854e+002, 4.702662e+002
3.139675e+002, 4.680455e+002
3.144496e+002, 4.688202e+002
3.149317e+002, 4.699843e+002
3.154138e+002, 4.702946e+002
3.158959e+002, 4.698853e+002
3.163781e+002, 4.695761e+002
3.168602e+002, 4.694453e+002
3.173423e+002, 4.697188e+002
3.178244e+002, 4.706827e+002
3.183065e+002, 4.736059e+002
3.187886e+002, 4.755054e+002
3.192708e+002, 4.744510e+002
3.197529e+002, 4.714789e+002
3.202350e+002, 4.695004e+002
3.207171e+002, 4.698161e+002
3.211992e+002, 4.710202e+002
3.216813e+002, 4.726348e+002
3.221635e+002, 4.752095e+002
3.226456e+002, 4.767660e+002
3.231277e+002, 4.763347e+002
3.236098e+002, 4.747345e+002
3.240919e+002, 4.733324e+002
3.245740e+002, 4.723439e+002
3.250562e+002, 4.715925e+002
3.255383e+002, 4.710338e+002
3.260204e+002, 4.706683e+002
3.265025e+002, 4.704884e+002
3.269846e+002, 4.706080e+002
3.274667e+002, 4.708746e+002
3.279489e+002, 4.711271e+002
3.284310e+002, 4.712722e+002
3.289131e+002, 4.715193e+002
3.293952e+002, 4.718341e+002
3.298773e+002, 4.722128e+002
3.303594e+002, 4.730451e+002
3.308416e+002, 4.751470e+002
3.313237e+002, 4.770079e+002
3.318058e+002, 4.774359e+002
3.322879e+002, 4.750365e+002
3.327700e+002, 4.736134e+002
3.332521e+002, 4.739283e+002
3.337343e+002, 4.755225e+002
3.342164e+002, 4.760631e+002
3.346985e+002, 4.747724e+002
3.351806e+002, 4.736194e+002
3.356627e+002, 4.738658e+002
3.361448e+002, 4.763212e+002
3.366270e+002, 4.775572e+002
3.371091e+002, 4.769744e+002
3.375912e+002, 4.755043e+002
3.380733e+002, 4.750961e+002
3.385554e+002, 4.760085e+002
3.390375e+002, 4.771742e+002
3.395197e+002, 4.783568e+002
3.400018e+002, 4.795899e+002
3.404839e+002, 4.800143e+002
3.409660e+002, 4.794958e+002
3.414481e+002, 4.784453e+002
3.419302e+002, 4.770104e+002
3.424124e+002, 4.750681e+002
3.428945e+002, 4.743611e+002
3.433766e+002, 4.761155e+002
3.438587e+002, 4.794865e+002
3.443408e+002, 4.803239e+002
3.448229e+002, 4.783310e+002
3.453051e+002, 4.757684e+002
3.457872e+002, 4.745291e+002
3.462693e+002, 4.745063e+002
3.467514e+002, 4.749810e+002
3.472335e+002, 4.757797e+002
3.477156e+002, 4.770421e+002
3.481978e+002, 4.797133e+002
3.486799e+002, 4.836140e+002
3.491620e+002, 4.864368e+002
3.496441e+002, 4.857591e+002
3.501262e+002, 4.829168e+002
3.506083e+002, 4.811391e+002
3.510905e+002, 4.809572e+002
3.515726e+002, 4.812975e+002
3.520547e+002, 4.807720e+002
3.525368e+002, 4.797003e+002
3.530189e+002, 4.790519e+002
3.535010e+002, 4.792028e+002
3.539832e+002, 4.800941e+002
3.544653e+002, 4.823800e+002
3.549474e+002, 4.861976e+002
3.554295e+002, 4.887350e+002
3.559116e+002, 4.859492e+002
3.563937e+002, 4.808297e+002
3.568759e+002, 4.779071e+002
3.573580e+002, 4.810687e+002
3.578401e+002, 4.850819e+002
3.583222e+002, 4.861465e+002
3.588043e+002, 4.847077e+002
3.592864e+002, 4.833592e+002
3.597686e+002, 4.835565e+002
3.602507e+002, 4.843997e+002
3.607328e+002, 4.851447e+002
3.612149e+002, 4.856785e+002
3.616970e+002, 4.860069e+002
3.621791e+002, 4.864576e+002
3.626613e+002, 4.867084e+002
3.631434e+002, 4.860250e+002
3.636255e+002, 4.823068e+002
3.641076e+002, 4.790845e+002
3.645897e+002, 4.783139e+002
3.650718e+002, 4.810659e+002
3.655540e+002, 4.833233e+002
3.660361e+002, 4.838690e+002
3.665182e+002, 4.837230e+002
3.670003e+002, 4.841092e+002
3.674824e+002, 4.867255e+002
3.679645e+002, 4.882907e+002
3.684467e+002, 4.874733e+002
3.689288e+002, 4.841310e+002
3.694109e+002, 4.821676e+002
3.698930e+002, 4.823553e+002
3.703751e+002, 4.833412e+002
3.708572e+002, 4.842579e+002
3.713394e+002, 4.851017e+002
3.718215e+002, 4.858721e+002
3.723036e+002, 4.865102e+002
3.727857e+002, 4.870758e+002
3.732678e+002, 4.879031e+002
3.737499e+002, 4.894786e+002
3.742321e+002, 4.904493e+002
3.747142e+002, 4.897450e+002
3.751963e+002, 4.864676e+002
3.756784e+002, 4.856041e+002
3.761605e+002, 4.881318e+002
3.766426e+002, 4.918288e+002
3.771248e+002, 4.929551e+002
3.776069e+002, 4.910745e+002
3.780890e+002, 4.893331e+002
3.785711e+002, 4.887422e+002
3.790532e+002, 4.891819e+002
3.795353e+002, 4.900447e+002
3.800175e+002, 4.914924e+002
3.804996e+002, 4.925938e+002
3.809817e+002, 4.919241e+002
3.814638e+002, 4.897869e+002
3.819459e+002, 4.889208e+002
3.824280e+002, 4.904623e+002
3.829102e+002, 4.927907e+002
3.833923e+002, 4.919587e+002
3.838744e+002, 4.883389e+002
3.843565e+002, 4.858468e+002
3.848386e+002, 4.885052e+002
3.853207e+002, 4.938482e+002
3.858029e+002, 4.965866e+002
3.862850e+002, 4.959607e+002
3.867671e+002, 4.941435e+002
3.872492e+002, 4.928870e+002
3.877313e+002, 4.921322e+002
3.882134e+002, 4.917753e+002
3.886956e+002, 4.919589e+002
3.891777e+002, 4.924009e+002
3.896598e+002, 4.930983e+002
3.901419e+002, 4.940026e+002
3.906240e+002, 4.944026e+002
3.911061e+002, 4.931288e+002
3.915883e+002, 4.914487e+002
3.920704e+002, 4.907833e+002
3.925525e+002, 4.926532e+002
3.930346e+002, 4.940512e+002
3.935167e+002, 4.925897e+002
3.939988e+002, 4.894664e+002
3.944810e+002, 4.880234e+002
3.949631e+002, 4.910479e+002
3.954452e+002, 4.947775e+002
3.959273e+002, 4.974372e+002
3.964094e+002, 4.987504e+002
3.968915e+002, 4.992178e+002
3.973737e+002, 4.980575e+002
3.978558e+002, 4.963785e+002
3.983379e+002, 4.955480e+002
3.988200e+002, 4.967132e+002
3.993021e+002, 4.976474e+002
3.997842e+002, 4.978700e+002
4.002664e+002, 4.973781e+002
4.007485e+002, 4.968408e+002
4.012306e+002, 4.957707e+002
4.017127e+002, 4.951223e+002
4.021948e+002, 4.954897e+002
4.026769e+002, 4.969830e+002
4.031591e+002, 4.994843e+002
4.036412e+002, 5.042121e+002
4.041233e+002, 5.093812e+002
4.046054e+002, 5.099894e+002
4.050875e+002, 5.043622e+002
4.055696e+002, 4.991078e+002
4.060518e+002, 4.971343e+002
4.065339e+002, 4.985446e+002
4.070160e+002, 4.997253e+002
4.074981e+002, 5.006312e+002
4.079802e+002, 5.014313e+002
4.084623e+002, 5.024485e+002
4.089445e+002, 5.036784e+002
4.094266e+002, 5.044243e+002
4.099087e+002, 5.043951e+002
4.103908e+002, 5.038764e+002
4.108729e+002, 5.034228e+002
4.113550e+002, 5.030422e+002
4.118372e+002, 5.028691e+002
4.123193e+002, 5.028409e+002
4.128014e+002, 5.031029e+002
4.132835e+002, 5.042129e+002
4.137656e+002, 5.064807e+002
4.142477e+002, 5.086591e+002
4.147299e+002, 5.091248e+002
4.152120e+002, 5.084167e+002
4.156941e+002, 5.078249e+002
4.161762e+002, 5.083743e+002
4.166583e+002, 5.090133e+002
4.171404e+002, 5.083463e+002
4.176226e+002, 5.064228e+002
4.181047e+002, 5.053264e+002
4.185868e+002, 5.067950e+002
4.190689e+002, 5.093994e+002
4.195510e+002, 5.118554e+002
4.200331e+002, 5.142422e+002
4.205153e+002, 5.158295e+002
4.209974e+002, 5.160480e+002
4.214795e+002, 5.152247e+002
4.219616e+002, 5.141619e+002
4.224437e+002, 5.122068e+002
4.229258e+002, 5.107917e+002
4.234080e+002, 5.107630e+002
4.238901e+002, 5.127397e+002
4.243722e+002, 5.140694e+002
4.248543e+002, 5.140579e+002
4.253364e+002, 5.135602e+002
4.258185e+002, 5.134239e+002
4.263007e+002, 5.141793e+002
4.267828e+002, 5.145089e+002
4.272649e+002, 5.139763e+002
4.277470e+002, 5.127816e+002
4.282291e+002, 5.122845e+002
4.287112e+002, 5.128024e+002
4.291934e+002, 5.134609e+002
4.296755e+002, 5.137347e+002
4.301576e+002, 5.134879e+002
4.306397e+002, 5.136610e+002
4.311218e+002, 5.146053e+002
4.316039e+002, 5.154395e+002
4.320861e+002, 5.142880e+002
4.325682e+002, 5.109655e+002
4.330503e+002, 5.084897e+002
4.335324e+002, 5.079534e+002
4.340145e+002, 5.090377e+002
4.344966e+002, 5.111536e+002
4.349788e+002, 5.143588e+002
4.354609e+002, 5.169880e+002
4.359430e+002, 5.171569e+002
4.364251e+002, 5.156447e+002
4.369072e+002, 5.144839e+002
4.373893e+002, 5.138541e+002
4.378715e+002, 5.141420e+002
4.383536e+002, 5.166441e+002
4.388357e+002, 5.205507e+002
4.393178e+002, 5.236027e+002
4.397999e+002, 5.241007e+002
4.402820e+002, 5.235471e+002
4.407642e+002, 5.232222e+002
4.412463e+002, 5.231913e+002
4.417284e+002, 5.230895e+002
4.422105e+002, 5.223653e+002
4.426926e+002, 5.216205e+002
4.431747e+002, 5.214386e+002
4.436569e+002, 5.222122e+002
4.441390e+002, 5.232761e+002
4.446211e+002, 5.248125e+002
4.451032e+002, 5.265334e+002
4.455853e+002, 5.275570e+002
4.460674e+002, 5.274811e+002
4.465496e+002, 5.269183e+002
4.470317e+002, 5.258464e+002
4.475138e+002, 5.237531e+002
4.479959e+002, 5.229932e+002
4.484780e+002, 5.248181e+002
4.489601e+002, 5.271254e+002
4.494423e+002, 5.276608e+002
4.499244e+002, 5.248635e+002
4.504065e+002, 5.236691e+002
4.508886e+002, 5.254694e+002
4.513707e+002, 5.293815e+002
4.518528e+002, 5.316113e+002
4.523350e+002, 5.317647e+002
4.528171e+002, 5.314244e+002
4.532992e+002, 5.312597e+002
4.537813e+002, 5.312612e+002
4.542634e+002, 5.319979e+002
4.547455e+002, 5.337383e+002
4.552277e+002, 5.353600e+002
4.557098e+002, 5.348639e+002
4.561919e+002, 5.326404e+002
4.566740e+002, 5.314696e+002
4.571561e+002, 5.329428e+002
4.576382e+002, 5.354327e+002
4.581204e+002, 5.357158e+002
4.586025e+002, 5.341157e+002
4.590846e+002, 5.329423e+002
4.595667e+002, 5.345677e+002
4.600488e+002, 5.372304e+002
4.605309e+002, 5.384348e+002
4.610131e+002, 5.375309e+002
4.614952e+002, 5.365889e+002
4.619773e+002, 5.374372e+002
4.624594e+002, 5.390880e+002
4.629415e+002, 5.401050e+002
4.634236e+002, 5.385665e+002
4.639058e+002, 5.375575e+002
4.643879e+002, 5.392159e+002
4.648700e+002, 5.431371e+002
4.653521e+002, 5.455837e+002
4.658342e+002, 5.447284e+002
4.663163e+002, 5.428296e+002
4.667985e+002, 5.409755e+002
4.672806e+002, 5.383663e+002
4.677627e+002, 5.375111e+002
4.682448e+002, 5.398342e+002
4.687269e+002, 5.433323e+002
4.692090e+002, 5.450753e+002
4.696912e+002, 5.437188e+002
4.701733e+002, 5.431092e+002
4.706554e+002, 5.443580e+002
4.711375e+002, 5.472321e+002
4.716196e+002, 5.495639e+002
4.721017e+002, 5.513922e+002
4.725839e+002, 5.525679e+002
4.730660e+002, 5.527533e+002
4.735481e+002, 5.519355e+002
4.740302e+002, 5.516212e+002
4.745123e+002, 5.520662e+002
4.749944e+002, 5.526777e+002
4.754766e+002, 5.523514e+002
4.759587e+002, 5.512795e+002
4.764408e+002, 5.506735e+002
4.769229e+002, 5.513170e+002
4.774050e+002, 5.525535e+002
4.778871e+002, 5.535184e+002
4.783693e+002, 5.541864e+002
4.788514e+002, 5.542853e+002
4.793335e+002, 5.524863e+002
4.798156e+002, 5.504927e+002
4.802977e+002, 5.507838e+002
4.807798e+002, 5.546058e+002
4.812620e+002, 5.578867e+002
4.817441e+002, 5.574243e+002
4.822262e+002, 5.550892e+002
4.827083e+002, 5.536423e+002
4.831904e+002, 5.538943e+002
4.836725e+002, 5.552725e+002
4.841547e+002, 5.581659e+002
4.846368e+002, 5.623845e+002
4.851189e+002, 5.658075e+002
4.856010e+002, 5.681600e+002
4.860831e+002, 5.696049e+002
4.865652e+002, 5.701761e+002
4.870474e+002, 5.694745e+002
4.875295e+002, 5.686813e+002
4.880116e+002, 5.673334e+002
4.884937e+002, 5.662438e+002
4.889758e+002, 5.668184e+002
4.894579e+002, 5.698281e+002
4.899401e+002, 5.721359e+002
4.904222e+002, 5.728522e+002
4.909043e+002, 5.723102e+002
4.913864e+002, 5.720607e+002
4.918685e+002, 5.721371e+002
4.923506e+002, 5.722767e+002
4.928328e+002, 5.723588e+002
4.933149e+002, 5.723679e+002
4.937970e+002, 5.721927e+002
4.942791e+002, 5.717994e+002
4.947612e+002, 5.713685e+002
4.952433e+002, 5.709513e+002
4.957255e+002, 5.706534e+002
4.962076e+002, 5.707643e+002
4.966897e+002, 5.718718e+002
4.971718e+002, 5.729714e+002
4.976539e+002, 5.726007e+002
4.981360e+002, 5.712348e+002
4.986182e+002, 5.707066e+002
4.991003e+002, 5.730888e+002
4.995824e+002, 5.758995e+002
5.000645e+002, 5.772575e+002
5.005466e+002, 5.766566e+002
5.010287e+002, 5.760354e+002
5.015109e+002, 5.755548e+002
5.019930e+002, 5.754977e+002
5.024751e+002, 5.761559e+002
5.029572e+002, 5.790875e+002
5.034393e+002, 5.808794e+002
5.039214e+002, 5.803944e+002
5.044036e+002, 5.784451e+002
5.048857e+002, 5.779446e+002
5.053678e+002, 5.796701e+002
5.058499e+002, 5.815132e+002
5.063320e+002, 5.827392e+002
5.068141e+002, 5.833515e+002
5.072963e+002, 5.832192e+002
5.077784e+002, 5.821563e+002
5.082605e+002, 5.808407e+002
5.087426e+002, 5.796834e+002
5.092247e+002, 5.787301e+002
5.097068e+002, 5.788381e+002
5.101890e+002, 5.804761e+002
5.106711e+002, 5.826502e+002
5.111532e+002, 5.834344e+002
5.116353e+002, 5.831395e+002
5.121174e+002, 5.832471e+002
5.125995e+002, 5.850862e+002
5.130817e+002, 5.874476e+002
5.135638e+002, 5.889063e+002
5.140459e+002, 5.894465e+002
5.145280e+002, 5.895870e+002
5.150101e+002, 5.893009e+002
5.154922e+002, 5.889562e+002
5.159744e+002, 5.888619e+002
5.164565e+002, 5.889501e+002
5.169386e+002, 5.895653e+002
5.174207e+002, 5.913528e+002
5.179028e+002, 5.936420e+002
5.183849e+002, 5.953302e+002
5.188671e+002, 5.965475e+002
5.193492e+002, 5.967797e+002
5.198313e+002, 5.952589e+002
5.203134e+002, 5.922101e+002
5.207955e+002, 5.909880e+002
5.212776e+002, 5.926058e+002
5.217598e+002, 5.945454e+002
5.222419e+002, 5.952208e+002
5.227240e+002, 5.942263e+002
5.232061e+002, 5.942389e+002
5.236882e+002, 5.955670e+002
5.241703e+002, 5.973271e+002
5.246525e+002, 5.983253e+002
5.251346e+002, 5.986161e+002
5.256167e+002, 5.990304e+002
5.260988e+002, 6.000372e+002
5.265809e+002, 6.010138e+002
5.270630e+002, 6.005733e+002
5.275452e+002, 5.989321e+002
5.280273e+002, 5.973092e+002
5.285094e+002, 5.960831e+002
5.289915e+002, 5.954460e+002
5.294736e+002, 5.958463e+002
5.299557e+002, 5.973528e+002
5.304379e+002, 5.987912e+002
5.309200e+002, 5.993838e+002
5.314021e+002, 5.996005e+002
5.318842e+002, 5.999167e+002
5.323663e+002, 6.006494e+002
5.328484e+002, 6.011812e+002
5.333306e+002, 6.011945e+002
5.338127e+002, 6.009042e+002
5.342948e+002, 6.007767e+002
5.347769e+002, 6.015490e+002
5.352590e+002, 6.016385e+002
5.357411e+002, 6.001334e+002
5.362233e+002, 5.971395e+002
5.367054e+002, 5.963622e+002
5.371875e+002, 5.987632e+002
5.376696e+002, 6.015577e+002
5.381517e+002, 6.030690e+002
5.386339e+002, 6.032433e+002
5.391160e+002, 6.024644e+002
5.395981e+002, 6.003291e+002
5.400802e+002, 5.984589e+002
5.405623e+002, 5.994816e+002
5.410444e+002, 6.028959e+002
5.415266e+002, 6.059134e+002
5.420087e+002, 6.077987e+002
5.424908e+002, 6.086888e+002
5.429729e+002, 6.083909e+002
5.434550e+002, 6.071232e+002
5.439371e+002, 6.057655e+002
5.444193e+002, 6.043875e+002
5.449014e+002, 6.033956e+002
5.453835e+002, 6.029833e+002
5.458656e+002, 6.031451e+002
5.463477e+002, 6.043368e+002
5.468298e+002, 6.090427e+002
5.473120e+002, 6.135815e+002
5.477941e+002, 6.148160e+002
5.482762e+002, 6.077152e+002
5.487583e+002, 6.035593e+002
5.492404e+002, 6.050189e+002
5.497225e+002, 6.093466e+002
5.502047e+002, 6.119551e+002
5.506868e+002, 6.123090e+002
5.511689e+002, 6.119017e+002
5.516510e+002, 6.107277e+002
5.521331e+002, 6.090380e+002
5.526152e+002, 6.087758e+002
5.530974e+002, 6.102556e+002
5.535795e+002, 6.116415e+002
5.540616e+002, 6.117963e+002
5.545437e+002, 6.108329e+002
5.550258e+002, 6.090646e+002
5.555079e+002, 6.063578e+002
5.559901e+002, 6.039223e+002
5.564722e+002, 6.027269e+002
5.569543e+002, 6.027449e+002
5.574364e+002, 6.041176e+002
5.579185e+002, 6.078380e+002
5.584006e+002, 6.113681e+002
5.588828e+002, 6.126519e+002
5.593649e+002, 6.122070e+002
5.598470e+002, 6.112775e+002
5.603291e+002, 6.095720e+002
5.608112e+002, 6.081768e+002
5.612933e+002, 6.077645e+002
5.617755e+002, 6.083560e+002
5.622576e+002, 6.086119e+002
5.627397e+002, 6.075582e+002
5.632218e+002, 6.067596e+002
5.637039e+002, 6.071057e+002
5.641860e+002, 6.093862e+002
5.646682e+002, 6.107309e+002
5.651503e+002, 6.108927e+002
5.656324e+002, 6.104628e+002
5.661145e+002, 6.100450e+002
5.665966e+002, 6.095958e+002
5.670787e+002, 6.097919e+002
5.675609e+002, 6.111653e+002
5.680430e+002, 6.128095e+002
5.685251e+002, 6.124505e+002
5.690072e+002, 6.103146e+002
5.694893e+002, 6.081948e+002
5.699714e+002, 6.066833e+002
5.704536e+002, 6.059354e+002
5.709357e+002, 6.066647e+002
5.714178e+002, 6.087448e+002
5.718999e+002, 6.103214e+002
5.723820e+002, 6.086593e+002
5.728641e+002, 6.068090e+002
5.733463e+002, 6.080706e+002
5.738284e+002, 6.149678e+002
5.743105e+002, 6.196634e+002
5.747926e+002, 6.173908e+002
5.752747e+002, 6.124954e+002
5.757568e+002, 6.104974e+002
5.762390e+002, 6.153763e+002
5.767211e+002, 6.183872e+002
5.772032e+002, 6.179774e+002
5.776853e+002, 6.150505e+002
5.781674e+002, 6.123125e+002
5.786495e+002, 6.091298e+002
5.791317e+002, 6.081282e+002
5.796138e+002, 6.117970e+002
5.800959e+002, 6.191495e+002
5.805780e+002, 6.211871e+002
5.810601e+002, 6.175265e+002
5.815422e+002, 6.129979e+002
5.820244e+002, 6.117054e+002
5.825065e+002, 6.126609e+002
5.829886e+002, 6.135272e+002
5.834707e+002, 6.140327e+002
5.839528e+002, 6.142650e+002
5.844349e+002, 6.138015e+002
5.849171e+002, 6.132442e+002
5.853992e+002, 6.135038e+002
5.858813e+002, 6.161959e+002
5.863634e+002, 6.183571e+002
5.868455e+002, 6.181842e+002
5.873276e+002, 6.164854e+002
5.878098e+002, 6.154741e+002
5.882919e+002, 6.157445e+002
5.887740e+002, 6.166031e+002
5.892561e+002, 6.181895e+002
5.897382e+002, 6.205321e+002
5.902203e+002, 6.215846e+002
5.907025e+002, 6.207377e+002
5.911846e+002, 6.196727e+002
5.916667e+002, 6.196617e+002
5.921488e+002, 6.208338e+002
5.926309e+002, 6.208537e+002
5.931130e+002, 6.192543e+002
5.935952e+002, 6.179625e+002
5.940773e+002, 6.205160e+002
5.945594e+002, 6.256559e+002
5.950415e+002, 6.282447e+002
5.955236e+002, 6.262806e+002
5.960057e+002, 6.226837e+002
5.964879e+002, 6.195543e+002
5.969700e+002, 6.173071e+002
5.974521e+002, 6.169642e+002
5.979342e+002, 6.214074e+002
5.984163e+002, 6.257620e+002
5.988984e+002, 6.271730e+002
5.993806e+002, 6.258370e+002
5.998627e+002, 6.241776e+002
6.003448e+002, 6.218873e+002
6.008269e+002, 6.201274e+002
6.013090e+002, 6.194177e+002
6.017911e+002, 6.198840e+002
6.022733e+002, 6.210020e+002
6.027554e+002, 6.232096e+002
6.032375e+002, 6.254464e+002
6.037196e+002, 6.266985e+002
6.042017e+002, 6.269206e+002
6.046838e+002, 6.265447e+002
6.051660e+002, 6.253321e+002
6.056481e+002, 6.242119e+002
6.061302e+002, 6.250822e+002
6.066123e+002, 6.275197e+002
6.070944e+002, 6.295342e+002
6.075765e+002, 6.301934e+002
6.080587e+002, 6.302734e+002
6.085408e+002, 6.305204e+002
6.090229e+002, 6.309301e+002
6.095050e+002, 6.315026e+002
6.099871e+002, 6.326110e+002
6.104692e+002, 6.335675e+002
6.109514e+002, 6.336080e+002
6.114335e+002, 6.325948e+002
6.119156e+002, 6.325743e+002
6.123977e+002, 6.358182e+002
6.128798e+002, 6.387328e+002
6.133619e+002, 6.389103e+002
6.138441e+002, 6.340006e+002
6.143262e+002, 6.321608e+002
6.148083e+002, 6.342381e+002
6.152904e+002, 6.382038e+002
6.157725e+002, 6.420211e+002
6.162546e+002, 6.457757e+002
6.167368e+002, 6.478360e+002
6.172189e+002, 6.475675e+002
6.177010e+002, 6.460618e+002
6.181831e+002, 6.450619e+002
6.186652e+002, 6.445086e+002
6.191473e+002, 6.441661e+002
6.196295e+002, 6.437450e+002
6.201116e+002, 6.436079e+002
6.205937e+002, 6.442823e+002
6.210758e+002, 6.456310e+002
6.215579e+002, 6.470021e+002
6.220400e+002, 6.487647e+002
6.225222e+002, 6.498741e+002
6.230043e+002, 6.490878e+002
6.234864e+002, 6.455751e+002
6.239685e+002, 6.444341e+002
6.244506e+002, 6.483986e+002
6.249327e+002, 6.529986e+002
6.254149e+002, 6.552158e+002
6.258970e+002, 6.540536e+002
6.263791e+002, 6.533637e+002
6.268612e+002, 6.531500e+002
6.273433e+002, 6.536423e+002
6.278254e+002, 6.558212e+002
6.283076e+002, 6.595479e+002
6.287897e+002, 6.616200e+002
6.292718e+002, 6.606295e+002
6.297539e+002, 6.586066e+002
6.302360e+002, 6.586083e+002
6.307181e+002, 6.602814e+002
6.312003e+002, 6.625226e+002
6.316824e+002, 6.657429e+002
6.321645e+002, 6.685667e+002
6.326466e+002, 6.699995e+002
6.331287e+002, 6.700858e+002
6.336108e+002, 6.691672e+002
6.340930e+002, 6.650148e+002
6.345751e+002, 6.618544e+002
6.350572e+002, 6.625205e+002
6.355393e+002, 6.682609e+002
6.360214e+002, 6.716777e+002
6.365035e+002, 6.717401e+002
6.369857e+002, 6.707287e+002
6.374678e+002, 6.701256e+002
6.379499e+002, 6.698568e+002
6.384320e+002, 6.706830e+002
6.389141e+002, 6.729033e+002
6.393962e+002, 6.754755e+002
6.398784e+002, 6.770696e+002
6.403605e+002, 6.778035e+002
6.408426e+002, 6.782641e+002
6.413247e+002, 6.786597e+002
6.418068e+002, 6.787516e+002
6.422889e+002, 6.777321e+002
6.427711e+002, 6.762244e+002
6.432532e+002, 6.756142e+002
6.437353e+002, 6.771379e+002
6.442174e+002, 6.791202e+002
6.446995e+002, 6.811074e+002
6.451816e+002, 6.829833e+002
6.456638e+002, 6.842079e+002
6.461459e+002, 6.838346e+002
6.466280e+002, 6.836890e+002
6.471101e+002, 6.845825e+002
6.475922e+002, 6.866105e+002
6.480743e+002, 6.876874e+002
6.485565e+002, 6.875499e+002
6.490386e+002, 6.870935e+002
6.495207e+002, 6.868737e+002
6.500028e+002, 6.868931e+002
6.504849e+002, 6.874886e+002
6.509670e+002, 6.888097e+002
6.514492e+002, 6.897687e+002
6.519313e+002, 6.887371e+002
6.524134e+002, 6.865846e+002
6.528955e+002, 6.850299e+002
6.533776e+002, 6.847517e+002
6.538597e+002, 6.845400e+002
6.543419e+002, 6.830486e+002
6.548240e+002, 6.812754e+002
6.553061e+002, 6.807755e+002
6.557882e+002, 6.844230e+002
6.562703e+002, 6.865867e+002
6.567524e+002, 6.849207e+002
6.572346e+002, 6.808883e+002
6.577167e+002, 6.788730e+002
6.581988e+002, 6.797450e+002
6.586809e+002, 6.806974e+002
6.591630e+002, 6.808505e+002
6.596451e+002, 6.802987e+002
6.601273e+002, 6.794418e+002
6.606094e+002, 6.782366e+002
6.610915e+002, 6.772501e+002
6.615736e+002, 6.770599e+002
6.620557e+002, 6.772728e+002
6.625378e+002, 6.771696e+002
6.630200e+002, 6.767055e+002
6.635021e+002, 6.759523e+002
6.639842e+002, 6.749186e+002
6.644663e+002, 6.736310e+002
6.649484e+002, 6.719838e+002
6.654305e+002, 6.695804e+002
6.659127e+002, 6.679186e+002
6.663948e+002, 6.685013e+002
6.668769e+002, 6.693945e+002
6.673590e+002, 6.685134e+002
6.678411e+002, 6.643574e+002
6.683232e+002, 6.617094e+002
6.688054e+002, 6.614882e+002
6.692875e+002, 6.623373e+002
6.697696e+002, 6.615880e+002
6.702517e+002, 6.591902e+002
6.707338e+002, 6.579218e+002
6.712159e+002, 6.593054e+002
6.716981e+002, 6.613297e+002
6.721802e+002, 6.601130e+002
6.726623e+002, 6.564006e+002
6.731444e+002, 6.528244e+002
6.736265e+002, 6.514156e+002
6.741086e+002, 6.501638e+002
6.745908e+002, 6.469120e+002
6.750729e+002, 6.421499e+002
6.755550e+002, 6.390153e+002
6.760371e+002, 6.400492e+002
6.765192e+002, 6.415394e+002
6.770013e+002, 6.420266e+002
6.774835e+002, 6.414954e+002
6.779656e+002, 6.397759e+002
6.784477e+002, 6.358184e+002
6.789298e+002, 6.325468e+002
6.794119e+002, 6.327672e+002
6.798940e+002, 6.365182e+002
6.803762e+002, 6.376630e+002
6.808583e+002, 6.357424e+002
6.813404e+002, 6.329520e+002
6.818225e+002, 6.317481e+002
6.823046e+002, 6.313121e+002
6.827867e+002, 6.296083e+002
6.832689e+002, 6.257015e+002
6.837510e+002, 6.223264e+002
6.842331e+002, 6.222291e+002
6.847152e+002, 6.236219e+002
6.851973e+002, 6.242362e+002
6.856794e+002, 6.228865e+002
6.861616e+002, 6.214214e+002
6.866437e+002, 6.205106e+002
6.871258e+002, 6.195967e+002
6.876079e+002, 6.174709e+002
6.880900e+002, 6.133704e+002
6.885721e+002, 6.102034e+002
6.890543e+002, 6.090735e+002
6.895364e+002, 6.090999e+002
6.900185e+002, 6.071691e+002
6.905006e+002, 6.033839e+002
6.909827e+002, 6.006262e+002
6.914648e+002, 6.017188e+002
6.919470e+002, 6.040073e+002
6.924291e+002, 6.026617e+002
6.929112e+002, 5.983822e+002
6.933933e+002, 5.950687e+002
6.938754e+002, 5.965829e+002
6.943575e+002, 5.984078e+002
6.948397e+002, 5.970001e+002
6.953218e+002, 5.917426e+002
6.958039e+002, 5.882838e+002
6.962860e+002, 5.886547e+002
6.967681e+002, 5.897928e+002
6.972502e+002, 5.902738e+002
6.977324e+002, 5.900091e+002
6.982145e+002, 5.894528e+002
6.986966e+002, 5.884872e+002
6.991787e+002, 5.875724e+002
6.996608e+002, 5.872449e+002
7.001429e+002, 5.873879e+002
7.006251e+002, 5.874990e+002
7.011072e+002, 5.875626e+002
7.015893e+002, 5.872689e+002
7.020714e+002, 5.858470e+002
7.025535e+002, 5.840038e+002
7.030356e+002, 5.827929e+002
7.035178e+002, 5.827612e+002
7.039999e+002, 5.829794e+002
7.044820e+002, 5.836215e+002
7.049641e+002, 5.841431e+002
7.054462e+002, 5.835995e+002
7.059283e+002, 5.802579e+002
7.064105e+002, 5.787223e+002
7.068926e+002, 5.806022e+002
7.073747e+002, 5.840102e+002
7.078568e+002, 5.839238e+002
7.083389e+002, 5.800170e+002
7.088210e+002, 5.771771e+002
7.093032e+002, 5.777510e+002
7.097853e+002, 5.797518e+002
7.102674e+002, 5.787725e+002
7.107495e+002, 5.754803e+002
7.112316e+002, 5.727111e+002
7.117137e+002, 5.720898e+002
7.121959e+002, 5.724968e+002
7.126780e+002, 5.738602e+002
7.131601e+002, 5.758596e+002
7.136422e+002, 5.764545e+002
7.141243e+002, 5.731115e+002
7.146064e+002, 5.701651e+002
7.150886e+002, 5.696854e+002
7.155707e+002, 5.717706e+002
7.160528e+002, 5.725090e+002
7.165349e+002, 5.714216e+002
7.170170e+002, 5.702320e+002
7.174991e+002, 5.703036e+002
7.179813e+002, 5.713937e+002
7.184634e+002, 5.714196e+002
7.189455e+002, 5.702977e+002
7.194276e+002, 5.689695e+002
7.199097e+002, 5.684183e+002
7.203918e+002, 5.680748e+002
7.208740e+002, 5.668750e+002
7.213561e+002, 5.643633e+002
7.218382e+002, 5.628494e+002
7.223203e+002, 5.647516e+002
7.228024e+002, 5.673477e+002
7.232845e+002, 5.681699e+002
7.237667e+002, 5.651524e+002
7.242488e+002, 5.636769e+002
7.247309e+002, 5.645826e+002
7.252130e+002, 5.661151e+002
7.256951e+002, 5.659465e+002
7.261772e+002, 5.639009e+002
7.266594e+002, 5.629731e+002
7.271415e+002, 5.638283e+002
7.276236e+002, 5.653635e+002
7.281057e+002, 5.664588e+002
7.285878e+002, 5.670276e+002
7.290699e+002, 5.667910e+002
7.295521e+002, 5.651841e+002
7.300342e+002, 5.635142e+002
7.305163e+002, 5.626306e+002
7.309984e+002, 5.623030e+002
7.314805e+002, 5.621183e+002
7.319626e+002, 5.622712e+002
7.324448e+002, 5.621940e+002
7.329269e+002, 5.615929e+002
7.334090e+002, 5.607435e+002
7.338911e+002, 5.605018e+002
7.343732e+002, 5.610692e+002
7.348553e+002, 5.614266e+002
7.353375e+002, 5.612278e+002
7.358196e+002, 5.606320e+002
7.363017e+002, 5.600750e+002
7.367838e+002, 5.595186e+002
7.372659e+002, 5.587312e+002
7.377480e+002, 5.569352e+002
7.382302e+002, 5.553347e+002
7.387123e+002, 5.551101e+002
7.391944e+002, 5.561078e+002
7.396765e+002, 5.574957e+002
7.401586e+002, 5.601786e+002
7.406407e+002, 5.620441e+002
7.411229e+002, 5.616452e+002
7.416050e+002, 5.591293e+002
7.420871e+002, 5.576324e+002
7.425692e+002, 5.573723e+002
7.430513e+002, 5.576004e+002
7.435334e+002, 5.580129e+002
7.440156e+002, 5.586010e+002
7.444977e+002, 5.594001e+002
7.449798e+002, 5.604152e+002
7.454619e+002, 5.610944e+002
7.459440e+002, 5.607350e+002
7.464261e+002, 5.599283e+002
7.469083e+002, 5.592958e+002
7.473904e+002, 5.588905e+002
7.478725e+002, 5.588869e+002
7.483546e+002, 5.602773e+002
7.488367e+002, 5.614220e+002
7.493188e+002, 5.608309e+002
7.498010e+002, 5.574208e+002
7.502831e+002, 5.562225e+002
7.507652e+002, 5.584873e+002
7.512473e+002, 5.610283e+002
7.517294e+002, 5.607885e+002
7.522115e+002, 5.578283e+002
7.526937e+002, 5.569182e+002
7.531758e+002, 5.584857e+002
7.536579e+002, 5.611169e+002
7.541400e+002, 5.646924e+002
7.546221e+002, 5.679396e+002
7.551042e+002, 5.684548e+002
7.555864e+002, 5.652064e+002
7.560685e+002, 5.615831e+002
7.565506e+002, 5.592662e+002
7.570327e+002, 5.575408e+002
7.575148e+002, 5.557523e+002
7.579969e+002, 5.532828e+002
7.584791e+002, 5.515093e+002
7.589612e+002, 5.504042e+002
7.594433e+002, 5.500165e+002
7.599254e+002, 5.504152e+002
7.604075e+002, 5.516021e+002
7.608896e+002, 5.538389e+002
7.613718e+002, 5.575731e+002
7.618539e+002, 5.610287e+002
7.623360e+002, 5.614072e+002
7.628181e+002, 5.598056e+002
7.633002e+002, 5.585112e+002
7.637823e+002, 5.582836e+002
7.642645e+002, 5.583514e+002
7.647466e+002, 5.586041e+002
7.652287e+002, 5.587931e+002
7.657108e+002, 5.585365e+002
7.661929e+002, 5.571035e+002
7.666750e+002, 5.562133e+002
7.671572e+002, 5.562770e+002
7.676393e+002, 5.567634e+002
7.681214e+002, 5.565959e+002
7.686035e+002, 5.557158e+002
7.690856e+002, 5.550607e+002
7.695677e+002, 5.549166e+002
7.700499e+002, 5.549985e+002
7.705320e+002, 5.546146e+002
7.710141e+002, 5.540883e+002
7.714962e+002, 5.542653e+002
7.719783e+002, 5.568658e+002
7.724604e+002, 5.588211e+002
7.729426e+002, 5.574989e+002
7.734247e+002, 5.544047e+002
7.739068e+002, 5.531158e+002
7.743889e+002, 5.561130e+002
7.748710e+002, 5.579289e+002
7.753531e+002, 5.571638e+002
7.758353e+002, 5.548343e+002
7.763174e+002, 5.540731e+002
7.767995e+002, 5.549867e+002
7.772816e+002, 5.552978e+002
7.777637e+002, 5.536671e+002
7.782458e+002, 5.515271e+002
7.787280e+002, 5.515063e+002
7.792101e+002, 5.530721e+002
7.796922e+002, 5.545028e+002
7.801743e+002, 5.550151e+002
7.806564e+002, 5.551461e+002
7.811385e+002, 5.547687e+002
7.816207e+002, 5.541483e+002
7.821028e+002, 5.544803e+002
7.825849e+002, 5.567852e+002
7.830670e+002, 5.584652e+002
7.835491e+002, 5.585911e+002
7.840313e+002, 5.576324e+002
7.845134e+002, 5.577386e+002
7.849955e+002, 5.589318e+002
7.854776e+002, 5.593646e+002
7.859597e+002, 5.573485e+002
7.864418e+002, 5.546360e+002
7.869240e+002, 5.540663e+002
7.874061e+002, 5.552580e+002
7.878882e+002, 5.568505e+002
7.883703e+002, 5.599127e+002
7.888524e+002, 5.615012e+002
7.893345e+002, 5.584719e+002
7.898167e+002, 5.517994e+002
7.902988e+002, 5.495398e+002
7.907809e+002, 5.546496e+002
7.912630e+002, 5.588758e+002
7.917451e+002, 5.589865e+002
7.922272e+002, 5.561027e+002
7.927094e+002, 5.555275e+002
7.931915e+002, 5.571589e+002
7.936736e+002, 5.582185e+002
7.941557e+002, 5.565046e+002
7.946378e+002, 5.537037e+002
7.951199e+002, 5.515200e+002
7.956021e+002, 5.500730e+002
7.960842e+002, 5.496849e+002
7.965663e+002, 5.514576e+002
7.970484e+002, 5.534149e+002
7.975305e+002, 5.548266e+002
7.980126e+002, 5.556745e+002
7.984948e+002, 5.558383e+002
7.989769e+002, 5.549337e+002
7.994590e+002, 5.543493e+002
7.999411e+002, 5.551302e+002
8.004232e+002, 5.565828e+002
8.009053e+002, 5.549699e+002
8.013875e+002, 5.507350e+002
8.018696e+002, 5.482578e+002
8.023517e+002, 5.524540e+002
8.028338e+002, 5.580311e+002
8.033159e+002, 5.595737e+002
8.037980e+002, 5.575642e+002
8.042802e+002, 5.555574e+002
8.047623e+002, 5.538087e+002
8.052444e+002, 5.532295e+002
8.057265e+002, 5.548052e+002
8.062086e+002, 5.580980e+002
8.066907e+002, 5.588820e+002
8.071729e+002, 5.564242e+002
8.076550e+002, 5.546088e+002
8.081371e+002, 5.559294e+002
8.086192e+002, 5.589388e+002
8.091013e+002, 5.599281e+002
8.095834e+002, 5.590637e+002
8.100656e+002, 5.572914e+002
8.105477e+002, 5.533526e+002
8.110298e+002, 5.502699e+002
8.115119e+002, 5.509783e+002
8.119940e+002, 5.549351e+002
8.124761e+002, 5.574662e+002
8.129583e+002, 5.571799e+002
8.134404e+002, 5.562257e+002
8.139225e+002, 5.549411e+002
8.144046e+002, 5.534966e+002
8.148867e+002, 5.528856e+002
8.153688e+002, 5.531356e+002
8.158510e+002, 5.537780e+002
8.163331e+002, 5.547500e+002
8.168152e+002, 5.558571e+002
8.172973e+002, 5.570203e+002
8.177794e+002, 5.580858e+002
8.182615e+002, 5.584294e+002
8.187437e+002, 5.559050e+002
8.192258e+002, 5.543564e+002
8.197079e+002, 5.570620e+002
8.201900e+002, 5.630181e+002
8.206721e+002, 5.646479e+002
8.211542e+002, 5.598767e+002
8.216364e+002, 5.553458e+002
8.221185e+002, 5.532339e+002
8.226006e+002, 5.529637e+002
8.230827e+002, 5.522648e+002
8.235648e+002, 5.513276e+002
8.240469e+002, 5.516322e+002
8.245291e+002, 5.554440e+002
8.250112e+002, 5.596954e+002
8.254933e+002, 5.612505e+002
8.259754e+002, 5.607933e+002
8.264575e+002, 5.605305e+002
8.269396e+002, 5.622779e+002
8.274218e+002, 5.629423e+002
8.279039e+002, 5.606934e+002
8.283860e+002, 5.569181e+002
8.288681e+002, 5.570317e+002
8.293502e+002, 5.619964e+002
8.298323e+002, 5.651056e+002
8.303145e+002, 5.636051e+002
8.307966e+002, 5.595521e+002
8.312787e+002, 5.560968e+002
8.317608e+002, 5.533251e+002
8.322429e+002, 5.516180e+002
8.327250e+002, 5.514318e+002
8.332072e+002, 5.520368e+002
8.336893e+002, 5.538329e+002
8.341714e+002, 5.561134e+002
8.346535e+002, 5.568582e+002
8.351356e+002, 5.544120e+002
8.356177e+002, 5.533670e+002
8.360999e+002, 5.549922e+002
8.365820e+002, 5.580367e+002
8.370641e+002, 5.598173e+002
8.375462e+002, 5.603942e+002
8.380283e+002, 5.604396e+002
8.385104e+002, 5.601583e+002
8.389926e+002, 5.594482e+002
8.394747e+002, 5.574811e+002
8.399568e+002, 5.551540e+002
8.404389e+002, 5.540121e+002
8.409210e+002, 5.554750e+002
8.414031e+002, 5.571278e+002
8.418853e+002, 5.592595e+002
8.423674e+002, 5.608713e+002
8.428495e+002, 5.600346e+002
8.433316e+002, 5.559525e+002
8.438137e+002, 5.534969e+002
8.442958e+002, 5.536863e+002
8.447780e+002, 5.551246e+002
8.452601e+002, 5.558776e+002
8.457422e+002, 5.562496e+002
8.462243e+002, 5.571534e+002
8.467064e+002, 5.593337e+002
8.471885e+002, 5.608094e+002
8.476707e+002, 5.597665e+002
8.481528e+002, 5.577083e+002
8.486349e+002, 5.563754e+002
8.491170e+002, 5.558893e+002
8.495991e+002, 5.563478e+002
8.500812e+002, 5.581373e+002
8.505634e+002, 5.602883e+002
8.510455e+002, 5.619604e+002
8.515276e+002, 5.631132e+002
8.520097e+002, 5.630693e+002
8.524918e+002, 5.615455e+002
8.529739e+002, 5.602889e+002
8.534561e+002, 5.622153e+002
8.539382e+002, 5.646128e+002
8.544203e+002, 5.639326e+002
8.549024e+002, 5.580895e+002
8.553845e+002, 5.541558e+002
8.558666e+002, 5.546048e+002
8.563488e+002, 5.563636e+002
8.568309e+002, 5.573658e+002
8.573130e+002, 5.573495e+002
8.577951e+002, 5.589316e+002
8.582772e+002, 5.623549e+002
8.587593e+002, 5.655800e+002
8.592415e+002, 5.674247e+002
8.597236e+002, 5.676176e+002
8.602057e+002, 5.646265e+002
8.606878e+002, 5.583932e+002
8.611699e+002, 5.540262e+002
8.616520e+002, 5.548961e+002
8.621342e+002, 5.576306e+002
8.626163e+002, 5.610579e+002
8.630984e+002, 5.652366e+002
8.635805e+002, 5.660780e+002
8.640626e+002, 5.624859e+002
8.645447e+002, 5.587867e+002
8.650269e+002, 5.576493e+002
8.655090e+002, 5.583059e+002
8.659911e+002, 5.579426e+002
8.664732e+002, 5.567655e+002
8.669553e+002, 5.561660e+002
8.674374e+002, 5.576351e+002
8.679196e+002, 5.594514e+002
8.684017e+002, 5.603371e+002
8.688838e+002, 5.603909e+002
8.693659e+002, 5.607623e+002
8.698480e+002, 5.625010e+002
8.703301e+002, 5.628258e+002
8.708123e+002, 5.600667e+002
8.712944e+002, 5.557015e+002
8.717765e+002, 5.553640e+002
8.722586e+002, 5.586784e+002
8.727407e+002, 5.616272e+002
8.732228e+002, 5.620463e+002
8.737050e+002, 5.617183e+002
8.741871e+002, 5.626804e+002
8.746692e+002, 5.642842e+002
8.751513e+002, 5.651291e+002
8.756334e+002, 5.638283e+002
8.761155e+002, 5.629036e+002
8.765977e+002, 5.626736e+002
8.770798e+002, 5.631387e+002
8.775619e+002, 5.648596e+002
8.780440e+002, 5.680665e+002
8.785261e+002, 5.690100e+002
8.790082e+002, 5.663973e+002
8.794904e+002, 5.627748e+002
8.799725e+002, 5.611740e+002
8.804546e+002, 5.609696e+002
8.809367e+002, 5.610892e+002
8.814188e+002, 5.612507e+002
8.819009e+002, 5.616710e+002
8.823831e+002, 5.630490e+002
8.828652e+002, 5.643255e+002
8.833473e+002, 5.643923e+002
8.838294e+002, 5.629222e+002
8.843115e+002, 5.613226e+002
8.847936e+002, 5.593986e+002
8.852758e+002, 5.582646e+002
8.857579e+002, 5.602125e+002
8.862400e+002, 5.635934e+002
8.867221e+002, 5.641368e+002
8.872042e+002, 5.611654e+002
8.876863e+002, 5.587178e+002
8.881685e+002, 5.594951e+002
8.886506e+002, 5.613151e+002
8.891327e+002, 5.626652e+002
8.896148e+002, 5.633624e+002
8.900969e+002, 5.644548e+002
8.905790e+002, 5.662775e+002
8.910612e+002, 5.676171e+002
8.915433e+002, 5.675178e+002
8.920254e+002, 5.663547e+002
8.925075e+002, 5.649948e+002
8.929896e+002, 5.636151e+002
8.934717e+002, 5.636812e+002
8.939539e+002, 5.690801e+002
8.944360e+002, 5.735667e+002
8.949181e+002, 5.713724e+002
8.954002e+002, 5.637579e+002
8.958823e+002, 5.598334e+002
8.963644e+002, 5.616553e+002
8.968466e+002, 5.642828e+002
8.973287e+002, 5.669927e+002
8.978108e+002, 5.691835e+002
8.982929e+002, 5.686166e+002
8.987750e+002, 5.657794e+002
8.992571e+002, 5.638184e+002
8.997393e+002, 5.645744e+002
9.002214e+002, 5.656886e+002
9.007035e+002, 5.643556e+002
9.011856e+002, 5.622245e+002
9.016677e+002, 5.620907e+002
9.021498e+002, 5.673741e+002
9.026320e+002, 5.707293e+002
9.031141e+002, 5.712454e+002
9.035962e+002, 5.702388e+002
9.040783e+002, 5.692089e+002
9.045604e+002, 5.681674e+002
9.050425e+002, 5.673258e+002
9.055247e+002, 5.666390e+002
9.060068e+002, 5.666307e+002
9.064889e+002, 5.685587e+002
9.069710e+002, 5.710375e+002
9.074531e+002, 5.724839e+002
9.079352e+002, 5.724295e+002
9.084174e+002, 5.721849e+002
9.088995e+002, 5.716420e+002
9.093816e+002, 5.713450e+002
9.098637e+002, 5.718236e+002
9.103458e+002, 5.730810e+002
9.108279e+002, 5.734227e+002
9.113101e+002, 5.728326e+002
9.117922e+002, 5.720500e+002
9.122743e+002, 5.713906e+002
9.127564e+002, 5.709642e+002
9.132385e+002, 5.712142e+002
9.137206e+002, 5.719691e+002
9.142028e+002, 5.720040e+002
9.146849e+002, 5.701241e+002
9.151670e+002, 5.683721e+002
9.156491e+002, 5.670374e+002
9.161312e+002, 5.663507e+002
9.166133e+002, 5.678565e+002
9.170955e+002, 5.716202e+002
9.175776e+002, 5.739335e+002
9.180597e+002, 5.727413e+002
9.185418e+002, 5.705353e+002
9.190239e+002, 5.704680e+002
9.195060e+002, 5.716699e+002
9.199882e+002, 5.724529e+002
9.204703e+002, 5.720863e+002
9.209524e+002, 5.714440e+002
9.214345e+002, 5.702177e+002
9.219166e+002, 5.691407e+002
9.223987e+002, 5.693170e+002
9.228809e+002, 5.708427e+002
9.233630e+002, 5.719464e+002
9.238451e+002, 5.723998e+002
9.243272e+002, 5.725770e+002
9.248093e+002, 5.728559e+002
9.252914e+002, 5.731083e+002
9.257736e+002, 5.731979e+002
9.262557e+002, 5.731302e+002
9.267378e+002, 5.727586e+002
9.272199e+002, 5.709590e+002
9.277020e+002, 5.699435e+002
9.281841e+002, 5.713240e+002
9.286663e+002, 5.750927e+002
9.291484e+002, 5.766464e+002
9.296305e+002, 5.759108e+002
9.301126e+002, 5.749364e+002
9.305947e+002, 5.751895e+002
9.310768e+002, 5.758439e+002
9.315590e+002, 5.758741e+002
9.320411e+002, 5.753612e+002
9.325232e+002, 5.747264e+002
9.330053e+002, 5.732674e+002
9.334874e+002, 5.727789e+002
9.339695e+002, 5.741422e+002
9.344517e+002, 5.765032e+002
9.349338e+002, 5.779695e+002
9.354159e+002, 5.785345e+002
9.358980e+002, 5.779106e+002
9.363801e+002, 5.755306e+002
9.368622e+002, 5.732640e+002
9.373444e+002, 5.741059e+002
9.378265e+002, 5.762858e+002
9.383086e+002, 5.771005e+002
9.387907e+002, 5.747789e+002
9.392728e+002, 5.731591e+002
9.397549e+002, 5.730501e+002
9.402371e+002, 5.736576e+002
9.407192e+002, 5.745155e+002
9.412013e+002, 5.756330e+002
9.416834e+002, 5.763126e+002
9.421655e+002, 5.765045e+002
9.426476e+002, 5.766725e+002
9.431298e+002, 5.770226e+002
9.436119e+002, 5.776635e+002
9.440940e+002, 5.792294e+002
9.445761e+002, 5.816508e+002
9.450582e+002, 5.825259e+002
9.455403e+002, 5.800880e+002
9.460225e+002, 5.774254e+002
9.465046e+002, 5.752520e+002
9.469867e+002, 5.736551e+002
9.474688e+002, 5.732197e+002
9.479509e+002, 5.738761e+002
9.484330e+002, 5.743869e+002
9.489152e+002, 5.737794e+002
9.493973e+002, 5.734230e+002
9.498794e+002, 5.753561e+002
9.503615e+002, 5.783156e+002
9.508436e+002, 5.800668e+002
9.513257e+002, 5.781268e+002
9.518079e+002, 5.778643e+002
9.522900e+002, 5.805748e+002
9.527721e+002, 5.836851e+002
9.532542e+002, 5.836266e+002
9.537363e+002, 5.808941e+002
9.542184e+002, 5.794223e+002
9.547006e+002, 5.797592e+002
9.551827e+002, 5.800190e+002
9.556648e+002, 5.780196e+002
9.561469e+002, 5.757075e+002
9.566290e+002, 5.749825e+002
9.571111e+002, 5.762636e+002
9.575933e+002, 5.770751e+002
9.580754e+002, 5.773304e+002
9.585575e+002, 5.770824e+002
9.590396e+002, 5.761205e+002
9.595217e+002, 5.747628e+002
9.600038e+002, 5.740201e+002
9.604860e+002, 5.738724e+002
9.609681e+002, 5.742196e+002
9.614502e+002, 5.754568e+002
9.619323e+002, 5.767106e+002
9.624144e+002, 5.772787e+002
9.628965e+002, 5.775157e+002
9.633787e+002, 5.782617e+002
9.638608e+002, 5.799767e+002
9.643429e+002, 5.810231e+002
9.648250e+002, 5.810750e+002
9.653071e+002, 5.807312e+002
9.657892e+002, 5.806128e+002
9.662714e+002, 5.807701e+002
9.667535e+002, 5.815213e+002
9.672356e+002, 5.830448e+002
9.677177e+002, 5.841432e+002
9.681998e+002, 5.838771e+002
9.686819e+002, 5.831527e+002
9.691641e+002, 5.827018e+002
9.696462e+002, 5.826050e+002
9.701283e+002, 5.814014e+002
9.706104e+002, 5.786940e+002
9.710925e+002, 5.770077e+002
9.715746e+002, 5.786481e+002
9.720568e+002, 5.817794e+002
9.725389e+002, 5.835398e+002
9.730210e+002, 5.839611e+002
9.735031e+002, 5.830915e+002
9.739852e+002, 5.786544e+002
9.744673e+002, 5.757213e+002
9.749495e+002, 5.762339e+002
9.754316e+002, 5.787957e+002
9.759137e+002, 5.815404e+002
9.763958e+002, 5.845547e+002
9.768779e+002, 5.860256e+002
9.773600e+002, 5.854576e+002
9.778422e+002, 5.840948e+002
9.783243e+002, 5.829077e+002
9.788064e+002, 5.819130e+002
9.792885e+002, 5.813034e+002
9.797706e+002, 5.813209e+002
9.802527e+002, 5.805632e+002
9.807349e+002, 5.778032e+002
9.812170e+002, 5.755869e+002
9.816991e+002, 5.753661e+002
9.821812e+002, 5.769236e+002
9.826633e+002, 5.792092e+002
9.831454e+002, 5.820699e+002
9.836276e+002, 5.838499e+002
9.841097e+002, 5.826591e+002
9.845918e+002, 5.808351e+002
9.850739e+002, 5.793035e+002
9.855560e+002, 5.785584e+002
9.860381e+002, 5.802510e+002
9.865203e+002, 5.867059e+002
9.870024e+002, 5.905810e+002
9.874845e+002, 5.904995e+002
9.879666e+002, 5.884246e+002
9.884487e+002, 5.867389e+002
9.889308e+002, 5.854297e+002
9.894130e+002, 5.843132e+002
9.898951e+002, 5.833035e+002
9.903772e+002, 5.829845e+002
9.908593e+002, 5.842690e+002
9.913414e+002, 5.859303e+002
9.918235e+002, 5.871198e+002
9.923057e+002, 5.878185e+002
9.927878e+002, 5.882893e+002
9.932699e+002, 5.885194e+002
9.937520e+002, 5.886257e+002
9.942341e+002, 5.886049e+002
9.947162e+002, 5.885453e+002
9.951984e+002, 5.888171e+002
9.956805e+002, 5.891829e+002
9.961626e+002, 5.889913e+002
9.966447e+002, 5.875087e+002
9.971268e+002, 5.860174e+002
9.976089e+002, 5.842682e+002
9.980911e+002, 5.830491e+002
9.985732e+002, 5.841190e+002
9.990553e+002, 5.874435e+002
9.995374e+002, 5.884821e+002
1.000020e+003, 5.864633e+002
1.000502e+003, 5.839512e+002
1.000984e+003, 5.829244e+002
1.001466e+003, 5.828246e+002
1.001948e+003, 5.834271e+002
1.002430e+003, 5.848028e+002
1.002912e+003, 5.852534e+002
1.003394e+003, 5.841836e+002
1.003876e+003, 5.831570e+002
1.004359e+003, 5.827288e+002
1.004841e+003, 5.828671e+002
1.005323e+003, 5.835817e+002
1.005805e+003, 5.848116e+002
1.006287e+003, 5.862969e+002
1.006769e+003, 5.885754e+002
1.007251e+003, 5.902635e+002
1.007733e+003, 5.896730e+002
1.008216e+003, 5.885267e+002
1.008698e+003, 5.896539e+002
1.009180e+003, 5.947135e+002
1.009662e+003, 5.951901e+002
1.010144e+003, 5.899303e+002
1.010626e+003, 5.836669e+002
1.011108e+003, 5.806128e+002
1.011590e+003, 5.799013e+002
1.012072e+003, 5.808207e+002
1.012555e+003, 5.831866e+002
1.013037e+003, 5.852208e+002
1.013519e+003, 5.860298e+002
1.014001e+003, 5.867120e+002
1.014483e+003, 5.877263e+002
1.014965e+003, 5.888470e+002
1.015447e+003, 5.893575e+002
1.015929e+003, 5.892727e+002
1.016411e+003, 5.886224e+002
1.016894e+003, 5.872034e+002
1.017376e+003, 5.857396e+002
1.017858e+003, 5.841520e+002
1.018340e+003, 5.832433e+002
1.018822e+003, 5.843599e+002
1.019304e+003, 5.896970e+002
1.019786e+003, 5.915033e+002
1.020268e+003, 5.887891e+002
1.020751e+003, 5.851970e+002
1.021233e+003, 5.830087e+002
1.021715e+003, 5.822108e+002
1.022197e+003, 5.831621e+002
1.022679e+003, 5.856346e+002
1.023161e+003, 5.883226e+002
1.023643e+003, 5.921600e+002
1.024125e+003, 5.942634e+002
1.024607e+003, 5.917002e+002
1.025090e+003, 5.872928e+002
1.025572e+003, 5.875494e+002
1.026054e+003, 5.929095e+002
1.026536e+003, 5.962687e+002
1.027018e+003, 5.960995e+002
1.027500e+003, 5.947242e+002
1.027982e+003, 5.944912e+002
1.028464e+003, 5.945145e+002
1.028947e+003, 5.936089e+002
1.029429e+003, 5.913088e+002
1.029911e+003, 5.896714e+002
1.030393e+003, 5.889830e+002
1.030875e+003, 5.886760e+002
1.031357e+003, 5.885339e+002
1.031839e+003, 5.885463e+002
1.032321e+003, 5.884435e+002
1.032803e+003, 5.883990e+002
1.033286e+003, 5.891260e+002
1.033768e+003, 5.923436e+002
1.034250e+003, 5.948454e+002
1.034732e+003, 5.948941e+002
1.035214e+003, 5.935091e+002
1.035696e+003, 5.922365e+002
1.036178e+003, 5.911768e+002
1.036660e+003, 5.891302e+002
1.037143e+003, 5.856617e+002
1.037625e+003, 5.833467e+002
1.038107e+003, 5.856869e+002
1.038589e+003, 5.898143e+002
1.039071e+003, 5.924439e+002
1.039553e+003, 5.933480e+002
1.040035e+003, 5.930972e+002
1.040517e+003, 5.903923e+002
1.041000e+003, 5.887915e+002
1.041482e+003, 5.895621e+002
1.041964e+003, 5.917845e+002
1.042446e+003, 5.935645e+002
1.042928e+003, 5.948984e+002
1.043410e+003, 5.957179e+002
1.043892e+003, 5.960665e+002
1.044374e+003, 5.957369e+002
1.044856e+003, 5.942333e+002
1.045339e+003, 5.922450e+002
1.045821e+003, 5.901068e+002
1.046303e+003, 5.875616e+002
1.046785e+003, 5.873969e+002
1.047267e+003, 5.898906e+002
1.047749e+003, 5.923021e+002
1.048231e+003, 5.924489e+002
1.048713e+003, 5.916970e+002
1.049195e+003, 5.915045e+002
1.049677e+003, 5.918627e+002
1.050160e+003, 5.927142e+002
1.050642e+003, 5.956021e+002
1.051124e+003, 5.965142e+002
1.051606e+003, 5.940615e+002
1.052088e+003, 5.909083e+002
1.052570e+003, 5.910336e+002
1.053052e+003, 5.935812e+002
1.053534e+003, 5.952362e+002
1.054017e+003, 5.955897e+002
1.054499e+003, 5.956502e+002
1.054981e+003, 5.957188e+002
1.055463e+003, 5.959940e+002
1.055945e+003, 5.966323e+002
1.056427e+003, 5.975919e+002
1.056909e+003, 5.990485e+002
1.057391e+003, 6.011866e+002
1.057874e+003, 6.015526e+002
1.058356e+003, 5.985978e+002
1.058838e+003, 5.950439e+002
1.059320e+003, 5.940124e+002
1.059802e+003, 5.946250e+002
1.060284e+003, 5.957708e+002
1.060766e+003, 5.982402e+002
1.061248e+003, 5.984744e+002
1.061730e+003, 5.951846e+002
1.062213e+003, 5.920279e+002
1.062695e+003, 5.917955e+002
1.063177e+003, 5.937882e+002
1.063659e+003, 5.961708e+002
1.064141e+003, 5.986274e+002
1.064623e+003, 5.996609e+002
1.065105e+003, 5.958778e+002
1.065587e+003, 5.935385e+002
1.066070e+003, 5.967783e+002
1.066552e+003, 6.020342e+002
1.067034e+003, 6.038984e+002
1.067516e+003, 6.022497e+002
1.067998e+003, 6.009071e+002
1.068480e+003, 6.003365e+002
1.068962e+003, 5.999136e+002
1.069444e+003, 5.986097e+002
1.069927e+003, 5.975435e+002
1.070409e+003, 5.982642e+002
1.070891e+003, 6.008062e+002
1.071373e+003, 6.015161e+002
1.071855e+003, 5.996563e+002
1.072337e+003, 5.976851e+002
1.072819e+003, 5.960015e+002
1.073301e+003, 5.952121e+002
1.073783e+003, 5.976609e+002
1.074266e+003, 6.015733e+002
1.074748e+003, 6.029542e+002
1.075230e+003, 5.995233e+002
1.075712e+003, 5.969493e+002
1.076194e+003, 5.972052e+002
1.076676e+003, 5.981731e+002
1.077158e+003, 5.988738e+002
1.077640e+003, 5.992485e+002
1.078122e+003, 5.981607e+002
1.078604e+003, 5.958868e+002
1.079087e+003, 5.947881e+002
1.079569e+003, 5.969766e+002
1.080051e+003, 5.999109e+002
1.080533e+003, 6.034413e+002
1.081015e+003, 6.061450e+002
1.081497e+003, 6.052501e+002
1.081979e+003, 5.993885e+002
1.082461e+003, 5.966224e+002
1.082944e+003, 5.978470e+002
1.083426e+003, 6.001298e+002
1.083908e+003, 6.010890e+002
1.084390e+003, 6.012496e+002
1.084872e+003, 6.009745e+002
1.085354e+003, 6.003758e+002
1.085836e+003, 6.002764e+002
1.086318e+003, 6.012256e+002
1.086801e+003, 6.018050e+002
1.087283e+003, 6.015219e+002
1.087765e+003, 6.009584e+002
1.088247e+003, 6.011747e+002
1.088729e+003, 6.019808e+002
1.089211e+003, 6.028795e+002
1.089693e+003, 6.037609e+002
1.090175e+003, 6.047699e+002
1.090657e+003, 6.070552e+002
1.091140e+003, 6.082868e+002
1.091622e+003, 6.065371e+002
1.092104e+003, 6.024579e+002
1.092586e+003, 6.018837e+002
1.093068e+003, 6.045117e+002
1.093550e+003, 6.067380e+002
1.094032e+003, 6.072277e+002
1.094514e+003, 6.063905e+002
1.094997e+003, 6.028412e+002
1.095479e+003, 5.989642e+002
1.095961e+003, 5.981201e+002
1.096443e+003, 6.015035e+002
1.096925e+003, 6.039937e+002
1.097407e+003, 6.055109e+002
1.097889e+003, 6.065807e+002
1.098371e+003, 6.077636e+002
1.098854e+003, 6.086174e+002
1.099336e+003, 6.084749e+002
1.099818e+003, 6.074750e+002
1.100300e+003, 6.061893e+002
1.100782e+003, 6.043497e+002
1.101264e+003, 6.027857e+002
1.101746e+003, 6.012859e+002
1.102228e+003, 6.007474e+002
1.102710e+003, 6.035817e+002
1.103193e+003, 6.080906e+002
1.103675e+003, 6.098011e+002
1.104157e+003, 6.081843e+002
1.104639e+003, 6.066019e+002
1.105121e+003, 6.064989e+002
1.105603e+003, 6.067563e+002
1.106085e+003, 6.068279e+002
1.106567e+003, 6.069744e+002
1.107049e+003, 6.085250e+002
1.107531e+003, 6.111635e+002
1.108014e+003, 6.120500e+002
1.108496e+003, 6.099033e+002
1.108978e+003, 6.077262e+002
1.109460e+003, 6.077635e+002
1.109942e+003, 6.086139e+002
1.110424e+003, 6.092009e+002
1.110906e+003, 6.095061e+002
1.111388e+003, 6.086892e+002
1.111871e+003, 6.065773e+002
1.112353e+003, 6.059378e+002
1.112835e+003, 6.094548e+002
1.113317e+003, 6.134762e+002
1.113799e+003, 6.137101e+002
1.114281e+003, 6.117712e+002
1.114763e+003, 6.102890e+002
1.115245e+003, 6.097587e+002
1.115728e+003, 6.097741e+002
1.116210e+003, 6.105737e+002
1.116692e+003, 6.111559e+002
1.117174e+003, 6.102746e+002
1.117656e+003, 6.088136e+002
1.118138e+003, 6.082411e+002
1.118620e+003, 6.085334e+002
1.119102e+003, 6.094058e+002
1.119584e+003, 6.119927e+002
1.120067e+003, 6.132177e+002
1.120549e+003, 6.118029e+002
1.121031e+003, 6.100923e+002
1.121513e+003, 6.121196e+002
1.121995e+003, 6.164834e+002
1.122477e+003, 6.181145e+002
1.122959e+003, 6.165875e+002
1.123441e+003, 6.146713e+002
1.123924e+003, 6.135653e+002
1.124406e+003, 6.126918e+002
1.124888e+003, 6.118903e+002
1.125370e+003, 6.110811e+002
1.125852e+003, 6.097410e+002
1.126334e+003, 6.080036e+002
1.126816e+003, 6.076014e+002
1.127298e+003, 6.092487e+002
1.127781e+003, 6.107345e+002
1.128263e+003, 6.095822e+002
1.128745e+003, 6.082516e+002
1.129227e+003, 6.090756e+002
1.129709e+003, 6.119489e+002
1.130191e+003, 6.141567e+002
1.130673e+003, 6.157676e+002
1.131155e+003, 6.156108e+002
1.131637e+003, 6.118853e+002
1.132120e+003, 6.086071e+002
1.132602e+003, 6.114366e+002
1.133084e+003, 6.167838e+002
1.133566e+003, 6.194578e+002
1.134048e+003, 6.180802e+002
1.134530e+003, 6.166796e+002
1.135012e+003, 6.152023e+002
1.135494e+003, 6.138798e+002
1.135976e+003, 6.125906e+002
1.136458e+003, 6.117094e+002
1.136941e+003, 6.119500e+002
1.137423e+003, 6.130901e+002
1.137905e+003, 6.145775e+002
1.138387e+003, 6.173162e+002
1.138869e+003, 6.185887e+002
1.139351e+003, 6.176410e+002
1.139833e+003, 6.165419e+002
1.140315e+003, 6.177606e+002
1.140798e+003, 6.202422e+002
1.141280e+003, 6.216925e+002
1.141762e+003, 6.220287e+002
1.142244e+003, 6.214285e+002
1.142726e+003, 6.187112e+002
1.143208e+003, 6.167614e+002
1.143690e+003, 6.165233e+002
1.144172e+003, 6.169258e+002
1.144655e+003, 6.159803e+002
1.145137e+003, 6.142190e+002
1.145619e+003, 6.139142e+002
1.146101e+003, 6.153688e+002
1.146583e+003, 6.169423e+002
1.147065e+003, 6.184224e+002
1.147547e+003, 6.189768e+002
1.148029e+003, 6.174767e+002
1.148511e+003, 6.152188e+002
1.148994e+003, 6.171470e+002
1.149476e+003, 6.224928e+002
1.149958e+003, 6.234791e+002
1.150440e+003, 6.172858e+002
1.150922e+003, 6.118594e+002
1.151404e+003, 6.142996e+002
1.151886e+003, 6.185891e+002
1.152368e+003, 6.198066e+002
1.152851e+003, 6.183674e+002
1.153333e+003, 6.196873e+002
1.153815e+003, 6.237787e+002
1.154297e+003, 6.262894e+002
1.154779e+003, 6.249509e+002
1.155261e+003, 6.228781e+002
1.155743e+003, 6.229823e+002
1.156225e+003, 6.239069e+002
1.156708e+003, 6.242148e+002
1.157190e+003, 6.239229e+002
1.157672e+003, 6.220920e+002
1.158154e+003, 6.184109e+002
1.158636e+003, 6.159447e+002
1.159118e+003, 6.169655e+002
1.159600e+003, 6.194798e+002
1.160082e+003, 6.225499e+002
1.160564e+003, 6.251696e+002
1.161047e+003, 6.253275e+002
1.161529e+003, 6.209098e+002
1.162011e+003, 6.188408e+002
1.162493e+003, 6.196512e+002
1.162975e+003, 6.206862e+002
1.163457e+003, 6.191890e+002
1.163939e+003, 6.171576e+002
1.164421e+003, 6.180981e+002
1.164903e+003, 6.209057e+002
1.165385e+003, 6.220680e+002
1.165868e+003, 6.185277e+002
1.166350e+003, 6.179688e+002
1.166832e+003, 6.219647e+002
1.167314e+003, 6.261914e+002
1.167796e+003, 6.258099e+002
1.168278e+003, 6.226696e+002
1.168760e+003, 6.186572e+002
1.169242e+003, 6.145211e+002
1.169725e+003, 6.138774e+002
1.170207e+003, 6.219744e+002
1.170689e+003, 6.273560e+002
1.171171e+003, 6.274464e+002
1.171653e+003, 6.258080e+002
1.172135e+003, 6.279930e+002
1.172617e+003, 6.321617e+002
1.173099e+003, 6.341975e+002
1.173582e+003, 6.336471e+002
1.174064e+003, 6.323800e+002
1.174546e+003, 6.304510e+002
1.175028e+003, 6.286281e+002
1.175510e+003, 6.269661e+002
1.175992e+003, 6.257089e+002
1.176474e+003, 6.256644e+002
1.176956e+003, 6.264296e+002
1.177438e+003, 6.268684e+002
1.177921e+003, 6.267525e+002
1.178403e+003, 6.264557e+002
1.178885e+003, 6.257341e+002
1.179367e+003, 6.253606e+002
1.179849e+003, 6.257855e+002
1.180331e+003, 6.266791e+002
1.180813e+003, 6.269918e+002
1.181295e+003, 6.268616e+002
1.181778e+003, 6.268466e+002
1.182260e+003, 6.272177e+002
1.182742e+003, 6.272896e+002
1.183224e+003, 6.262987e+002
1.183706e+003, 6.253505e+002
1.184188e+003, 6.248097e+002
1.184670e+003, 6.248358e+002
1.185152e+003, 6.271616e+002
1.185635e+003, 6.311305e+002
1.186117e+003, 6.333104e+002
1.186599e+003, 6.312900e+002
1.187081e+003, 6.295656e+002
1.187563e+003, 6.311321e+002
1.188045e+003, 6.331657e+002
1.188527e+003, 6.333200e+002
1.189009e+003, 6.318248e+002
1.189491e+003, 6.319609e+002
1.189974e+003, 6.334932e+002
1.190456e+003, 6.347130e+002
1.190938e+003, 6.351376e+002
1.191420e+003, 6.345561e+002
1.191902e+003, 6.314699e+002
1.192384e+003, 6.283420e+002
1.192866e+003, 6.281495e+002
1.193348e+003, 6.310037e+002
1.193830e+003, 6.298137e+002
1.194313e+003, 6.250221e+002
1.194795e+003, 6.222762e+002
1.195277e+003, 6.277668e+002
1.195759e+003, 6.330667e+002
1.196241e+003, 6.325985e+002
1.196723e+003, 6.298424e+002
1.197205e+003, 6.295931e+002
1.197687e+003, 6.319827e+002
1.198169e+003, 6.307787e+002
1.198652e+003, 6.259205e+002
1.199134e+003, 6.230871e+002
1.199616e+003, 6.285067e+002
1.200098e+003, 6.346202e+002
1.200580e+003, 6.373885e+002
1.201062e+003, 6.376393e+002
1.201544e+003, 6.362275e+002
1.202026e+003, 6.330548e+002
1.202509e+003, 6.326600e+002
1.202991e+003, 6.354705e+002
1.203473e+003, 6.376788e+002
1.203955e+003, 6.353970e+002
1.204437e+003, 6.327132e+002
1.204919e+003, 6.326149e+002
1.205401e+003, 6.339532e+002
1.205883e+003, 6.338947e+002
1.206365e+003, 6.323790e+002
1.206848e+003, 6.323317e+002
1.207330e+003, 6.342079e+002
1.207812e+003, 6.362197e+002
1.208294e+003, 6.367893e+002
1.208776e+003, 6.372110e+002
1.209258e+003, 6.391613e+002
1.209740e+003, 6.415571e+002
1.210222e+003, 6.405621e+002
1.210705e+003, 6.361172e+002
1.211187e+003, 6.340298e+002
1.211669e+003, 6.355068e+002
1.212151e+003, 6.377330e+002
1.212633e+003, 6.395634e+002
1.213115e+003, 6.403073e+002
1.213597e+003, 6.381815e+002
1.214079e+003, 6.345707e+002
1.214562e+003, 6.351549e+002
1.215044e+003, 6.398043e+002
1.215526e+003, 6.425093e+002
1.216008e+003, 6.417026e+002
1.216490e+003, 6.398769e+002
1.216972e+003, 6.381164e+002
1.217454e+003, 6.368746e+002
1.217936e+003, 6.365637e+002
1.218418e+003, 6.370613e+002
1.218901e+003, 6.381353e+002
1.219383e+003, 6.397541e+002
1.219865e+003, 6.412507e+002
1.220347e+003, 6.424927e+002
1.220829e+003, 6.433177e+002
1.221311e+003, 6.439787e+002
1.221793e+003, 6.437648e+002
1.222275e+003, 6.414850e+002
1.222757e+003, 6.377504e+002
1.223240e+003, 6.376030e+002
1.223722e+003, 6.407094e+002
1.224204e+003, 6.426395e+002
1.224686e+003, 6.416639e+002
1.225168e+003, 6.399504e+002
1.225650e+003, 6.382366e+002
1.226132e+003, 6.370374e+002
1.226614e+003, 6.367830e+002
1.227096e+003, 6.373704e+002
1.227579e+003, 6.380675e+002
1.228061e+003, 6.388032e+002
1.228543e+003, 6.387794e+002
1.229025e+003, 6.370005e+002
1.229507e+003, 6.360282e+002
1.229989e+003, 6.381163e+002
1.230471e+003, 6.409991e+002
1.230953e+003, 6.430387e+002
1.231436e+003, 6.442565e+002
1.231918e+003, 6.445294e+002
1.232400e+003, 6.440037e+002
1.232882e+003, 6.437958e+002
1.233364e+003, 6.451200e+002
1.233846e+003, 6.454194e+002
1.234328e+003, 6.420394e+002
1.234810e+003, 6.384397e+002
1.235292e+003, 6.371472e+002
1.235775e+003, 6.379305e+002
1.236257e+003, 6.392794e+002
1.236739e+003, 6.409778e+002
1.237221e+003, 6.418082e+002
1.237703e+003, 6.397294e+002
1.238185e+003, 6.391815e+002
1.238667e+003, 6.439124e+002
1.239149e+003, 6.487220e+002
1.239632e+003, 6.496736e+002
1.240114e+003, 6.474119e+002
1.240596e+003, 6.454273e+002
1.241078e+003, 6.437956e+002
1.241560e+003, 6.427679e+002
1.242042e+003, 6.425887e+002
1.242524e+003, 6.429385e+002
1.243006e+003, 6.444551e+002
1.243489e+003, 6.454957e+002
1.243971e+003, 6.440606e+002
1.244453e+003, 6.410800e+002
1.244935e+003, 6.410577e+002
1.245417e+003, 6.431305e+002
1.245899e+003, 6.440724e+002
1.246381e+003, 6.399916e+002
1.246863e+003, 6.387370e+002
1.247345e+003, 6.427609e+002
1.247828e+003, 6.470983e+002
1.248310e+003, 6.463795e+002
1.248792e+003, 6.430469e+002
1.249274e+003, 6.444784e+002
1.249756e+003, 6.492476e+002
1.250238e+003, 6.522242e+002
1.250720e+003, 6.504657e+002
1.251202e+003, 6.481956e+002
1.251684e+003, 6.453130e+002
1.252167e+003, 6.430762e+002
1.252649e+003, 6.429286e+002
1.253131e+003, 6.439937e+002
1.253613e+003, 6.445530e+002
1.254095e+003, 6.448104e+002
1.254577e+003, 6.455532e+002
1.255059e+003, 6.474473e+002
1.255541e+003, 6.489856e+002
1.256023e+003, 6.501310e+002
1.256506e+003, 6.507339e+002
1.256988e+003, 6.501036e+002
1.257470e+003, 6.492407e+002
1.257952e+003, 6.497228e+002
1.258434e+003, 6.511755e+002
1.258916e+003, 6.523902e+002
1.259398e+003, 6.531385e+002
1.259880e+003, 6.539800e+002
1.260363e+003, 6.550068e+002
1.260845e+003, 6.558059e+002
1.261327e+003, 6.562973e+002
1.261809e+003, 6.561594e+002
1.262291e+003, 6.541592e+002
1.262773e+003, 6.514178e+002
1.263255e+003, 6.511407e+002
1.263737e+003, 6.543779e+002
1.264219e+003, 6.550422e+002
1.264702e+003, 6.525720e+002
1.265184e+003, 6.499012e+002
1.265666e+003, 6.496933e+002
1.266148e+003, 6.497845e+002
1.266630e+003, 6.476512e+002
1.267112e+003, 6.449404e+002
1.267594e+003, 6.454090e+002
1.268076e+003, 6.493760e+002
1.268559e+003, 6.515820e+002
1.269041e+003, 6.516854e+002
1.269523e+003, 6.508002e+002
1.270005e+003, 6.486088e+002
1.270487e+003, 6.468197e+002
1.270969e+003, 6.465711e+002
1.271451e+003, 6.472839e+002
1.271933e+003, 6.484610e+002
1.272416e+003, 6.500365e+002
1.272898e+003, 6.512518e+002
1.273380e+003, 6.520650e+002
1.273862e+003, 6.526737e+002
1.274344e+003, 6.531266e+002
1.274826e+003, 6.534810e+002
1.275308e+003, 6.539952e+002
1.275790e+003, 6.541810e+002
1.276272e+003, 6.527449e+002
1.276755e+003, 6.504751e+002
1.277237e+003, 6.508185e+002
1.277719e+003, 6.535742e+002
1.278201e+003, 6.559340e+002
1.278683e+003, 6.561505e+002
1.279165e+003, 6.566576e+002
1.279647e+003, 6.584180e+002
1.280129e+003, 6.596522e+002
1.280611e+003, 6.574044e+002
1.281094e+003, 6.535719e+002
1.281576e+003, 6.522698e+002
1.282058e+003, 6.532652e+002
1.282540e+003, 6.544111e+002
1.283022e+003, 6.552752e+002
1.283504e+003, 6.561875e+002
1.283986e+003, 6.574805e+002
1.284468e+003, 6.577553e+002
1.284950e+003, 6.534793e+002
1.285433e+003, 6.488356e+002
1.285915e+003, 6.507872e+002
1.286397e+003, 6.574728e+002
1.286879e+003, 6.608307e+002
1.287361e+003, 6.595696e+002
1.287843e+003, 6.576442e+002
1.288325e+003, 6.552335e+002
1.288807e+003, 6.536015e+002
1.289290e+003, 6.539163e+002
1.289772e+003, 6.554135e+002
1.290254e+003, 6.588759e+002
1.290736e+003, 6.625424e+002
1.291218e+003, 6.620460e+002
1.291700e+003, 6.568344e+002
1.292182e+003, 6.554689e+002
1.292664e+003, 6.584971e+002
1.293146e+003, 6.614086e+002
1.293629e+003, 6.607733e+002
1.294111e+003, 6.594035e+002
1.294593e+003, 6.586342e+002
1.295075e+003, 6.582263e+002
1.295557e+003, 6.579523e+002
1.296039e+003, 6.577946e+002
1.296521e+003, 6.572214e+002
1.297003e+003, 6.563802e+002
1.297486e+003, 6.568278e+002
1.297968e+003, 6.619934e+002
1.298450e+003, 6.649810e+002
1.298932e+003, 6.636432e+002
1.299414e+003, 6.605350e+002
1.299896e+003, 6.578885e+002
1.300378e+003, 6.558737e+002
1.300860e+003, 6.552405e+002
1.301343e+003, 6.557851e+002
1.301825e+003, 6.564020e+002
##END=



