##NAMES=Connellite
##RRUFFID=R060503
##IDEAL CHEMISTRY=Cu^2+^_36_(S^6+^O_4_)(OH)_62_Cl_8_&#183;6H_2_O
##LOCALITY=Shattuck mine, Bisbee, Cochise County, Arizona, USA
##OWNER=RRUFF
##SOURCE=University of Arizona Mineral Museum
##DESCRIPTION=Blue thin prismatic crystals
##STATUS=The identification of this mineral is confirmed by single-crystal X-ray diffraction and chemical analysis.
##URL=rruff.info/R060503
##MEASURED CHEMISTRY=Cu_33.68_(SO_4_)_1.83_(OH)_62_Cl_7.55_Â·6H_2_O
171.5912, 0.0000000E+00
172.0734, 0.6768800
172.5555, 2.0584000E-02
173.0376, 0.6164700
173.5197, 1.953094
174.0018, 2.862793
174.4839, 2.545944
174.9661, 1.239044
175.4482, 0.3709260
175.9303, 0.4289090
176.4124, 0.6205600
176.8945, 0.7221980
177.3766, 0.8114780
177.8588, 1.017883
178.3409, 1.419968
178.8230, 2.114990
179.3051, 3.128006
179.7872, 5.494415
180.2693, 7.157257
180.7515, 7.032852
181.2336, 5.604019
181.7157, 4.075470
182.1978, 3.574615
182.6799, 4.196945
183.1620, 4.741852
183.6441, 5.672714
184.1263, 6.221054
184.6084, 5.702515
185.0905, 4.404785
185.5726, 3.285660
186.0547, 2.931946
186.5368, 3.389450
187.0190, 4.041061
187.5011, 5.094666
187.9832, 6.015945
188.4653, 6.403168
188.9474, 6.094101
189.4296, 5.758499
189.9117, 6.412231
190.3938, 7.468643
190.8759, 7.627014
191.3580, 7.136627
191.8401, 6.384872
192.3223, 5.426834
192.8044, 4.332565
193.2865, 3.554871
193.7686, 3.696747
194.2507, 4.407211
194.7328, 5.118607
195.2150, 5.269028
195.6971, 5.015778
196.1792, 5.151291
196.6613, 5.617981
197.1434, 5.801544
197.6255, 4.928329
198.1077, 3.290070
198.5898, 1.910431
199.0719, 1.139648
199.5540, 0.6690830
200.0361, 0.7123410
200.5182, 1.918381
201.0004, 2.984894
201.4825, 2.965317
201.9646, 2.132629
202.4467, 1.449020
202.9288, 1.665359
203.4109, 2.690460
203.8930, 3.134644
204.3752, 2.242416
204.8573, 1.471802
205.3394, 1.628677
205.8215, 2.387787
206.3036, 2.903549
206.7857, 2.364792
207.2679, 0.6916660
207.7500, 0.4681850
208.2321, 1.095215
208.7142, 1.183487
209.1963, 0.2260130
209.6784, 1.380173
210.1606, 2.667313
210.6427, 2.659500
211.1248, 1.123901
211.6069, 0.3977810
212.0890, 1.246323
212.5711, 2.106506
213.0533, 2.396408
213.5354, 2.142456
214.0175, 1.641998
214.4996, 1.119934
214.9817, 0.5201570
215.4638, 0.3500670
215.9460, 1.133301
216.4281, 1.786545
216.9102, 1.557953
217.3923, 0.5916290
217.8744, 0.2877500
218.3565, 0.2532200
218.8387, 0.8588710
219.3208, 1.359909
219.8029, 0.5357360
220.2850, 0.2551270
220.7671, 5.6015000E-02
221.2492, 1.388123
221.7314, 2.641037
222.2135, 2.816330
222.6956, 1.805603
223.1777, 1.215210
223.6598, 1.534790
224.1419, 1.912781
224.6240, 1.627823
225.1062, 0.6773220
225.5883, 0.2658390
226.0704, 0.6859740
226.5525, 0.5542140
227.0346, 0.2469330
227.5167, 0.2894900
227.9989, 0.9352260
228.4810, 1.656509
228.9631, 2.432907
229.4452, 2.989517
229.9273, 2.424393
230.4094, 1.257797
230.8916, 0.9539340
231.3737, 2.669678
231.8558, 4.842987
232.3379, 5.505096
232.8200, 4.438980
233.3021, 3.380936
233.7843, 3.676270
234.2664, 4.651352
234.7485, 5.276108
235.2306, 4.959442
235.7127, 4.478943
236.1948, 5.085464
236.6770, 7.096634
237.1591, 8.869308
237.6412, 9.357727
238.1233, 9.197983
238.6054, 8.986267
239.0875, 8.826126
239.5697, 8.803711
240.0518, 9.192764
240.5339, 10.23253
241.0160, 10.91467
241.4981, 10.40022
241.9802, 9.540176
242.4624, 9.132446
242.9445, 9.470505
243.4266, 10.28252
243.9087, 11.32987
244.3908, 13.03899
244.8729, 13.78557
245.3550, 12.09549
245.8372, 9.850555
246.3193, 8.755493
246.8014, 9.426056
247.2835, 10.95590
247.7656, 11.78062
248.2477, 11.60178
248.7299, 11.39818
249.2120, 11.44633
249.6941, 11.49489
250.1762, 11.38731
250.6583, 11.08263
251.1404, 10.68217
251.6226, 9.883087
252.1047, 8.044693
252.5868, 7.170151
253.0689, 8.101166
253.5510, 9.455872
254.0331, 10.30682
254.5153, 10.41043
254.9974, 10.08701
255.4795, 9.801804
255.9616, 9.600998
256.4437, 9.326996
256.9258, 8.779068
257.4080, 8.303314
257.8901, 8.203476
258.3722, 8.513351
258.8543, 8.956589
259.3364, 9.165344
259.8185, 9.040573
260.3007, 8.900955
260.7828, 8.725540
261.2649, 8.542801
261.7470, 8.259674
262.2291, 7.911972
262.7112, 7.743546
263.1934, 8.114761
263.6755, 9.350510
264.1576, 9.910629
264.6397, 9.406799
265.1218, 8.660812
265.6039, 8.017563
266.0861, 7.554672
266.5682, 7.226807
267.0503, 7.019531
267.5324, 6.912674
268.0145, 6.975479
268.4966, 7.304153
268.9788, 7.650986
269.4609, 8.014832
269.9430, 8.351913
270.4251, 8.496613
270.9072, 8.258896
271.3893, 7.641174
271.8715, 6.842941
272.3536, 5.472717
272.8357, 4.336868
273.3178, 4.038742
273.7999, 4.330338
274.2820, 4.393372
274.7642, 3.585220
275.2463, 2.021896
275.7284, 1.315079
276.2105, 2.088501
276.6926, 2.928070
277.1747, 3.267532
277.6568, 3.251862
278.1389, 3.243118
278.6211, 3.489853
279.1032, 3.978271
279.5853, 4.625046
280.0674, 6.218918
280.5495, 7.013397
281.0316, 5.792831
281.5138, 3.579254
281.9959, 2.348175
282.4780, 3.079269
282.9601, 4.813477
283.4422, 4.974930
283.9243, 2.648560
284.4065, 0.7986760
284.8886, 0.1672060
285.3707, 0.3500060
285.8528, 0.8141780
286.3349, 1.418900
286.8170, 2.081345
287.2992, 2.697601
287.7813, 3.345612
288.2634, 3.676010
288.7455, 3.421783
289.2276, 2.931870
289.7097, 2.500412
290.1919, 2.177795
290.6740, 2.167648
291.1561, 2.950851
291.6382, 4.715790
292.1203, 5.687973
292.6024, 5.131348
293.0846, 4.024643
293.5667, 3.235123
294.0488, 2.881317
294.5309, 2.801895
295.0130, 2.878555
295.4951, 3.131317
295.9773, 3.479797
296.4594, 4.173447
296.9415, 4.687576
297.4236, 4.557678
297.9057, 3.816071
298.3878, 2.939377
298.8700, 2.143661
299.3521, 1.509460
299.8342, 1.302460
300.3163, 2.003365
300.7984, 2.691910
301.2805, 2.710487
301.7627, 2.204620
302.2448, 1.881790
302.7269, 2.253296
303.2090, 2.973274
303.6911, 2.968491
304.1732, 1.819939
304.6554, 0.7182850
305.1375, 8.2764000E-02
305.6196, 0.1507260
306.1017, 0.2235570
306.5838, 1.566315
307.0659, 3.041046
307.5481, 2.699120
308.0302, 2.5002001E-02
308.5123, 1.979019
308.9944, 1.661156
309.4765, 9.2930002E-03
309.9586, 1.490440
310.4408, 2.449799
310.9229, 3.006775
311.4050, 3.239296
311.8871, 3.169159
312.3692, 2.893326
312.8513, 2.167709
313.3335, 1.365517
313.8156, 0.9180300
314.2977, 0.8915020
314.7798, 1.147003
315.2619, 1.772820
315.7440, 2.690407
316.2262, 2.930084
316.7083, 1.597862
317.1904, 0.1354140
317.6725, 0.1476820
318.1546, 0.7217940
318.6367, 1.777931
319.1188, 2.520012
319.6010, 2.887115
320.0831, 2.841675
320.5652, 1.773445
321.0473, 0.9077300
321.5294, 1.251068
322.0115, 2.441406
322.4937, 3.086304
322.9758, 2.317642
323.4579, 0.8745270
323.9400, 0.7518390
324.4221, 2.597740
324.9042, 4.109024
325.3864, 4.415184
325.8685, 3.847588
326.3506, 2.867607
326.8327, 1.498901
327.3148, 0.1908190
327.7969, 0.3145290
328.2791, 8.3470000E-03
328.7612, 0.6781850
329.2433, 2.240662
329.7254, 3.813194
330.2075, 4.112991
330.6896, 2.920341
331.1718, 1.533401
331.6539, 1.279701
332.1360, 2.272514
332.6181, 3.043045
333.1002, 3.561371
333.5823, 3.826729
334.0645, 3.677521
334.5466, 3.189240
335.0287, 2.866447
335.5108, 3.154831
335.9929, 3.912086
336.4750, 4.103966
336.9572, 3.181107
337.4393, 2.339378
337.9214, 2.082382
338.4035, 2.287788
338.8856, 2.713692
339.3677, 3.293991
339.8499, 3.915779
340.3320, 4.234344
340.8141, 4.029564
341.2962, 3.972046
341.7783, 4.428719
342.2604, 5.003304
342.7426, 5.099380
343.2247, 4.552399
343.7068, 3.815445
344.1889, 3.517998
344.6710, 3.851585
345.1531, 4.122925
345.6353, 4.435921
346.1174, 4.610809
346.5995, 4.514496
347.0816, 4.136688
347.5637, 3.446678
348.0458, 2.266075
348.5280, 0.5309830
349.0101, 0.1557620
349.4922, 2.304619
349.9743, 4.402214
350.4564, 5.584694
350.9385, 5.840683
351.4207, 5.177017
351.9028, 3.486916
352.3849, 1.130455
352.8670, 0.3489910
353.3491, 0.7907330
353.8312, 0.5612180
354.3134, 1.117088
354.7955, 3.127548
355.2776, 4.063972
355.7597, 3.453323
356.2418, 2.067513
356.7239, 1.211342
357.2061, 1.261780
357.6882, 1.102798
358.1703, 0.4429020
358.6524, 0.1848910
359.1345, 0.3948750
359.6166, 0.1795120
360.0987, 0.2350230
360.5808, 0.6752700
361.0630, 1.182091
361.5451, 1.307297
362.0272, 5.2513000E-02
362.5093, 0.5418010
362.9914, 1.056190
363.4735, 3.791786
363.9557, 5.494736
364.4378, 4.648865
364.9199, 1.979263
365.4020, 0.3447340
365.8841, 0.5808720
366.3662, 0.6416630
366.8484, 4.5699999E-03
367.3305, 0.4758680
367.8126, 7.4767999E-02
368.2947, 1.895836
368.7768, 4.129852
369.2589, 5.461174
369.7411, 5.657341
370.2232, 5.528519
370.7053, 4.790215
371.1874, 4.012825
371.6695, 3.407349
372.1516, 3.030617
372.6338, 2.908684
373.1159, 3.176857
373.5980, 3.814178
374.0801, 4.051414
374.5622, 3.543747
375.0443, 3.030128
375.5265, 2.702919
376.0086, 2.552422
376.4907, 2.505112
376.9728, 2.533890
377.4549, 2.732140
377.9370, 3.292999
378.4192, 4.445831
378.9013, 5.155327
379.3834, 4.592781
379.8655, 3.866501
380.3476, 3.894089
380.8297, 4.847694
381.3119, 6.025818
381.7940, 6.905449
382.2761, 7.492142
382.7582, 7.367615
383.2403, 5.667038
383.7224, 4.210175
384.2046, 4.292015
384.6867, 5.631256
385.1688, 7.183777
385.6509, 8.806282
386.1330, 10.19617
386.6151, 10.28183
387.0973, 8.619698
387.5794, 7.260033
388.0615, 7.970985
388.5436, 9.543571
389.0257, 10.17609
389.5078, 9.045677
389.9900, 7.816559
390.4721, 8.165314
390.9542, 9.882164
391.4363, 11.31411
391.9184, 11.87360
392.4005, 11.96081
392.8827, 12.04784
393.3648, 12.10667
393.8469, 12.45461
394.3290, 13.48401
394.8111, 14.78705
395.2932, 15.60300
395.7754, 15.78760
396.2575, 16.07265
396.7396, 17.37571
397.2217, 19.52197
397.7038, 20.61390
398.1859, 19.30668
398.6681, 18.04184
399.1501, 18.70899
399.6323, 20.86086
400.1144, 22.83270
400.5965, 23.85709
401.0786, 24.08108
401.5607, 23.81635
402.0428, 22.76978
402.5250, 21.83759
403.0071, 21.09882
403.4892, 20.59032
403.9713, 20.37084
404.4534, 20.44900
404.9355, 20.80103
405.4177, 21.50101
405.8998, 22.76975
406.3819, 23.16473
406.8640, 22.18092
407.3461, 20.94797
407.8282, 20.05196
408.3104, 19.35812
408.7925, 18.34341
409.2746, 16.61102
409.7567, 14.43999
410.2388, 13.10183
410.7209, 13.46643
411.2031, 13.55182
411.6852, 13.49438
412.1673, 13.01601
412.6494, 11.42457
413.1315, 8.710899
413.6136, 6.043686
414.0958, 5.144714
414.5779, 6.568619
415.0600, 7.538200
415.5421, 8.048714
416.0242, 8.079430
416.5063, 7.370964
416.9885, 6.144218
417.4706, 4.884178
417.9527, 3.813332
418.4348, 2.972572
418.9169, 2.647583
419.3990, 3.320366
419.8812, 3.413078
420.3633, 1.485489
420.8454, 0.6681210
421.3275, 1.220352
421.8096, 0.2974550
422.2917, 2.212944
422.7739, 2.740921
423.2560, 1.951500
423.7381, 1.339233
424.2202, 1.155663
424.7023, 1.156006
425.1844, 1.189682
425.6666, 1.273293
426.1487, 1.296333
426.6308, 1.161369
427.1129, 0.9552990
427.5950, 0.7640760
428.0771, 0.5769350
428.5593, 0.6016160
429.0414, 1.006180
429.5235, 1.682419
430.0056, 2.436607
430.4877, 3.562469
430.9698, 4.103912
431.4520, 2.999771
431.9341, 1.064491
432.4162, 7.5355999E-02
432.8983, 0.5655670
433.3804, 1.387794
433.8625, 1.128281
434.3447, 0.4145740
434.8268, 1.381828
435.3089, 1.553322
435.7910, 1.268120
436.2731, 0.6283190
436.7552, 0.2927780
437.2374, 1.425941
437.7195, 2.805580
438.2016, 4.217308
438.6837, 4.808289
439.1658, 3.780693
439.6479, 2.939537
440.1301, 2.390511
440.6122, 2.087936
441.0943, 2.096901
441.5764, 2.376686
442.0585, 2.677933
442.5406, 2.733978
443.0227, 2.541519
443.5049, 2.133644
443.9870, 1.053268
444.4691, 0.2341840
444.9512, 5.8983002E-02
445.4333, 0.3272930
445.9154, 0.7234500
446.3976, 1.104141
446.8797, 1.433731
447.3618, 1.620522
447.8439, 1.615540
448.3260, 1.604637
448.8081, 1.549759
449.2903, 1.551231
449.7724, 1.781311
450.2545, 2.197914
450.7366, 2.473984
451.2187, 2.062057
451.7008, 1.151291
452.1830, 1.066841
452.6651, 2.160950
453.1472, 3.272095
453.6293, 3.862183
454.1114, 3.998138
454.5935, 3.632469
455.0757, 2.526855
455.5578, 1.366051
456.0399, 0.5300520
456.5220, 7.1044996E-02
457.0041, 0.3529360
457.4862, 1.743736
457.9684, 3.349411
458.4505, 3.987114
458.9326, 3.700272
459.4147, 3.116791
459.8968, 1.960991
460.3789, 0.8274770
460.8611, 0.1719890
461.3432, 1.6311999E-02
461.8253, 0.3225020
462.3074, 1.163704
462.7895, 2.354271
463.2716, 3.130219
463.7538, 3.436821
464.2359, 3.437065
464.7180, 2.794380
465.2001, 2.045059
465.6822, 1.806976
466.1643, 2.157288
466.6465, 2.638115
467.1286, 2.699806
467.6107, 2.246513
468.0928, 2.325111
468.5749, 3.991402
469.0570, 5.045097
469.5392, 4.309258
470.0213, 2.744957
470.5034, 1.829216
470.9855, 2.224739
471.4676, 3.288322
471.9497, 3.849915
472.4319, 3.727470
472.9140, 3.880669
473.3961, 5.106384
473.8782, 6.057770
474.3603, 5.760834
474.8424, 4.476868
475.3246, 3.220139
475.8067, 2.422218
476.2888, 2.039688
476.7709, 2.041222
477.2530, 2.480560
477.7351, 2.986137
478.2173, 3.457588
478.6994, 3.813652
479.1815, 4.070992
479.6636, 4.427277
480.1457, 4.454041
480.6278, 3.569473
481.1100, 2.272324
481.5920, 1.545578
482.0742, 1.641228
482.5563, 1.967361
483.0384, 1.977036
483.5205, 1.685020
484.0026, 1.710144
484.4847, 2.156067
484.9669, 2.780098
485.4490, 3.760666
485.9311, 4.798836
486.4132, 5.304276
486.8953, 5.063194
487.3774, 4.509949
487.8596, 4.394806
488.3417, 5.056488
488.8238, 5.204460
489.3059, 4.341667
489.7880, 3.523987
490.2701, 3.328590
490.7523, 3.605469
491.2344, 3.879623
491.7165, 3.841759
492.1986, 3.647453
492.6807, 3.834526
493.1628, 4.751015
493.6450, 5.291733
494.1271, 4.747261
494.6092, 4.113419
495.0913, 4.169617
495.5734, 4.959488
496.0555, 5.553238
496.5377, 5.288658
497.0198, 4.449966
497.5019, 3.574364
497.9840, 2.604546
498.4661, 1.926483
498.9482, 1.809143
499.4304, 2.114365
499.9125, 2.587074
500.3946, 3.343063
500.8767, 3.953369
501.3588, 4.044891
501.8409, 3.888931
502.3231, 4.144020
502.8052, 4.957649
503.2873, 5.491852
503.7694, 4.813728
504.2515, 2.860954
504.7336, 1.641182
505.2158, 1.364288
505.6979, 1.489281
506.1800, 2.387894
506.6621, 3.396606
507.1442, 3.284119
507.6263, 1.667084
508.1085, 0.3008650
508.5906, 0.7313920
509.0727, 0.9622880
509.5548, 2.057022
510.0369, 2.153526
510.5190, 2.058250
511.0012, 1.856773
511.4833, 1.709335
511.9654, 1.944366
512.4475, 2.827347
512.9296, 3.828087
513.4117, 3.878525
513.8939, 2.836754
514.3760, 1.930107
514.8581, 1.424667
515.3402, 1.153923
515.8223, 0.8715520
516.3044, 0.6262820
516.7866, 0.7533340
517.2687, 1.861511
517.7508, 3.150314
518.2329, 3.399261
518.7150, 2.684059
519.1971, 2.224701
519.6793, 2.693451
520.1614, 3.653107
520.6435, 4.118500
521.1256, 4.053772
521.6077, 3.735924
522.0898, 2.867996
522.5720, 2.000420
523.0541, 1.766953
523.5362, 2.081810
524.0183, 2.256096
524.5004, 1.737007
524.9825, 0.7413710
525.4647, 0.4131390
525.9468, 1.559227
526.4289, 2.229958
526.9110, 2.016792
527.3931, 1.458282
527.8752, 0.8737340
528.3574, 0.3706440
528.8395, 4.6959002E-02
529.3216, 3.8680001E-03
529.8037, 0.2156220
530.2858, 0.6232450
530.7679, 1.503632
531.2501, 1.928825
531.7322, 0.8388750
532.2143, 0.5973590
532.6964, 1.100739
533.1785, 0.3779600
533.6606, 0.5489880
534.1428, 1.173210
534.6249, 1.492706
535.1070, 1.457001
535.5891, 1.043350
536.0712, 0.4545360
536.5533, 0.2651370
537.0355, 1.033630
537.5176, 1.380714
537.9997, 1.339073
538.4818, 0.8846440
538.9639, 0.4072880
539.4460, 1.923492
539.9282, 2.845940
540.4103, 3.039581
540.8924, 3.052101
541.3745, 3.527962
541.8566, 4.505356
542.3387, 4.659004
542.8209, 2.994850
543.3029, 1.666214
543.7850, 1.219185
544.2672, 1.273857
544.7493, 1.484787
545.2314, 1.735916
545.7135, 1.888802
546.1956, 1.597214
546.6777, 0.9417880
547.1599, 1.041779
547.6420, 2.422890
548.1241, 3.566788
548.6062, 3.057770
549.0883, 1.782745
549.5704, 1.196747
550.0526, 1.800201
550.5347, 2.564514
551.0168, 3.132210
551.4989, 3.346519
551.9810, 2.505005
552.4631, 0.4225390
552.9453, 1.222595
553.4274, 0.6165770
553.9095, 2.256111
554.3916, 3.743408
554.8737, 2.828850
555.3558, 1.967567
555.8380, 1.870903
556.3201, 2.179588
556.8022, 2.500679
557.2843, 2.702515
557.7664, 2.750404
558.2485, 2.516350
558.7307, 1.975182
559.2128, 1.923256
559.6949, 2.803482
560.1770, 3.543175
560.6591, 3.587265
561.1412, 3.394455
561.6234, 3.613014
562.1055, 4.449615
562.5876, 5.200058
563.0697, 5.184540
563.5518, 4.587761
564.0339, 4.014137
564.5161, 3.526581
564.9982, 3.050011
565.4803, 2.440559
565.9624, 1.781265
566.4445, 1.488449
566.9266, 1.932693
567.4088, 2.356430
567.8909, 2.529816
568.3730, 2.535645
568.8551, 2.328667
569.3372, 1.977791
569.8193, 1.943840
570.3015, 2.761360
570.7836, 4.352936
571.2657, 5.113029
571.7478, 4.149727
572.2299, 3.528229
572.7120, 3.718353
573.1942, 4.278580
573.6763, 5.028389
574.1584, 5.823990
574.6405, 6.136513
575.1226, 5.052818
575.6047, 3.045425
576.0869, 2.253105
576.5690, 2.970619
577.0511, 3.669258
577.5332, 3.611282
578.0153, 3.113388
578.4974, 2.569214
578.9796, 1.829208
579.4617, 1.765717
579.9438, 3.607727
580.4259, 5.760681
580.9080, 6.188919
581.3901, 4.954414
581.8723, 3.541733
582.3544, 2.835571
582.8365, 2.736633
583.3186, 2.920921
583.8007, 3.727531
584.2828, 4.381042
584.7650, 4.794472
585.2471, 5.008163
585.7292, 4.838959
586.2113, 4.456367
586.6934, 4.391762
587.1755, 5.136337
587.6577, 6.161674
588.1398, 6.149925
588.6219, 4.973549
589.1040, 3.916000
589.5861, 3.242020
590.0682, 2.778183
590.5504, 2.295242
591.0325, 1.927254
591.5146, 2.080002
591.9967, 3.412964
592.4788, 4.816841
592.9609, 5.320717
593.4431, 5.102333
593.9252, 4.659195
594.4073, 4.133392
594.8894, 3.609673
595.3715, 3.283264
595.8536, 3.247375
596.3358, 3.147728
596.8179, 2.663185
597.3000, 2.497147
597.7821, 3.257866
598.2642, 4.372574
598.7463, 5.039932
599.2285, 4.987335
599.7106, 4.523041
600.1927, 3.835587
600.6748, 2.947182
601.1569, 2.631569
601.6390, 3.212982
602.1212, 3.848587
602.6033, 3.851646
603.0854, 3.663124
603.5675, 4.049072
604.0496, 5.437469
604.5317, 6.387131
605.0139, 5.647171
605.4960, 4.264259
605.9781, 3.868538
606.4602, 4.578026
606.9423, 5.376511
607.4244, 5.576843
607.9066, 5.285400
608.3887, 5.046242
608.8708, 5.132820
609.3529, 4.957336
609.8350, 4.201424
610.3171, 3.419167
610.7993, 2.802628
611.2814, 2.560043
611.7635, 2.858337
612.2456, 3.918419
612.7277, 5.231140
613.2098, 5.689850
613.6920, 5.237686
614.1741, 4.572090
614.6562, 3.628166
615.1383, 2.829872
615.6204, 2.803909
616.1025, 3.377762
616.5847, 3.589310
617.0668, 2.685387
617.5489, 1.930984
618.0310, 2.528633
618.5131, 3.790192
618.9952, 4.209999
619.4774, 3.360931
619.9595, 2.118896
620.4416, 1.504585
620.9237, 1.555138
621.4058, 1.660011
621.8879, 1.829948
622.3701, 1.980583
622.8522, 2.308327
623.3343, 2.596329
623.8164, 2.557732
624.2985, 2.163620
624.7806, 1.745117
625.2628, 1.523567
625.7448, 1.485390
626.2269, 1.715302
626.7090, 2.260796
627.1912, 2.493073
627.6733, 1.985535
628.1554, 1.145782
628.6375, 0.7133410
629.1196, 0.6794050
629.6017, 0.9783020
630.0839, 2.045563
630.5660, 2.932556
631.0481, 2.901192
631.5302, 2.306183
632.0123, 2.059448
632.4944, 2.580444
632.9766, 3.450317
633.4587, 4.047081
633.9408, 4.330475
634.4229, 4.227699
634.9050, 3.495613
635.3871, 2.701012
635.8693, 1.942902
636.3514, 1.335754
636.8335, 1.106941
637.3156, 1.384766
637.7977, 1.711945
638.2798, 1.676804
638.7620, 1.489738
639.2441, 1.708061
639.7262, 2.361877
640.2083, 2.591675
640.6904, 1.684181
641.1725, 0.1162490
641.6547, 0.5105510
642.1368, 0.8863830
642.6189, 1.648460
643.1010, 1.469772
643.5831, 0.9328990
644.0652, 1.8784000E-02
644.5474, 0.9243320
645.0295, 1.136780
645.5116, 0.1378170
645.9937, 1.379097
646.4758, 2.380714
646.9579, 2.868546
647.4401, 2.950935
647.9222, 2.464531
648.4043, 1.955444
648.8864, 1.940056
649.3685, 2.325050
649.8506, 2.501923
650.3328, 1.944412
650.8149, 1.538437
651.2970, 2.019890
651.7791, 2.784973
652.2612, 2.960884
652.7433, 2.568275
653.2255, 2.482109
653.7076, 3.445427
654.1897, 5.008858
654.6718, 5.405098
655.1539, 4.045509
655.6360, 2.941742
656.1182, 2.456505
656.6003, 2.225334
657.0824, 2.301491
657.5645, 2.489105
658.0466, 2.199509
658.5287, 0.8277280
659.0109, 0.4895250
659.4930, 0.5298690
659.9751, 0.3392030
660.4572, 1.124825
660.9393, 1.614220
661.4214, 1.994484
661.9036, 2.451424
662.3857, 2.956902
662.8678, 3.197174
663.3499, 3.305099
663.8320, 2.956184
664.3141, 1.374893
664.7963, 0.1033630
665.2784, 0.2448350
665.7605, 0.7705310
666.2426, 1.815987
666.7247, 2.168205
667.2068, 2.210670
667.6890, 2.847267
668.1711, 4.024513
668.6532, 4.359650
669.1353, 3.239120
669.6174, 1.976662
670.0995, 1.914154
670.5817, 2.921120
671.0638, 3.342216
671.5459, 2.771606
672.0280, 2.149109
672.5101, 1.310005
672.9922, 0.6626890
673.4744, 0.9266130
673.9565, 2.050583
674.4386, 3.239929
674.9207, 3.934906
675.4028, 4.185425
675.8849, 4.030540
676.3671, 3.341209
676.8492, 2.844406
677.3313, 2.960693
677.8134, 2.985138
678.2955, 1.962280
678.7776, 0.3256230
679.2598, 0.3136600
679.7419, 1.201714
680.2240, 2.784660
680.7061, 3.120102
681.1882, 2.762726
681.6703, 2.612305
682.1525, 2.802078
682.6346, 2.839279
683.1167, 2.254234
683.5988, 1.264130
684.0809, 0.9886020
684.5630, 1.862953
685.0452, 2.498962
685.5273, 2.868324
686.0094, 2.801117
686.4915, 1.657074
686.9736, 3.6263000E-02
687.4557, 0.7245480
687.9379, 0.6026380
688.4200, 2.361076
688.9021, 3.433830
689.3842, 3.820946
689.8663, 3.141632
690.3484, 1.372253
690.8306, 8.3228998E-02
691.3127, 0.6500020
691.7948, 2.603378
692.2769, 3.570099
692.7590, 2.833626
693.2411, 2.289253
693.7233, 1.960022
694.2054, 1.842865
694.6875, 1.991737
695.1696, 2.381683
695.6517, 2.842911
696.1339, 3.330620
696.6160, 3.765320
697.0981, 4.154510
697.5802, 4.426926
698.0623, 4.244865
698.5444, 3.528603
699.0266, 2.730309
699.5087, 2.079887
699.9908, 1.716827
700.4729, 1.818871
700.9550, 3.112968
701.4371, 3.735344
701.9193, 3.205032
702.4014, 2.361504
702.8835, 1.521164
703.3656, 0.9346620
703.8477, 0.8519820
704.3298, 1.410965
704.8120, 2.071075
705.2941, 2.270020
705.7762, 2.011681
706.2583, 1.005974
706.7404, 0.9853440
707.2225, 2.147133
707.7046, 1.088402
708.1867, 1.259758
708.6688, 2.526001
709.1509, 2.365082
709.6331, 2.085579
710.1152, 1.575081
710.5973, 1.169601
711.0794, 1.145599
711.5615, 1.340675
712.0436, 1.362244
712.5258, 1.079155
713.0079, 0.9704970
713.4900, 1.925888
713.9721, 3.631546
714.4542, 4.212997
714.9363, 3.442520
715.4185, 2.650246
715.9006, 2.455940
716.3827, 2.548019
716.8648, 2.323662
717.3469, 1.747696
717.8290, 1.518890
718.3112, 2.150543
718.7933, 2.571152
719.2754, 1.720688
719.7575, 0.5465930
720.2396, 0.7463070
720.7217, 2.579155
721.2039, 4.285294
721.6860, 3.893463
722.1681, 2.036446
722.6502, 1.335258
723.1323, 2.000160
723.6144, 2.321793
724.0966, 1.505745
724.5787, 0.3939130
725.0608, 3.4148999E-02
725.5429, 0.4063110
726.0250, 0.5684430
726.5071, 6.5159998E-03
726.9893, 0.2146000
727.4714, 0.9385990
727.9535, 2.252319
728.4356, 2.036064
728.9177, 0.3622820
729.3998, 1.111000
729.8820, 1.108849
730.3641, 0.2351230
730.8462, 8.2878001E-02
731.3283, 0.1659470
731.8104, 0.1321110
732.2925, 0.4331360
732.7747, 1.093094
733.2568, 1.550720
733.7389, 1.800789
734.2210, 1.860924
734.7031, 1.270302
735.1852, 1.197960
735.6674, 2.746628
736.1495, 4.208275
736.6316, 3.780777
737.1137, 1.979980
737.5958, 0.7114030
738.0779, 0.8336260
738.5601, 1.557022
739.0422, 1.664894
739.5243, 1.250679
740.0064, 1.362000
740.4885, 2.255051
740.9706, 2.804672
741.4528, 2.243492
741.9349, 1.078560
742.4170, 0.4256130
742.8991, 0.3884350
743.3812, 0.4323960
743.8633, 0.4272160
744.3455, 0.5854870
744.8276, 1.286201
745.3097, 2.064583
745.7918, 2.197960
746.2739, 1.454636
746.7560, 0.6798400
747.2382, 0.8349610
747.7203, 1.580215
748.2024, 1.909172
748.6845, 1.788620
749.1666, 1.341415
749.6487, 0.4563830
750.1309, 0.4915540
750.6130, 1.148590
751.0951, 1.520157
751.5772, 1.252327
752.0593, 0.3023680
752.5414, 1.598831
753.0236, 2.289299
753.5057, 2.587906
753.9878, 2.580223
754.4699, 2.364250
754.9520, 2.164902
755.4341, 2.128410
755.9163, 2.124596
756.3984, 1.855194
756.8805, 1.437546
757.3626, 1.568039
757.8447, 2.414276
758.3268, 2.865646
758.8090, 1.956612
759.2911, 0.2369080
759.7732, 0.4396820
760.2553, 0.6071780
760.7374, 1.480644
761.2195, 2.469627
761.7017, 2.995987
762.1838, 2.419380
762.6659, 1.333656
763.1480, 0.6457750
763.6301, 0.6094510
764.1122, 0.8797230
764.5944, 1.388557
765.0765, 1.827034
765.5586, 1.755821
766.0407, 1.262405
766.5228, 0.6431660
767.0049, 2.8061001E-02
767.4871, 0.4340210
767.9692, 0.5401380
768.4513, 0.2828290
768.9334, 0.1519620
769.4155, 1.066193
769.8976, 1.660149
770.3798, 1.281067
770.8619, 0.9066770
771.3440, 1.680153
771.8261, 3.286079
772.3082, 3.947182
772.7903, 2.197411
773.2725, 0.4633790
773.7546, 0.7456820
774.2367, 2.002686
774.7188, 2.594101
775.2009, 2.367188
775.6830, 2.112411
776.1652, 2.356750
776.6473, 2.877815
777.1294, 3.180519
777.6115, 3.267418
778.0936, 3.079346
778.5757, 2.367302
779.0579, 1.836700
779.5400, 2.072098
780.0221, 2.644699
780.5042, 2.809517
780.9863, 2.453247
781.4684, 2.159569
781.9506, 1.990219
782.4327, 2.004845
782.9148, 2.489380
783.3969, 3.101143
783.8790, 3.115555
784.3611, 2.416504
784.8433, 1.734268
785.3254, 1.774780
785.8075, 2.355614
786.2896, 3.203087
786.7717, 4.327606
787.2538, 4.587021
787.7360, 3.550568
788.2181, 2.395157
788.7002, 2.106056
789.1823, 2.572685
789.6644, 3.105988
790.1465, 4.053116
790.6286, 4.582321
791.1107, 4.222763
791.5928, 3.807388
792.0750, 4.075371
792.5571, 4.672302
793.0392, 4.687607
793.5213, 3.725479
794.0034, 2.755989
794.4855, 2.841858
794.9677, 3.412178
795.4498, 3.448952
795.9319, 2.919746
796.4140, 1.953148
796.8961, 0.5490190
797.3782, 0.7336430
797.8604, 1.070580
798.3425, 0.4173050
798.8246, 3.8100999E-02
799.3067, 0.1194310
799.7888, 0.2784040
800.2709, 2.279259
800.7531, 4.340797
801.2352, 5.191025
801.7173, 5.020393
802.1994, 4.925072
802.6815, 5.321724
803.1636, 5.662086
803.6458, 5.770401
804.1279, 5.596474
804.6100, 4.856560
805.0921, 3.752419
805.5742, 2.955910
806.0563, 2.842850
806.5385, 3.120697
807.0206, 3.297974
807.5027, 3.403351
807.9848, 3.930519
808.4669, 5.030571
808.9490, 5.816002
809.4312, 5.841637
809.9133, 5.527618
810.3954, 5.388283
810.8775, 5.476028
811.3596, 5.379837
811.8417, 4.775658
812.3239, 4.402588
812.8060, 4.726830
813.2881, 5.181915
813.7702, 5.146111
814.2523, 4.691620
814.7344, 4.404922
815.2166, 4.637215
815.6987, 5.021759
816.1808, 5.215988
816.6629, 5.263405
817.1450, 5.237831
817.6271, 5.144608
818.1093, 4.979225
818.5914, 4.667328
819.0735, 4.532555
819.5556, 5.386871
820.0377, 7.548225
820.5198, 8.639870
821.0020, 8.223763
821.4841, 7.569054
821.9662, 6.958206
822.4483, 6.472679
822.9304, 6.147385
823.4125, 5.989792
823.8947, 6.200615
824.3768, 7.158737
824.8589, 8.086945
825.3410, 8.792870
825.8231, 9.193848
826.3052, 9.066475
826.7874, 8.531311
827.2695, 8.050369
827.7516, 7.897804
828.2337, 7.841850
828.7158, 7.499069
829.1979, 6.962463
829.6801, 6.566986
830.1622, 6.342323
830.6443, 6.528145
831.1264, 7.374580
831.6085, 8.295380
832.0906, 8.232834
832.5728, 6.959335
833.0549, 6.375069
833.5370, 7.070877
834.0191, 7.614281
834.5012, 7.697525
834.9833, 7.504128
835.4655, 6.919914
835.9476, 6.132584
836.4297, 5.983192
836.9118, 7.444420
837.3939, 8.445999
837.8760, 7.194977
838.3582, 5.322609
838.8403, 4.695389
839.3224, 5.267494
839.8045, 6.217674
840.2866, 7.160950
840.7687, 8.013626
841.2509, 8.713799
841.7330, 9.229065
842.2151, 9.295998
842.6972, 8.887794
843.1793, 8.358627
843.6614, 7.740532
844.1436, 7.332535
844.6257, 7.553596
845.1078, 8.384331
845.5899, 8.978844
846.0720, 9.231529
846.5541, 9.388550
847.0363, 9.294746
847.5184, 9.281075
848.0005, 9.656395
848.4826, 10.25350
848.9647, 10.69736
849.4468, 10.89629
849.9290, 10.92355
850.4111, 11.04771
850.8932, 10.83597
851.3753, 9.250931
851.8574, 7.073151
852.3395, 6.283585
852.8217, 7.381668
853.3038, 8.930267
853.7859, 9.602776
854.2680, 9.567810
854.7501, 9.200241
855.2322, 8.489197
855.7144, 8.083267
856.1965, 8.208458
856.6786, 8.305328
857.1607, 7.808334
857.6428, 7.087608
858.1249, 7.371552
858.6071, 9.493179
859.0892, 10.76873
859.5713, 10.84891
860.0534, 10.54984
860.5355, 9.715202
861.0176, 8.809006
861.4998, 8.505325
861.9819, 8.956558
862.4640, 9.455849
862.9461, 9.482124
863.4282, 9.524895
863.9103, 10.24277
864.3925, 11.11081
864.8746, 11.26637
865.3567, 10.72904
865.8388, 10.04270
866.3209, 9.498276
866.8030, 9.097946
867.2852, 8.838799
867.7673, 8.656036
868.2494, 8.211472
868.7315, 7.544128
869.2136, 7.284012
869.6957, 7.738144
870.1779, 8.559113
870.6600, 9.328690
871.1421, 10.04993
871.6242, 10.55589
872.1063, 11.01369
872.5884, 10.96031
873.0705, 9.653618
873.5526, 8.432182
874.0347, 8.270805
874.5168, 8.793930
874.9990, 9.016037
875.4811, 8.647858
875.9632, 8.384689
876.4453, 9.016251
876.9274, 9.313843
877.4095, 7.513847
877.8917, 5.060692
878.3738, 4.865372
878.8559, 7.286453
879.3380, 9.433510
879.8201, 8.784065
880.3022, 6.890678
880.7844, 6.289635
881.2665, 6.654984
881.7486, 6.841263
882.2307, 6.707085
882.7128, 6.393669
883.1949, 5.903244
883.6771, 5.422508
884.1592, 5.440796
884.6413, 6.124565
885.1234, 6.275269
885.6055, 5.585136
886.0876, 5.278229
886.5698, 6.080643
887.0519, 7.058769
887.5340, 7.066429
888.0161, 6.200768
888.4982, 5.808289
888.9803, 6.422844
889.4625, 6.834000
889.9446, 6.768791
890.4267, 6.491829
890.9088, 6.172432
891.3909, 5.774055
891.8730, 5.024239
892.3552, 3.804604
892.8373, 3.144600
893.3194, 4.352119
893.8015, 5.902611
894.2836, 6.103233
894.7657, 5.404411
895.2479, 4.647675
895.7300, 4.098366
896.2121, 4.004929
896.6942, 4.665230
897.1763, 5.590057
897.6584, 5.706253
898.1406, 5.103851
898.6227, 4.729973
899.1048, 4.694969
899.5869, 4.518837
900.0690, 3.895744
900.5511, 3.270622
901.0333, 3.421410
901.5154, 4.404160
901.9975, 4.888809
902.4796, 4.551270
902.9617, 4.321938
903.4438, 4.535591
903.9260, 4.747749
904.4081, 4.606544
904.8902, 4.238495
905.3723, 4.019341
905.8544, 4.179077
906.3365, 3.943962
906.8187, 2.388607
907.3008, 1.169498
907.7829, 1.630894
908.2650, 2.869633
908.7471, 3.696892
909.2292, 3.882256
909.7114, 3.744553
910.1935, 3.402607
910.6756, 2.924660
911.1577, 2.215141
911.6398, 1.485291
912.1219, 1.179482
912.6041, 1.273266
913.0862, 1.478024
913.5683, 1.658405
914.0504, 1.645130
914.5325, 1.017311
915.0146, 1.8322000E-02
915.4968, 8.1561998E-02
915.9789, 0.8779340
916.4610, 1.231140
916.9431, 0.4413640
917.4252, 0.4105070
917.9073, 0.3373410
918.3895, 0.2939340
918.8716, 4.9640998E-02
919.3537, 1.813515
919.8358, 2.632156
920.3179, 1.682911
920.8000, 0.7206690
921.2822, 0.6367490
921.7643, 0.7521250
922.2464, 0.1134190
922.7285, 1.225548
923.2106, 1.783932
923.6927, 0.6543050
924.1749, 0.3264660
924.6570, 0.8944130
925.1391, 0.9006160
925.6212, 0.3410490
926.1033, 2.083118
926.5854, 2.716434
927.0676, 1.743271
927.5497, 0.6977200
928.0318, 0.6384090
928.5139, 0.9528770
928.9960, 1.102310
929.4781, 1.127686
929.9603, 1.145679
930.4424, 1.171673
930.9245, 1.107288
931.4066, 0.8554570
931.8887, 0.6805570
932.3708, 1.254047
932.8530, 2.277866
933.3351, 2.240570
933.8172, 1.156815
934.2993, 0.8090480
934.7814, 1.924095
935.2635, 3.303722
935.7457, 3.643620
936.2278, 3.102108
936.7099, 2.561523
937.1920, 1.968857
937.6741, 1.661186
938.1563, 1.904579
938.6384, 1.899635
939.1205, 0.9701000
939.6026, 0.2897110
940.0847, 0.8160060
940.5668, 0.5031430
941.0490, 7.8629002E-02
941.5311, 0.9666520
942.0132, 1.428089
942.4953, 0.4558220
942.9774, 0.6126290
943.4595, 0.8212810
943.9417, 0.3336520
944.4238, 0.4011540
944.9059, 1.483955
945.3880, 2.092381
945.8701, 1.681950
946.3522, 0.9766010
946.8344, 0.1615070
947.3165, 0.4860950
947.7986, 0.5342180
948.2807, 3.1199999E-02
948.7628, 0.4938430
949.2449, 0.7625580
949.7271, 0.9536400
950.2092, 1.322819
950.6913, 1.657619
951.1734, 1.520252
951.6555, 1.031815
952.1376, 0.5831110
952.6198, 0.3354380
953.1019, 0.4500050
953.5840, 1.142845
954.0661, 2.185986
954.5482, 3.168755
955.0303, 4.038757
955.5124, 4.242069
955.9945, 3.706387
956.4766, 2.773087
956.9587, 1.510876
957.4409, 0.5914380
957.9230, 1.263744
958.4051, 3.498058
958.8872, 4.094067
959.3693, 2.565041
959.8514, 1.475639
960.3336, 1.380314
960.8157, 1.885738
961.2978, 3.046890
961.7799, 4.380032
962.2620, 4.398987
962.7441, 2.316017
963.2263, 1.368076
963.7084, 2.639561
964.1905, 3.581818
964.6726, 3.169418
965.1547, 2.446949
965.6368, 2.419064
966.1190, 2.897644
966.6011, 2.898216
967.0832, 1.920334
967.5653, 1.234241
968.0474, 1.241749
968.5295, 1.468761
969.0117, 1.633541
969.4938, 1.860161
969.9759, 2.376896
970.4580, 3.176453
970.9401, 3.994167
971.4222, 4.846569
971.9044, 5.468685
972.3865, 5.480110
972.8686, 5.337948
973.3507, 5.659138
973.8328, 6.233498
974.3149, 6.434521
974.7971, 6.096661
975.2792, 5.548328
975.7613, 4.755703
976.2434, 4.368126
976.7255, 5.443398
977.2076, 7.330132
977.6898, 9.321533
978.1719, 11.18866
978.6540, 11.82092
979.1361, 10.64899
979.6182, 9.275955
980.1003, 9.970123
980.5825, 12.03348
981.0646, 13.12484
981.5467, 13.35996
982.0288, 13.59963
982.5109, 14.02049
982.9930, 14.74872
983.4752, 15.99505
983.9573, 17.19926
984.4394, 17.33735
984.9215, 16.40200
985.4036, 15.59095
985.8857, 14.92402
986.3679, 14.30289
986.8500, 13.76805
987.3321, 13.02020
987.8142, 11.68896
988.2963, 10.07743
988.7784, 9.219582
989.2606, 9.523582
989.7427, 9.097450
990.2248, 7.449425
990.7069, 6.023182
991.1890, 5.386566
991.6711, 5.010315
992.1533, 4.379028
992.6354, 3.554642
993.1175, 2.904518
993.5996, 2.281399
994.0817, 2.098961
994.5638, 3.104889
995.0460, 3.662960
995.5281, 2.426155
996.0102, 0.9257350
996.4923, 1.114464
996.9744, 2.775772
997.4565, 3.635269
997.9387, 2.708549
998.4208, 1.987022
998.9029, 2.282848
999.3850, 2.609802
999.8671, 2.074398
1000.349, 1.256653
1000.831, 1.035614
1001.313, 1.527607
1001.796, 2.070648
1002.278, 2.370930
1002.760, 2.656227
1003.242, 3.431168
1003.724, 3.914356
1004.206, 2.970146
1004.688, 1.272408
1005.170, 0.2632640
1005.653, 0.2909050
1006.135, 0.4682160
1006.617, 4.3804001E-02
1007.099, 0.2782940
1007.581, 0.4834140
1008.063, 1.574585
1008.545, 1.951340
1009.027, 1.654648
1009.509, 1.011120
1009.992, 0.1858520
1010.474, 0.3551290
1010.956, 6.4548001E-02
1011.438, 0.7488020
1011.920, 0.3591770
1012.402, 0.5351140
1012.884, 0.3526800
1013.366, 0.7843890
1013.849, 1.255882
1014.331, 0.3758960
1014.813, 0.5900570
1015.295, 5.2513000E-02
1015.777, 1.317249
1016.259, 1.704185
1016.741, 1.319523
1017.223, 1.130367
1017.705, 1.265141
1018.188, 1.528904
1018.670, 1.827400
1019.152, 2.053394
1019.634, 1.944077
1020.116, 1.667969
1020.598, 2.307098
1021.080, 3.797497
1021.562, 4.324898
1022.044, 3.523392
1022.527, 2.713860
1023.009, 2.640720
1023.491, 3.071419
1023.973, 3.772915
1024.455, 4.684689
1024.937, 4.626926
1025.419, 3.432884
1025.901, 2.658905
1026.384, 2.641979
1026.866, 2.827450
1027.348, 2.857750
1027.830, 2.915096
1028.312, 3.381325
1028.794, 4.288021
1029.276, 4.893501
1029.758, 5.154758
1030.240, 5.258492
1030.723, 5.188431
1031.205, 5.090321
1031.687, 5.066544
1032.169, 5.065449
1032.651, 4.957916
1033.133, 4.705429
1033.615, 4.632931
1034.097, 4.506256
1034.579, 5.162968
1035.062, 7.603565
1035.544, 9.567955
1036.026, 9.252373
1036.508, 7.618118
1036.990, 6.641888
1037.472, 6.414398
1037.954, 6.354961
1038.436, 6.889042
1038.919, 6.892662
1039.401, 5.489719
1039.883, 4.252029
1040.365, 4.368076
1040.847, 5.317101
1041.329, 6.028244
1041.811, 6.537563
1042.293, 6.635048
1042.776, 5.984745
1043.258, 5.391972
1043.740, 4.729824
1044.222, 4.442558
1044.704, 5.260567
1045.186, 6.510479
1045.668, 6.760971
1046.150, 5.725426
1046.632, 5.109741
1047.115, 5.650318
1047.597, 5.862194
1048.079, 5.018459
1048.561, 4.087521
1049.043, 3.654354
1049.525, 3.639877
1050.007, 3.989998
1050.489, 4.776806
1050.971, 4.946270
1051.454, 3.195339
1051.936, 2.309410
1052.418, 4.052628
1052.900, 6.059597
1053.382, 6.581219
1053.864, 6.134396
1054.346, 5.890881
1054.828, 6.032158
1055.311, 5.762341
1055.793, 4.480671
1056.275, 3.406960
1056.757, 2.966404
1057.239, 2.989540
1057.721, 3.300354
1058.203, 3.738045
1058.685, 4.079880
1059.167, 4.278954
1059.650, 4.262257
1060.132, 3.655216
1060.614, 3.301498
1061.096, 3.709568
1061.578, 4.304970
1062.060, 4.939850
1062.542, 5.321281
1063.024, 4.854515
1063.506, 3.551563
1063.989, 2.586521
1064.471, 2.573925
1064.953, 2.575306
1065.435, 1.852192
1065.917, 1.405746
1066.399, 2.501137
1066.881, 4.074879
1067.363, 4.185486
1067.846, 2.766624
1068.328, 1.923313
1068.810, 3.118027
1069.292, 3.882774
1069.774, 2.390396
1070.256, 0.7805180
1070.738, 0.8628880
1071.220, 1.800262
1071.703, 2.315861
1072.185, 2.269131
1072.667, 2.192291
1073.149, 2.481667
1073.631, 2.432228
1074.113, 0.9590300
1074.595, 0.1680530
1075.077, 0.9000780
1075.559, 2.741833
1076.042, 3.422321
1076.524, 2.903419
1077.006, 2.339527
1077.488, 2.078308
1077.970, 1.958611
1078.452, 1.752590
1078.934, 1.827942
1079.416, 2.991619
1079.898, 4.192245
1080.380, 4.012268
1080.863, 2.681248
1081.345, 1.372051
1081.827, 0.3228340
1082.309, 4.6886001E-02
1082.791, 1.231544
1083.273, 2.336098
1083.755, 1.803337
1084.237, 0.7867090
1084.720, 0.3744350
1085.202, 0.6216930
1085.684, 1.483627
1086.166, 3.061951
1086.648, 4.057404
1087.130, 3.334793
1087.612, 2.619545
1088.094, 3.177494
1088.577, 3.832821
1089.059, 3.160538
1089.541, 1.791584
1090.023, 1.283337
1090.505, 1.956551
1090.987, 2.615063
1091.469, 2.867355
1091.951, 2.942650
1092.433, 2.865082
1092.916, 2.721996
1093.398, 2.537102
1093.880, 2.355534
1094.362, 2.269833
1094.844, 2.279507
1095.326, 2.202057
1095.808, 1.815090
1096.290, 1.580448
1096.772, 2.039242
1097.255, 2.270130
1097.737, 1.141407
1098.219, 0.2338260
1098.701, 0.1217690
1099.183, 1.363140
1099.665, 2.333763
1100.147, 2.071438
1100.629, 1.869072
1101.112, 2.224056
1101.594, 2.516701
1102.076, 2.338352
1102.558, 2.020882
1103.040, 1.840427
1103.522, 1.849667
1104.004, 2.232533
1104.486, 3.404156
1104.969, 3.700703
1105.451, 1.760414
1105.933, 0.2921560
1106.415, 0.6981850
1106.897, 1.512199
1107.379, 1.584724
1107.861, 1.117615
1108.343, 0.5813370
1108.825, 0.1545640
1109.307, 5.9900002E-04
1109.790, 2.589115
1110.272, 4.012787
1110.754, 2.637230
1111.236, 0.8652990
1111.718, 0.2411120
1112.200, 0.6421590
1112.682, 0.1201320
1113.164, 2.171646
1113.647, 2.638172
1114.129, 0.2755510
1114.611, 1.771484
1115.093, 0.5161250
1115.575, 0.8164900
1116.057, 1.028770
1116.539, 0.8237720
1117.021, 1.002514
1117.504, 1.503902
1117.986, 1.882927
1118.468, 2.237022
1118.950, 2.211662
1119.432, 1.648273
1119.914, 1.010048
1120.396, 0.4008640
1120.878, 0.2067870
1121.360, 1.030537
1121.843, 1.730907
1122.325, 1.153873
1122.807, 1.078556
1123.289, 2.231026
1123.771, 2.008423
1124.253, 1.725677
1124.735, 1.684757
1125.217, 1.518528
1125.699, 0.8904530
1126.182, 0.2398800
1126.664, 0.4325900
1127.146, 1.387005
1127.628, 1.446060
1128.110, 0.4385450
1128.592, 0.1938630
1129.074, 1.062542
1129.556, 1.756779
1130.039, 1.663368
1130.521, 1.346043
1131.003, 1.485119
1131.485, 1.860046
1131.967, 1.430813
1132.449, 0.2973820
1132.931, 0.7411770
1133.413, 2.820015
1133.896, 3.794003
1134.378, 2.828365
1134.860, 1.441761
1135.342, 0.7628590
1135.824, 0.6511310
1136.306, 1.101780
1136.788, 1.846260
1137.270, 1.599632
1137.752, 0.6041760
1138.234, 0.1514170
1138.717, 0.4119260
1139.199, 0.6922490
1139.681, 0.6373370
1140.163, 0.4847110
1140.645, 0.5236130
1141.127, 0.6306150
1141.609, 0.3326150
1142.091, 2.8038001E-02
1142.574, 0.9817090
1143.056, 2.783031
1143.538, 3.652218
1144.020, 3.110485
1144.502, 2.301151
1144.984, 2.000530
1145.466, 1.839054
1145.948, 1.318817
1146.431, 0.8018070
1146.913, 0.8078080
1147.395, 1.142826
1147.877, 1.412266
1148.359, 1.563869
1148.841, 1.775764
1149.323, 2.142540
1149.805, 2.491848
1150.287, 2.521946
1150.770, 2.720657
1151.252, 4.042820
1151.734, 5.222801
1152.216, 4.544533
1152.698, 2.669659
1153.180, 1.224312
1153.662, 0.5556600
1154.144, 0.5357250
1154.626, 1.761593
1155.109, 2.718712
1155.591, 2.857689
1156.073, 2.620144
1156.555, 2.018894
1157.037, 1.422428
1157.519, 1.412521
1158.001, 1.888332
1158.483, 1.905285
1158.966, 0.9404530
1159.448, 0.4482960
1159.930, 0.9229200
1160.412, 1.324062
1160.894, 1.379158
1161.376, 1.277187
1161.858, 1.216045
1162.340, 1.179611
1162.822, 1.068821
1163.305, 0.8330040
1163.787, 1.119106
1164.269, 2.223049
1164.751, 3.010353
1165.233, 3.368351
1165.715, 3.206127
1166.197, 2.242298
1166.679, 1.376831
1167.161, 1.824966
1167.644, 3.166920
1168.126, 3.605541
1168.608, 3.118134
1169.090, 2.998249
1169.572, 3.292572
1170.054, 3.221703
1170.536, 2.628525
1171.018, 2.356110
1171.500, 3.086380
1171.983, 3.958374
1172.465, 3.405209
1172.947, 2.076790
1173.429, 1.541756
1173.911, 1.565697
1174.393, 1.347332
1174.875, 0.8724980
1175.357, 0.6750220
1175.840, 0.9439200
1176.322, 1.373283
1176.804, 1.741394
1177.286, 2.063648
1177.768, 2.512085
1178.250, 2.819962
1178.732, 2.170387
1179.214, 1.199490
1179.697, 1.850227
1180.179, 3.928154
1180.661, 4.831036
1181.143, 3.235935
1181.625, 1.577595
1182.107, 1.272449
1182.589, 1.458466
1183.071, 1.750328
1183.553, 2.131584
1184.036, 2.963360
1184.518, 3.729683
1185.000, 3.231049
1185.482, 1.404739
1185.964, 0.2685930
1186.446, 0.8231010
1186.928, 1.299053
1187.410, 1.247982
1187.892, 1.074772
1188.375, 0.7629550
1188.857, 0.5648840
1189.339, 0.8176920
1189.821, 1.329880
1190.303, 1.561474
1190.785, 1.465969
1191.267, 1.441879
1191.749, 1.611645
1192.232, 1.376301
1192.714, 0.3517800
1193.196, 0.1403730
1193.678, 0.7399100
1194.160, 1.916412
1194.642, 2.016193
1195.124, 1.370174
1195.606, 1.317860
1196.089, 1.830444
1196.571, 2.211689
1197.053, 2.423660
1197.535, 2.343979
1198.017, 1.968372
1198.499, 1.849438
1198.981, 2.358086
1199.463, 2.882309
1199.945, 2.392433
1200.427, 1.520142
1200.910, 1.599163
1201.392, 2.229874
1201.874, 2.590057
1202.356, 2.645103
1202.838, 2.683788
1203.320, 2.742104
1203.802, 2.430851
1204.284, 1.336472
1204.767, 0.3748130
1205.249, 3.4000000E-04
1205.731, 0.3025470
1206.213, 2.375534
1206.695, 4.411484
1207.177, 3.549080
1207.659, 0.9407230
1208.141, 0.2997170
1208.624, 2.499805
1209.106, 3.955650
1209.588, 3.392494
1210.070, 2.631863
1210.552, 1.684128
1211.034, 1.059643
1211.516, 1.213356
1211.998, 1.643528
1212.480, 1.988079
1212.963, 2.158566
1213.445, 1.718967
1213.927, 0.3117940
1214.409, 0.2540320
1214.891, 2.047215
1215.373, 3.141033
1215.855, 2.950588
1216.337, 2.596519
1216.819, 2.716061
1217.302, 2.628708
1217.784, 1.277950
1218.266, 0.5493890
1218.748, 0.1017720
1219.230, 2.533516
1219.712, 2.860695
1220.194, 1.408630
1220.676, 1.246510
1221.159, 2.796654
1221.641, 3.658321
1222.123, 2.505848
1222.605, 1.056255
1223.087, 1.153896
1223.569, 1.748932
1224.051, 1.816555
1224.533, 1.532837
1225.016, 0.8054850
1225.498, 1.0273000E-02
1225.980, 0.3861810
1226.462, 0.2129100
1226.944, 0.5928460
1227.426, 2.618752
1227.908, 3.623291
1228.390, 1.657669
1228.872, 4.7109998E-03
1229.354, 0.3459400
1229.837, 1.200577
1230.319, 1.373203
1230.801, 1.219830
1231.283, 1.491581
1231.765, 2.165283
1232.247, 2.412121
1232.729, 2.114048
1233.211, 1.686977
1233.694, 0.9583440
1234.176, 0.9409940
1234.658, 2.212978
1235.140, 2.892563
1235.622, 1.417240
1236.104, 0.6105690
1236.586, 0.2769620
1237.068, 1.751659
1237.551, 2.933159
1238.033, 3.283234
1238.515, 2.418690
1238.997, 0.7338490
1239.479, 0.2410890
1239.961, 1.409111
1240.443, 2.741558
1240.925, 3.401119
1241.407, 3.399334
1241.890, 2.300800
1242.372, 1.017773
1242.854, 0.4340400
1243.336, 0.1980060
1243.818, 0.4475100
1244.300, 1.021278
1244.782, 1.7077999E-02
1245.264, 2.677094
1245.746, 3.955261
1246.229, 1.895561
1246.711, 0.5495000
1247.193, 1.396000
1247.675, 2.001278
1248.157, 1.076542
1248.639, 0.2287860
1249.121, 0.7888980
1249.603, 1.930489
1250.085, 2.076908
1250.568, 1.338341
1251.050, 1.668079
1251.532, 3.245502
1252.014, 3.735691
1252.496, 3.098667
1252.978, 2.393349
1253.460, 1.965813
1253.942, 1.986324
1254.425, 2.611572
1254.907, 3.367622
1255.389, 3.696423
1255.871, 3.517296
1256.353, 2.599186
1256.835, 1.443203
1257.317, 1.324512
1257.799, 1.926933
1258.281, 2.015335
1258.764, 1.430367
1259.246, 0.9646300
1259.728, 0.9296800
1260.210, 1.124020
1260.692, 1.544819
1261.174, 1.914822
1261.656, 1.757965
1262.138, 1.711823
1262.620, 2.755600
1263.103, 4.040920
1263.585, 3.992085
1264.067, 2.771557
1264.549, 1.863232
1265.031, 1.345802
1265.513, 1.203476
1265.995, 1.138210
1266.477, 1.323875
1266.960, 1.732334
1267.442, 2.753685
1267.924, 4.702023
1268.406, 5.952915
1268.888, 4.171242
1269.370, 1.067268
1269.852, 0.7703670
1270.334, 2.236881
1270.817, 3.059937
1271.299, 3.236961
1271.781, 3.244057
1272.263, 3.137650
1272.745, 2.781677
1273.227, 2.158241
1273.709, 1.615841
1274.191, 1.248844
1274.673, 1.189407
1275.156, 1.821495
1275.638, 2.435726
1276.120, 2.662552
1276.602, 2.560261
1277.084, 1.933662
1277.566, 1.085022
1278.048, 1.166031
1278.530, 2.328152
1279.012, 2.766556
1279.495, 2.221138
1279.977, 1.945049
1280.459, 2.189438
1280.941, 1.944588
1281.423, 0.7406010
1281.905, 9.5604002E-02
1282.387, 0.5341070
1282.869, 1.785015
1283.352, 2.080975
1283.834, 0.7015800
1284.316, 0.2362330
1284.798, 0.0000000E+00
##END=



