##NAMES=Corundum
##RRUFFID=X050042
##IDEAL CHEMISTRY=Al_2_O_3_
##LOCALITY=Australia
##OWNER=Caltech
##SOURCE=G.R. Rossman
##DESCRIPTION=var. Sapphire
##STATUS=The identification of this mineral has been determined only by Raman spectroscopy
##URL=rruff.info/X050042
206.000, 0.000
207.000, 11.182
208.000, 16.157
209.000, 6.960
210.000, 1.290
211.000, 1.381
212.000, 4.472
213.000, 10.868
214.000, 19.249
215.000, 27.524
216.000, 35.010
217.000, 42.606
218.000, 57.046
219.000, 72.619
220.000, 87.940
221.000, 102.926
222.000, 118.530
223.000, 138.170
224.000, 157.795
225.000, 172.905
226.000, 186.524
227.000, 200.650
228.000, 215.725
229.000, 231.192
230.000, 246.627
231.000, 262.313
232.000, 273.441
233.000, 281.864
234.000, 289.960
235.000, 297.523
236.000, 304.857
237.000, 309.274
238.000, 313.248
239.000, 316.381
240.000, 318.742
241.000, 320.328
242.000, 318.586
243.000, 316.618
244.000, 309.321
245.000, 300.843
246.000, 291.394
247.000, 281.049
248.000, 271.357
249.000, 261.312
250.000, 252.725
251.000, 246.685
252.000, 241.317
253.000, 235.267
254.000, 228.772
255.000, 221.413
256.000, 212.121
257.000, 201.587
258.000, 191.881
259.000, 182.499
260.000, 172.955
261.000, 163.948
262.000, 154.656
263.000, 147.127
264.000, 139.535
265.000, 132.034
266.000, 124.475
267.000, 116.522
268.000, 107.794
269.000, 98.983
270.000, 92.732
271.000, 86.675
272.000, 81.645
273.000, 77.497
274.000, 73.765
275.000, 71.819
276.000, 69.961
277.000, 69.944
278.000, 70.225
279.000, 70.670
280.000, 71.284
281.000, 71.341
282.000, 68.493
283.000, 65.584
284.000, 59.487
285.000, 52.672
286.000, 45.235
287.000, 37.108
288.000, 29.083
289.000, 21.786
290.000, 14.476
291.000, 9.865
292.000, 5.945
293.000, 1.817
294.000, 2.559
295.000, 6.644
296.000, 8.482
297.000, 10.332
298.000, 10.521
299.000, 10.258
300.000, 10.394
301.000, 11.019
302.000, 11.467
303.000, 10.422
304.000, 9.405
305.000, 9.098
306.000, 9.020
307.000, 7.630
308.000, 4.630
309.000, 1.721
310.000, 0.776
311.000, 3.242
312.000, 5.003
313.000, 6.570
314.000, 8.935
315.000, 10.602
316.000, 12.313
317.000, 14.389
318.000, 16.411
319.000, 18.467
320.000, 20.510
321.000, 22.326
322.000, 23.905
323.000, 25.754
324.000, 29.019
325.000, 32.265
326.000, 35.490
327.000, 38.694
328.000, 42.329
329.000, 46.351
330.000, 49.993
331.000, 52.245
332.000, 54.474
333.000, 57.831
334.000, 61.310
335.000, 65.509
336.000, 70.241
337.000, 74.725
338.000, 78.541
339.000, 82.329
340.000, 83.240
341.000, 83.948
342.000, 82.453
343.000, 79.649
344.000, 76.682
345.000, 73.394
346.000, 70.101
347.000, 69.364
348.000, 68.604
349.000, 69.331
350.000, 70.692
351.000, 72.201
352.000, 73.954
353.000, 75.546
354.000, 75.525
355.000, 75.481
356.000, 76.083
357.000, 76.849
358.000, 78.190
359.000, 80.174
360.000, 82.109
361.000, 83.997
362.000, 85.840
363.000, 86.890
364.000, 87.785
365.000, 89.137
366.000, 90.846
367.000, 92.651
368.000, 94.761
369.000, 96.859
370.000, 98.525
371.000, 100.166
372.000, 103.252
373.000, 107.052
374.000, 113.436
375.000, 124.189
376.000, 134.870
377.000, 144.748
378.000, 154.604
379.000, 151.811
380.000, 145.474
381.000, 137.618
382.000, 128.184
383.000, 120.206
384.000, 118.162
385.000, 116.114
386.000, 115.650
387.000, 115.344
388.000, 115.038
389.000, 114.729
390.000, 114.981
391.000, 116.388
392.000, 117.764
393.000, 119.106
394.000, 120.402
395.000, 120.295
396.000, 119.689
397.000, 120.020
398.000, 121.383
399.000, 122.647
400.000, 123.801
401.000, 124.792
402.000, 125.099
403.000, 125.088
404.000, 126.056
405.000, 127.556
406.000, 129.202
407.000, 131.160
408.000, 133.326
409.000, 138.320
410.000, 143.290
411.000, 160.172
412.000, 180.241
413.000, 217.353
414.000, 270.441
415.000, 319.296
416.000, 354.703
417.000, 390.324
418.000, 341.909
419.000, 290.733
420.000, 239.895
421.000, 189.227
422.000, 153.691
423.000, 138.755
424.000, 125.732
425.000, 123.182
426.000, 120.654
427.000, 121.264
428.000, 122.305
429.000, 122.271
430.000, 121.568
431.000, 120.566
432.000, 119.013
433.000, 117.483
434.000, 115.976
435.000, 114.491
436.000, 114.100
437.000, 113.962
438.000, 113.343
439.000, 112.336
440.000, 111.854
441.000, 112.631
442.000, 113.388
443.000, 113.304
444.000, 113.238
445.000, 113.187
446.000, 113.149
447.000, 113.124
448.000, 113.099
449.000, 112.730
450.000, 111.363
451.000, 109.982
452.000, 109.911
453.000, 109.821
454.000, 109.059
455.000, 108.083
456.000, 107.752
457.000, 108.080
458.000, 108.194
459.000, 107.637
460.000, 107.085
461.000, 106.980
462.000, 106.881
463.000, 106.784
464.000, 106.693
465.000, 106.383
466.000, 105.848
467.000, 105.420
468.000, 105.337
469.000, 105.262
470.000, 106.074
471.000, 106.887
472.000, 107.700
473.000, 108.512
474.000, 107.744
475.000, 105.453
476.000, 103.287
477.000, 101.458
478.000, 99.639
479.000, 97.828
480.000, 96.018
481.000, 94.549
482.000, 93.186
483.000, 92.095
484.000, 91.235
485.000, 89.821
486.000, 87.154
487.000, 84.508
488.000, 82.270
489.000, 80.007
490.000, 78.090
491.000, 76.248
492.000, 73.884
493.000, 71.179
494.000, 69.156
495.000, 68.287
496.000, 67.388
497.000, 66.467
498.000, 65.559
499.000, 63.455
500.000, 61.206
501.000, 58.947
502.000, 56.698
503.000, 54.659
504.000, 52.885
505.000, 51.029
506.000, 48.825
507.000, 46.614
508.000, 44.396
509.000, 42.173
510.000, 39.949
511.000, 37.744
512.000, 35.799
513.000, 34.061
514.000, 32.602
515.000, 31.743
516.000, 30.744
517.000, 28.510
518.000, 26.285
519.000, 24.853
520.000, 23.546
521.000, 22.539
522.000, 21.698
523.000, 20.865
524.000, 20.038
525.000, 19.217
526.000, 18.400
527.000, 17.588
528.000, 16.328
529.000, 15.071
530.000, 14.877
531.000, 14.981
532.000, 14.316
533.000, 13.070
534.000, 12.311
535.000, 12.427
536.000, 12.480
537.000, 12.149
538.000, 11.820
539.000, 11.494
540.000, 11.170
541.000, 10.191
542.000, 8.965
543.000, 8.447
544.000, 8.585
545.000, 8.442
546.000, 7.677
547.000, 6.963
548.000, 6.655
549.000, 6.349
550.000, 6.045
551.000, 5.742
552.000, 4.807
553.000, 3.600
554.000, 2.621
555.000, 1.871
556.000, 1.258
557.000, 0.967
558.000, 0.677
559.000, 0.388
560.000, 0.102
561.000, 0.592
562.000, 1.329
563.000, 1.110
564.000, 0.479
565.000, 0.075
566.000, 0.104
567.000, 0.145
568.000, 0.128
569.000, 0.399
570.000, 0.668
571.000, 0.935
572.000, 0.780
573.000, 0.588
574.000, 0.607
575.000, 2.173
576.000, 2.507
577.000, 1.793
578.000, 1.241
579.000, 0.987
580.000, 0.660
581.000, 0.047
582.000, 0.753
583.000, 1.011
584.000, 1.257
585.000, 1.502
586.000, 1.745
587.000, 1.710
588.000, 1.493
589.000, 1.662
590.000, 2.359
591.000, 2.835
592.000, 2.614
593.000, 2.393
594.000, 2.170
595.000, 1.947
596.000, 1.319
597.000, 0.634
598.000, 0.591
599.000, 0.822
600.000, 1.291
601.000, 1.979
602.000, 2.189
603.000, 1.496
604.000, 0.960
605.000, 1.185
606.000, 1.408
607.000, 1.173
608.000, 0.934
609.000, 1.074
610.000, 1.294
611.000, 1.513
612.000, 1.731
613.000, 1.727
614.000, 1.483
615.000, 1.239
616.000, 0.993
617.000, 0.813
618.000, 1.027
619.000, 1.240
620.000, 1.002
621.000, 0.753
622.000, 0.128
623.000, 0.585
624.000, 1.305
625.000, 2.042
626.000, 2.778
627.000, 3.507
628.000, 4.238
629.000, 4.973
630.000, 5.780
631.000, 6.972
632.000, 8.161
633.000, 10.274
634.000, 12.392
635.000, 16.064
636.000, 20.037
637.000, 26.220
638.000, 33.442
639.000, 42.368
640.000, 52.846
641.000, 62.302
642.000, 69.999
643.000, 75.917
644.000, 75.262
645.000, 74.189
646.000, 66.569
647.000, 58.949
648.000, 52.167
649.000, 45.472
650.000, 40.883
651.000, 36.974
652.000, 34.479
653.000, 32.899
654.000, 31.319
655.000, 29.740
656.000, 28.883
657.000, 29.637
658.000, 30.249
659.000, 30.101
660.000, 30.002
661.000, 30.847
662.000, 31.674
663.000, 32.482
664.000, 33.274
665.000, 34.054
666.000, 34.839
667.000, 35.354
668.000, 35.656
669.000, 35.520
670.000, 34.856
671.000, 34.497
672.000, 34.791
673.000, 34.845
674.000, 33.737
675.000, 32.661
676.000, 32.488
677.000, 32.313
678.000, 31.713
679.000, 31.060
680.000, 30.410
681.000, 29.764
682.000, 28.833
683.000, 27.729
684.000, 27.557
685.000, 28.330
686.000, 28.762
687.000, 28.599
688.000, 28.766
689.000, 30.011
690.000, 31.240
691.000, 32.462
692.000, 33.675
693.000, 34.878
694.000, 36.071
695.000, 38.864
696.000, 41.947
697.000, 43.660
698.000, 44.824
699.000, 46.244
700.000, 47.864
701.000, 48.820
702.000, 49.045
703.000, 48.777
704.000, 47.623
705.000, 46.056
706.000, 43.041
707.000, 39.962
708.000, 36.442
709.000, 32.890
710.000, 28.853
711.000, 24.844
712.000, 21.271
713.000, 17.746
714.000, 15.283
715.000, 13.170
716.000, 11.676
717.000, 10.511
718.000, 9.584
719.000, 8.868
720.000, 7.747
721.000, 6.070
722.000, 4.836
723.000, 4.600
724.000, 4.283
725.000, 3.591
726.000, 2.926
727.000, 2.685
728.000, 2.453
729.000, 2.232
730.000, 2.039
731.000, 1.461
732.000, 0.834
733.000, 0.930
734.000, 1.253
735.000, 1.264
736.000, 1.112
737.000, 1.221
738.000, 1.544
739.000, 1.868
740.000, 2.191
741.000, 2.514
742.000, 2.838
743.000, 3.278
744.000, 4.078
745.000, 4.809
746.000, 5.133
747.000, 5.480
748.000, 6.282
749.000, 7.083
750.000, 6.977
751.000, 6.825
752.000, 6.267
753.000, 5.643
754.000, 5.381
755.000, 5.230
756.000, 4.760
757.000, 4.132
758.000, 3.781
759.000, 3.636
760.000, 3.262
761.000, 2.635
762.000, 2.194
763.000, 2.046
764.000, 1.757
765.000, 1.137
766.000, 0.517
767.000, 0.115
768.000, 0.627
769.000, 0.291
770.000, 0.070
771.000, 0.422
772.000, 0.767
773.000, 0.659
774.000, 0.534
775.000, 1.226
776.000, 2.031
777.000, 1.708
778.000, 1.098
779.000, 1.504
780.000, 2.322
781.000, 2.833
782.000, 3.160
783.000, 3.237
784.000, 3.122
785.000, 3.024
786.000, 2.940
787.000, 3.383
788.000, 4.681
789.000, 5.532
790.000, 5.440
791.000, 5.484
792.000, 5.910
793.000, 6.320
794.000, 6.711
795.000, 6.989
796.000, 6.380
797.000, 5.789
798.000, 6.129
799.000, 6.465
800.000, 7.258
801.000, 8.075
802.000, 7.608
803.000, 6.986
804.000, 6.769
805.000, 6.633
806.000, 6.856
807.000, 7.192
808.000, 7.523
809.000, 7.852
810.000, 7.874
811.000, 7.717
812.000, 7.291
813.000, 6.650
814.000, 6.248
815.000, 6.090
816.000, 6.148
817.000, 6.478
818.000, 6.620
819.000, 6.458
820.000, 6.294
821.000, 6.136
822.000, 6.247
823.000, 7.076
824.000, 7.500
825.000, 6.382
826.000, 5.416
827.000, 5.265
828.000, 5.148
829.000, 5.473
830.000, 5.782
831.000, 5.621
832.000, 5.458
833.000, 5.779
834.000, 6.111
835.000, 5.523
836.000, 4.872
837.000, 4.659
838.000, 4.505
839.000, 4.342
840.000, 4.159
841.000, 4.370
842.000, 4.697
843.000, 4.288
844.000, 3.624
845.000, 3.295
846.000, 3.114
847.000, 3.256
848.000, 3.565
849.000, 3.877
850.000, 4.197
851.000, 3.962
852.000, 3.313
853.000, 2.921
854.000, 2.753
855.000, 2.823
856.000, 3.137
857.000, 2.998
858.000, 2.319
859.000, 1.846
860.000, 1.659
861.000, 1.661
862.000, 1.970
863.000, 2.106
864.000, 1.917
865.000, 1.726
866.000, 1.534
867.000, 1.476
868.000, 1.773
869.000, 1.948
870.000, 1.754
871.000, 1.564
872.000, 1.371
873.000, 1.343
874.000, 2.094
875.000, 2.505
876.000, 1.225
877.000, 0.153
878.000, 0.386
879.000, 0.587
880.000, 0.363
881.000, 0.211
882.000, 0.961
883.000, 1.645
884.000, 0.939
885.000, 0.261
886.000, 0.527
887.000, 0.799
888.000, 1.075
889.000, 1.349
890.000, 0.640
891.000, 0.079
892.000, 0.319
893.000, 0.544
894.000, 0.174
895.000, 0.937
896.000, 0.306
897.000, 0.426
898.000, 0.704
899.000, 0.942
900.000, 0.731
901.000, 0.473
902.000, 0.216
903.000, 0.039
904.000, 0.292
905.000, 0.543
906.000, 0.792
907.000, 1.039
908.000, 0.860
909.000, 0.606
910.000, 0.351
911.000, 0.094
912.000, 0.255
913.000, 0.496
914.000, 0.737
915.000, 0.975
916.000, 1.215
917.000, 1.454
918.000, 1.283
919.000, 1.021
920.000, 1.167
921.000, 1.404
922.000, 1.231
923.000, 0.962
924.000, 1.095
925.000, 1.321
926.000, 1.543
927.000, 1.765
928.000, 1.174
929.000, 0.394
930.000, 0.429
931.000, 0.650
932.000, 0.461
933.000, 0.177
934.000, 0.714
935.000, 1.429
936.000, 1.316
937.000, 1.027
938.000, 1.156
939.000, 1.366
940.000, 1.151
941.000, 0.856
942.000, 0.986
943.000, 1.194
944.000, 0.972
945.000, 0.674
946.000, 0.807
947.000, 1.006
948.000, 0.762
949.000, 0.455
950.000, 0.595
951.000, 0.790
952.000, 1.442
953.000, 2.140
954.000, 2.372
955.000, 2.563
956.000, 1.808
957.000, 0.987
958.000, 0.645
959.000, 0.326
960.000, 0.496
961.000, 0.680
962.000, 0.863
963.000, 1.049
964.000, 1.734
965.000, 2.383
966.000, 2.055
967.000, 1.722
968.000, 1.386
969.000, 1.089
970.000, 1.259
971.000, 1.430
972.000, 1.599
973.000, 1.765
974.000, 1.927
975.000, 2.005
976.000, 1.660
977.000, 1.316
978.000, 0.971
979.000, 0.840
980.000, 1.497
981.000, 1.901
982.000, 1.553
983.000, 1.492
984.000, 2.153
985.000, 2.313
986.000, 1.429
987.000, 0.900
988.000, 1.030
989.000, 1.155
990.000, 1.298
991.000, 1.450
992.000, 1.589
993.000, 1.711
994.000, 1.839
995.000, 1.971
996.000, 2.108
997.000, 2.252
998.000, 2.379
999.000, 2.187
1000.000, 1.757
1001.000, 1.626
1002.000, 1.738
1003.000, 2.200
1004.000, 2.824
1005.000, 2.690
1006.000, 2.228
1007.000, 1.748
1008.000, 1.280
1009.000, 1.234
1010.000, 1.312
1011.000, 1.406
1012.000, 1.508
1013.000, 1.619
1014.000, 1.734
1015.000, 1.854
1016.000, 1.981
1017.000, 2.109
1018.000, 2.207
1019.000, 1.789
1020.000, 1.416
1021.000, 1.516
1022.000, 1.547
1023.000, 1.143
1024.000, 0.846
1025.000, 0.963
1026.000, 0.946
1027.000, 0.540
1028.000, 0.453
1029.000, 1.078
1030.000, 1.509
1031.000, 1.611
1032.000, 1.934
1033.000, 2.556
1034.000, 2.675
1035.000, 2.271
1036.000, 1.858
1037.000, 1.427
1038.000, 1.312
1039.000, 1.401
1040.000, 1.486
1041.000, 1.563
1042.000, 1.652
1043.000, 1.753
1044.000, 1.440
1045.000, 1.023
1046.000, 1.504
1047.000, 2.118
1048.000, 1.756
1049.000, 1.325
1050.000, 0.898
1051.000, 0.556
1052.000, 1.165
1053.000, 1.689
1054.000, 1.774
1055.000, 1.860
1056.000, 1.942
1057.000, 1.863
1058.000, 1.422
1059.000, 1.175
1060.000, 1.266
1061.000, 1.359
1062.000, 1.454
1063.000, 1.548
1064.000, 1.639
1065.000, 2.033
1066.000, 2.628
1067.000, 2.155
1068.000, 1.184
1069.000, 1.403
1070.000, 2.000
1071.000, 2.164
1072.000, 2.250
1073.000, 1.857
1074.000, 1.426
1075.000, 1.511
1076.000, 1.593
1077.000, 1.671
1078.000, 1.659
1079.000, 1.218
1080.000, 0.914
1081.000, 0.997
1082.000, 1.080
1083.000, 1.163
1084.000, 1.015
1085.000, 0.570
1086.000, 0.673
1087.000, 1.268
1088.000, 1.223
1089.000, 0.780
1090.000, 0.335
1091.000, 0.111
1092.000, 0.133
1093.000, 0.051
1094.000, 0.027
1095.000, 0.098
1096.000, 0.172
1097.000, 0.247
1098.000, 0.324
1099.000, 0.400
1100.000, 0.478
1101.000, 0.555
1102.000, 0.633
1103.000, 0.509
1104.000, 0.062
1105.000, 0.126
1106.000, 0.733
1107.000, 0.720
1108.000, 0.270
1109.000, 0.184
1110.000, 0.262
1111.000, 0.341
1112.000, 0.424
1113.000, 0.506
1114.000, 0.589
1115.000, 1.197
1116.000, 1.862
1117.000, 2.997
1118.000, 3.432
1119.000, 1.396
1120.000, 0.058
1121.000, 0.137
1122.000, 0.015
1123.000, 0.464
1124.000, 0.620
1125.000, 0.539
1126.000, 0.105
1127.000, 0.505
1128.000, 0.700
1129.000, 0.779
1130.000, 0.384
1131.000, 0.066
1132.000, 0.010
1133.000, 0.085
1134.000, 0.161
1135.000, 0.364
1136.000, 0.970
1137.000, 1.390
1138.000, 1.472
1139.000, 1.552
1140.000, 1.634
1141.000, 1.073
1142.000, 0.090
1143.000, 0.271
1144.000, 0.907
1145.000, 1.067
1146.000, 1.144
1147.000, 1.221
1148.000, 1.246
1149.000, 0.790
1150.000, 0.335
1151.000, 0.118
1152.000, 0.195
1153.000, 0.416
1154.000, 1.028
1155.000, 1.645
1156.000, 1.284
1157.000, 0.321
1158.000, 0.149
1159.000, 0.235
1160.000, 0.312
1161.000, 0.396
1162.000, 1.012
1163.000, 1.627
1164.000, 2.244
1165.000, 2.560
1166.000, 2.102
1167.000, 1.865
1168.000, 1.943
1169.000, 2.021
1170.000, 2.101
1171.000, 2.180
1172.000, 2.259
1173.000, 1.892
1174.000, 1.433
1175.000, 2.021
1176.000, 2.514
1177.000, 2.055
1178.000, 1.736
1179.000, 1.817
1180.000, 1.896
1181.000, 1.976
1182.000, 2.056
1183.000, 2.137
1184.000, 1.844
1185.000, 1.384
1186.000, 1.378
1187.000, 1.464
1188.000, 1.543
1189.000, 1.621
1190.000, 1.700
1191.000, 1.782
1192.000, 1.863
1193.000, 1.940
1194.000, 2.017
1195.000, 2.097
1196.000, 2.251
1197.000, 2.350
1198.000, 2.425
1199.000, 2.009
1200.000, 1.568
1201.000, 1.641
1202.000, 1.600
1203.000, 1.133
1204.000, 1.072
1205.000, 1.693
1206.000, 2.027
1207.000, 2.106
1208.000, 1.810
1209.000, 1.344
1210.000, 1.341
1211.000, 1.419
1212.000, 1.494
1213.000, 1.572
1214.000, 1.666
1215.000, 1.746
1216.000, 1.822
1217.000, 1.897
1218.000, 1.973
1219.000, 2.049
1220.000, 2.126
1221.000, 2.203
1222.000, 2.276
1223.000, 1.810
1224.000, 1.440
1225.000, 1.519
1226.000, 1.406
1227.000, 0.938
1228.000, 0.751
1229.000, 0.827
1230.000, 1.290
1231.000, 1.902
1232.000, 1.556
1233.000, 1.092
1234.000, 1.165
1235.000, 1.122
1236.000, 0.652
1237.000, 0.618
1238.000, 1.244
1239.000, 1.236
1240.000, 0.762
1241.000, 0.702
1242.000, 0.778
1243.000, 0.341
1244.000, 0.060
1245.000, 0.018
1246.000, 0.097
1247.000, 0.176
1248.000, 0.254
1249.000, 0.333
1250.000, 0.041
1251.000, 0.433
1252.000, 0.033
1253.000, 0.642
1254.000, 0.720
1255.000, 0.798
1256.000, 0.876
1257.000, 0.724
1258.000, 0.248
1259.000, 0.438
1260.000, 1.061
1261.000, 0.810
1262.000, 0.334
1263.000, 0.142
1264.000, 0.517
1265.000, 0.441
1266.000, 0.157
1267.000, 0.474
1268.000, 0.788
1269.000, 0.866
1270.000, 0.944
1271.000, 1.021
1272.000, 1.099
1273.000, 1.175
1274.000, 1.251
1275.000, 1.125
1276.000, 0.646
1277.000, 0.480
1278.000, 0.556
1279.000, 1.063
1280.000, 1.695
1281.000, 1.248
1282.000, 0.864
1283.000, 0.939
1284.000, 0.804
1285.000, 0.323
1286.000, 0.492
1287.000, 1.125
1288.000, 0.875
1289.000, 0.392
1290.000, 0.468
1291.000, 0.543
1292.000, 0.618
1293.000, 0.462
1294.000, 0.022
1295.000, 0.198
1296.000, 0.832
1297.000, 0.523
1298.000, 0.069
1299.000, 0.143
1300.000, 0.369
1301.000, 1.009
1302.000, 0.556
1303.000, 1.052
1304.000, 0.296
1305.000, 1.461
1306.000, 1.153
1307.000, 0.821
1308.000, 1.456
1309.000, 1.488
1310.000, 0.441
1311.000, 0.042
1312.000, 0.115
1313.000, 0.189
1314.000, 0.263
1315.000, 0.337
1316.000, 0.410
1317.000, 0.483
1318.000, 0.556
1319.000, 0.630
1320.000, 0.309
1321.000, 0.182
1322.000, 0.374
1323.000, 1.030
1324.000, 1.688
1325.000, 1.890
1326.000, 1.397
1327.000, 1.252
1328.000, 1.325
1329.000, 0.918
1330.000, 0.516
1331.000, 1.157
1332.000, 1.443
1333.000, 0.949
1334.000, 1.074
1335.000, 1.716
1336.000, 1.028
1337.000, 0.001
1338.000, 0.643
1339.000, 1.289
1340.000, 1.930
1341.000, 2.006
1342.000, 1.510
1343.000, 1.014
1344.000, 0.521
1345.000, 1.136
1346.000, 1.652
1347.000, 1.725
1348.000, 1.799
1349.000, 1.873
1350.000, 1.140
1351.000, 0.070
1352.000, 1.187
1353.000, 2.225
1354.000, 2.307
1355.000, 2.377
1356.000, 2.446
1357.000, 2.516
1358.000, 2.584
1359.000, 2.092
1360.000, 1.698
1361.000, 1.768
1362.000, 1.839
1363.000, 1.909
1364.000, 2.378
1365.000, 3.021
1366.000, 3.117
1367.000, 2.950
1368.000, 1.873
1369.000, 1.589
1370.000, 2.230
1371.000, 2.863
1372.000, 3.475
1373.000, 1.850
1374.000, 0.587
1375.000, 0.652
1376.000, 0.718
1377.000, 0.784
1378.000, 0.850
1379.000, 0.927
1380.000, 1.567
1381.000, 1.885
1382.000, 1.372
1383.000, 1.493
1384.000, 2.133
1385.000, 1.370
1386.000, 0.410
1387.000, 1.049
1388.000, 1.688
1389.000, 2.331
1390.000, 2.272
1391.000, 1.755
1392.000, 2.250
1393.000, 2.701
1394.000, 2.195
1395.000, 1.933
1396.000, 2.004
1397.000, 2.479
1398.000, 3.121
1399.000, 1.527
1400.000, 0.559
1401.000, 1.790
1402.000, 2.338
1403.000, 2.386
1404.000, 1.995
1405.000, 1.529
1406.000, 1.593
1407.000, 1.248
1408.000, 0.151
1409.000, 0.525
1410.000, 1.757
1411.000, 1.374
1412.000, 0.974
1413.000, 1.044
1414.000, 1.114
1415.000, 1.184
1416.000, 0.807
1417.000, 0.376
1418.000, 1.612
1419.000, 2.059
1420.000, 0.959
1421.000, 0.946
1422.000, 1.599
1423.000, 2.250
1424.000, 2.556
1425.000, 1.454
1426.000, 0.914
1427.000, 0.982
1428.000, 1.049
1429.000, 1.031
1430.000, 0.074
1431.000, 0.109
1432.000, 1.716
1433.000, 1.995
1434.000, 1.475
1435.000, 1.515
1436.000, 1.433
1437.000, 0.913
1438.000, 0.708
1439.000, 0.770
1440.000, 1.333
1441.000, 1.728
1442.000, 0.618
1443.000, 0.300
1444.000, 0.949
1445.000, 0.722
1446.000, 0.263
1447.000, 0.920
1448.000, 1.367
1449.000, 1.435
1450.000, 1.112
1451.000, 0.584
1452.000, 1.205
1453.000, 1.541
1454.000, 1.019
1455.000, 0.824
1456.000, 0.893
1457.000, 1.488
1458.000, 1.671
1459.000, 0.049
1460.000, 0.541
1461.000, 0.115
1462.000, 1.267
1463.000, 2.276
1464.000, 1.746
1465.000, 1.754
1466.000, 2.296
1467.000, 2.044
1468.000, 1.566
1469.000, 1.626
1470.000, 1.914
1471.000, 2.574
1472.000, 2.346
1473.000, 1.821
1474.000, 1.852
1475.000, 2.128
1476.000, 2.764
1477.000, 2.605
1478.000, 2.047
1479.000, 1.497
1480.000, 1.429
1481.000, 2.296
1482.000, 2.343
1483.000, 1.767
1484.000, 1.192
1485.000, 0.794
1486.000, 0.806
1487.000, 1.568
1488.000, 2.766
1489.000, 1.077
1490.000, 0.133
1491.000, 1.328
1492.000, 1.793
1493.000, 1.781
1494.000, 1.764
1495.000, 1.422
1496.000, 0.100
1497.000, 0.014
1498.000, 0.539
1499.000, 0.726
1500.000, 0.000
##END=



