##NAMES=Corundum
##RRUFFID=X050043
##IDEAL CHEMISTRY=Al_2_O_3_
##LOCALITY=Malacachita, Minas Gerais, Brazil
##OWNER=Caltech
##SOURCE=G.R. Rossman
##DESCRIPTION=
##STATUS=The identification of this mineral has been determined only by Raman spectroscopy
##URL=rruff.info/X050043
206.000, 0.000
207.000, 0.189
208.000, 0.784
209.000, 0.103
210.000, 0.378
211.000, 3.463
212.000, 7.585
213.000, 15.419
214.000, 25.431
215.000, 34.713
216.000, 41.594
217.000, 48.554
218.000, 54.151
219.000, 59.674
220.000, 65.283
221.000, 70.934
222.000, 76.320
223.000, 79.871
224.000, 83.418
225.000, 89.186
226.000, 95.656
227.000, 100.370
228.000, 102.368
229.000, 104.606
230.000, 106.610
231.000, 108.665
232.000, 110.154
233.000, 111.246
234.000, 111.996
235.000, 112.022
236.000, 111.938
237.000, 112.517
238.000, 113.075
239.000, 114.335
240.000, 116.184
241.000, 117.718
242.000, 117.825
243.000, 117.871
244.000, 115.098
245.000, 111.685
246.000, 109.176
247.000, 107.914
248.000, 106.951
249.000, 106.438
250.000, 106.947
251.000, 106.185
252.000, 104.887
253.000, 102.926
254.000, 100.286
255.000, 96.832
256.000, 93.471
257.000, 89.738
258.000, 85.558
259.000, 81.067
260.000, 76.824
261.000, 73.376
262.000, 69.909
263.000, 65.891
264.000, 61.738
265.000, 58.561
266.000, 56.053
267.000, 53.116
268.000, 48.776
269.000, 44.375
270.000, 41.427
271.000, 38.615
272.000, 36.214
273.000, 34.129
274.000, 32.090
275.000, 30.378
276.000, 28.673
277.000, 27.347
278.000, 26.056
279.000, 25.147
280.000, 24.659
281.000, 24.034
282.000, 22.689
283.000, 21.341
284.000, 18.944
285.000, 16.306
286.000, 13.257
287.000, 9.752
288.000, 6.470
289.000, 4.664
290.000, 2.852
291.000, 0.693
292.000, 1.559
293.000, 3.427
294.000, 4.836
295.000, 6.200
296.000, 7.193
297.000, 8.193
298.000, 7.858
299.000, 7.157
300.000, 6.463
301.000, 5.776
302.000, 5.050
303.000, 3.957
304.000, 2.882
305.000, 2.834
306.000, 3.088
307.000, 2.782
308.000, 1.787
309.000, 0.806
310.000, 0.162
311.000, 1.120
312.000, 1.387
313.000, 1.471
314.000, 1.999
315.000, 2.305
316.000, 2.553
317.000, 2.428
318.000, 2.299
319.000, 3.573
320.000, 5.163
321.000, 6.114
322.000, 6.399
323.000, 6.676
324.000, 6.944
325.000, 7.204
326.000, 7.089
327.000, 6.898
328.000, 7.830
329.000, 9.772
330.000, 11.437
331.000, 12.064
332.000, 12.681
333.000, 14.438
334.000, 16.328
335.000, 17.715
336.000, 18.720
337.000, 20.157
338.000, 22.864
339.000, 25.558
340.000, 27.018
341.000, 28.390
342.000, 29.206
343.000, 29.689
344.000, 29.886
345.000, 29.481
346.000, 29.062
347.000, 28.203
348.000, 27.333
349.000, 28.566
350.000, 30.708
351.000, 32.671
352.000, 34.359
353.000, 36.074
354.000, 38.178
355.000, 40.269
356.000, 42.684
357.000, 45.179
358.000, 47.653
359.000, 50.102
360.000, 52.380
361.000, 53.912
362.000, 55.425
363.000, 56.923
364.000, 58.407
365.000, 59.879
366.000, 61.342
367.000, 63.258
368.000, 66.449
369.000, 69.634
370.000, 73.657
371.000, 77.705
372.000, 84.078
373.000, 91.604
374.000, 103.501
375.000, 122.780
376.000, 142.057
377.000, 161.347
378.000, 180.634
379.000, 173.990
380.000, 160.109
381.000, 142.797
382.000, 121.915
383.000, 103.703
384.000, 96.324
385.000, 88.939
386.000, 85.909
387.000, 83.318
388.000, 82.883
389.000, 83.780
390.000, 84.383
391.000, 84.393
392.000, 84.407
393.000, 84.816
394.000, 85.198
395.000, 85.538
396.000, 85.827
397.000, 85.665
398.000, 84.989
399.000, 84.884
400.000, 87.470
401.000, 89.932
402.000, 91.506
403.000, 92.911
404.000, 95.079
405.000, 97.674
406.000, 101.215
407.000, 106.528
408.000, 112.289
409.000, 123.424
410.000, 134.616
411.000, 165.032
412.000, 200.558
413.000, 265.360
414.000, 357.604
415.000, 437.169
416.000, 476.790
417.000, 516.488
418.000, 426.947
419.000, 333.046
420.000, 253.465
421.000, 180.200
422.000, 129.295
423.000, 108.879
424.000, 91.432
425.000, 90.398
426.000, 89.359
427.000, 91.070
428.000, 93.159
429.000, 93.357
430.000, 92.372
431.000, 90.464
432.000, 86.831
433.000, 83.160
434.000, 79.082
435.000, 75.000
436.000, 73.816
437.000, 73.288
438.000, 72.773
439.000, 72.261
440.000, 72.404
441.000, 74.119
442.000, 75.855
443.000, 78.023
444.000, 80.194
445.000, 82.029
446.000, 83.775
447.000, 84.390
448.000, 83.938
449.000, 83.263
450.000, 81.932
451.000, 80.602
452.000, 79.271
453.000, 77.938
454.000, 77.597
455.000, 77.587
456.000, 77.791
457.000, 78.225
458.000, 78.776
459.000, 79.673
460.000, 80.571
461.000, 81.469
462.000, 82.366
463.000, 83.921
464.000, 85.706
465.000, 87.055
466.000, 87.951
467.000, 89.063
468.000, 90.849
469.000, 92.636
470.000, 95.311
471.000, 97.988
472.000, 98.994
473.000, 99.446
474.000, 98.769
475.000, 96.992
476.000, 95.334
477.000, 94.004
478.000, 92.645
479.000, 89.976
480.000, 87.318
481.000, 85.717
482.000, 84.434
483.000, 82.970
484.000, 81.344
485.000, 79.412
486.000, 76.830
487.000, 74.290
488.000, 71.794
489.000, 69.297
490.000, 66.791
491.000, 64.276
492.000, 62.286
493.000, 60.649
494.000, 60.140
495.000, 61.623
496.000, 62.982
497.000, 63.549
498.000, 64.086
499.000, 63.788
500.000, 63.438
501.000, 62.231
502.000, 60.579
503.000, 58.920
504.000, 57.235
505.000, 55.522
506.000, 53.801
507.000, 52.099
508.000, 51.299
509.000, 50.533
510.000, 48.415
511.000, 45.836
512.000, 43.230
513.000, 40.641
514.000, 38.635
515.000, 37.848
516.000, 36.834
517.000, 33.765
518.000, 30.700
519.000, 29.598
520.000, 28.793
521.000, 27.698
522.000, 26.447
523.000, 25.590
524.000, 25.248
525.000, 25.005
526.000, 25.119
527.000, 25.234
528.000, 24.450
529.000, 23.667
530.000, 23.592
531.000, 23.715
532.000, 23.582
533.000, 23.256
534.000, 23.094
535.000, 23.223
536.000, 23.487
537.000, 24.525
538.000, 25.564
539.000, 25.334
540.000, 25.019
541.000, 24.705
542.000, 24.392
543.000, 24.081
544.000, 23.771
545.000, 23.463
546.000, 23.156
547.000, 22.705
548.000, 21.039
549.000, 19.375
550.000, 17.710
551.000, 16.047
552.000, 14.703
553.000, 13.496
554.000, 12.517
555.000, 11.768
556.000, 10.750
557.000, 9.094
558.000, 7.483
559.000, 6.282
560.000, 5.083
561.000, 4.293
562.000, 3.551
563.000, 3.766
564.000, 4.391
565.000, 4.328
566.000, 3.589
567.000, 3.132
568.000, 3.306
569.000, 3.586
570.000, 4.674
571.000, 5.762
572.000, 6.853
573.000, 7.944
574.000, 9.704
575.000, 11.710
576.000, 11.744
577.000, 10.099
578.000, 8.455
579.000, 6.811
580.000, 5.392
581.000, 5.121
582.000, 4.851
583.000, 3.689
584.000, 2.505
585.000, 1.322
586.000, 0.139
587.000, 0.487
588.000, 0.753
589.000, 1.404
590.000, 2.585
591.000, 3.327
592.000, 2.676
593.000, 2.106
594.000, 2.831
595.000, 3.556
596.000, 3.476
597.000, 3.286
598.000, 3.096
599.000, 2.908
600.000, 2.719
601.000, 2.532
602.000, 2.345
603.000, 2.158
604.000, 1.893
605.000, 1.246
606.000, 0.600
607.000, 1.329
608.000, 2.063
609.000, 2.039
610.000, 1.852
611.000, 1.366
612.000, 0.720
613.000, 0.517
614.000, 0.792
615.000, 1.066
616.000, 1.341
617.000, 1.484
618.000, 0.837
619.000, 0.190
620.000, 0.444
621.000, 0.719
622.000, 0.247
623.000, 0.401
624.000, 1.347
625.000, 2.459
626.000, 3.793
627.000, 5.369
628.000, 6.502
629.000, 6.691
630.000, 7.316
631.000, 10.284
632.000, 13.252
633.000, 17.145
634.000, 21.041
635.000, 26.492
636.000, 32.245
637.000, 41.152
638.000, 51.543
639.000, 63.639
640.000, 77.289
641.000, 89.744
642.000, 100.146
643.000, 108.275
644.000, 108.005
645.000, 107.178
646.000, 97.618
647.000, 88.060
648.000, 78.914
649.000, 69.812
650.000, 63.517
651.000, 58.129
652.000, 55.566
653.000, 54.831
654.000, 53.671
655.000, 52.005
656.000, 51.351
657.000, 52.951
658.000, 54.429
659.000, 55.169
660.000, 55.958
661.000, 58.592
662.000, 61.212
663.000, 63.005
664.000, 64.669
665.000, 65.638
666.000, 66.343
667.000, 67.036
668.000, 67.706
669.000, 67.954
670.000, 67.686
671.000, 67.274
672.000, 66.538
673.000, 65.883
674.000, 65.615
675.000, 65.299
676.000, 63.627
677.000, 61.955
678.000, 60.282
679.000, 58.609
680.000, 57.291
681.000, 56.085
682.000, 55.174
683.000, 54.436
684.000, 53.931
685.000, 53.662
686.000, 54.078
687.000, 55.686
688.000, 57.295
689.000, 58.904
690.000, 60.662
691.000, 63.682
692.000, 66.702
693.000, 71.560
694.000, 76.462
695.000, 80.955
696.000, 85.370
697.000, 89.759
698.000, 94.089
699.000, 98.378
700.000, 102.703
701.000, 105.485
702.000, 106.500
703.000, 106.803
704.000, 105.890
705.000, 103.891
706.000, 98.278
707.000, 92.516
708.000, 85.502
709.000, 78.497
710.000, 70.087
711.000, 61.675
712.000, 54.930
713.000, 48.452
714.000, 43.435
715.000, 38.835
716.000, 34.497
717.000, 30.328
718.000, 26.915
719.000, 24.195
720.000, 21.507
721.000, 18.826
722.000, 16.561
723.000, 15.270
724.000, 14.053
725.000, 13.208
726.000, 12.318
727.000, 10.590
728.000, 8.847
729.000, 8.477
730.000, 8.165
731.000, 7.470
732.000, 6.722
733.000, 6.696
734.000, 6.897
735.000, 7.099
736.000, 7.300
737.000, 7.239
738.000, 6.965
739.000, 6.904
740.000, 7.105
741.000, 7.967
742.000, 10.073
743.000, 11.827
744.000, 12.504
745.000, 13.252
746.000, 14.406
747.000, 15.515
748.000, 15.717
749.000, 15.918
750.000, 14.305
751.000, 12.598
752.000, 12.523
753.000, 12.725
754.000, 11.487
755.000, 9.778
756.000, 8.387
757.000, 7.155
758.000, 5.923
759.000, 4.689
760.000, 3.687
761.000, 2.932
762.000, 2.176
763.000, 1.421
764.000, 0.664
765.000, 0.092
766.000, 0.746
767.000, 1.019
768.000, 1.203
769.000, 0.981
770.000, 0.770
771.000, 0.565
772.000, 0.364
773.000, 0.152
774.000, 0.078
775.000, 0.713
776.000, 1.397
777.000, 1.340
778.000, 1.099
779.000, 1.500
780.000, 2.175
781.000, 2.549
782.000, 2.744
783.000, 2.939
784.000, 3.135
785.000, 3.559
786.000, 4.244
787.000, 4.735
788.000, 4.932
789.000, 4.975
790.000, 4.688
791.000, 4.643
792.000, 5.368
793.000, 5.974
794.000, 6.172
795.000, 6.275
796.000, 5.513
797.000, 4.801
798.000, 5.966
799.000, 7.143
800.000, 6.983
801.000, 6.729
802.000, 6.448
803.000, 6.170
804.000, 6.298
805.000, 6.509
806.000, 7.082
807.000, 7.771
808.000, 7.123
809.000, 5.872
810.000, 5.830
811.000, 6.518
812.000, 6.395
813.000, 5.627
814.000, 5.100
815.000, 4.816
816.000, 4.960
817.000, 5.651
818.000, 6.158
819.000, 6.361
820.000, 6.409
821.000, 6.127
822.000, 5.845
823.000, 5.563
824.000, 5.383
825.000, 5.589
826.000, 5.723
827.000, 5.442
828.000, 5.207
829.000, 5.415
830.000, 5.587
831.000, 4.824
832.000, 4.057
833.000, 4.254
834.000, 4.461
835.000, 4.211
836.000, 3.932
837.000, 3.654
838.000, 3.374
839.000, 3.506
840.000, 3.718
841.000, 3.540
842.000, 3.262
843.000, 3.347
844.000, 3.555
845.000, 3.762
846.000, 3.968
847.000, 3.209
848.000, 1.949
849.000, 1.893
850.000, 2.589
851.000, 2.724
852.000, 2.439
853.000, 2.155
854.000, 1.873
855.000, 1.833
856.000, 2.046
857.000, 2.254
858.000, 2.458
859.000, 2.052
860.000, 0.798
861.000, 0.280
862.000, 0.977
863.000, 1.335
864.000, 1.052
865.000, 1.070
866.000, 1.764
867.000, 2.187
868.000, 1.909
869.000, 1.628
870.000, 1.347
871.000, 1.178
872.000, 1.390
873.000, 1.373
874.000, 0.511
875.000, 0.209
876.000, 0.103
877.000, 0.014
878.000, 0.141
879.000, 0.227
880.000, 0.116
881.000, 0.402
882.000, 0.209
883.000, 0.005
884.000, 0.246
885.000, 0.500
886.000, 0.198
887.000, 0.901
888.000, 1.123
889.000, 1.337
890.000, 1.048
891.000, 0.748
892.000, 0.447
893.000, 0.149
894.000, 0.328
895.000, 0.544
896.000, 0.764
897.000, 0.976
898.000, 0.291
899.000, 0.447
900.000, 0.163
901.000, 0.908
902.000, 0.760
903.000, 0.494
904.000, 0.657
905.000, 0.872
906.000, 0.205
907.000, 0.602
908.000, 0.132
909.000, 0.560
910.000, 0.401
911.000, 0.086
912.000, 0.185
913.000, 0.361
914.000, 0.537
915.000, 0.712
916.000, 0.891
917.000, 1.086
918.000, 0.867
919.000, 0.554
920.000, 1.456
921.000, 2.632
922.000, 2.183
923.000, 1.360
924.000, 1.349
925.000, 1.526
926.000, 2.105
927.000, 2.777
928.000, 2.639
929.000, 2.313
930.000, 1.985
931.000, 1.656
932.000, 1.735
933.000, 1.903
934.000, 2.068
935.000, 2.237
936.000, 1.587
937.000, 0.755
938.000, 1.168
939.000, 1.833
940.000, 2.077
941.000, 2.241
942.000, 1.981
943.000, 1.640
944.000, 1.728
945.000, 1.887
946.000, 1.609
947.000, 1.265
948.000, 1.362
949.000, 1.519
950.000, 1.675
951.000, 1.830
952.000, 1.985
953.000, 2.140
954.000, 1.830
955.000, 1.479
956.000, 1.599
957.000, 1.752
958.000, 1.904
959.000, 2.054
960.000, 1.714
961.000, 1.359
962.000, 1.002
963.000, 0.658
964.000, 1.311
965.000, 1.912
966.000, 1.047
967.000, 0.267
968.000, 0.917
969.000, 1.475
970.000, 1.112
971.000, 0.855
972.000, 1.504
973.000, 1.954
974.000, 1.081
975.000, 0.368
976.000, 0.508
977.000, 0.553
978.000, 0.184
979.000, 0.143
980.000, 1.296
981.000, 1.946
982.000, 1.060
983.000, 0.429
984.000, 0.541
985.000, 0.663
986.000, 0.795
987.000, 0.750
988.000, 0.358
989.000, 0.051
990.000, 0.449
991.000, 0.411
992.000, 0.206
993.000, 0.340
994.000, 0.045
995.000, 0.176
996.000, 0.047
997.000, 0.351
998.000, 0.988
999.000, 1.041
1000.000, 0.653
1001.000, 0.259
1002.000, 0.132
1003.000, 0.187
1004.000, 0.066
1005.000, 0.303
1006.000, 0.701
1007.000, 0.759
1008.000, 0.652
1009.000, 0.537
1010.000, 0.425
1011.000, 0.316
1012.000, 0.207
1013.000, 0.356
1014.000, 0.967
1015.000, 0.567
1016.000, 0.133
1017.000, 0.734
1018.000, 1.347
1019.000, 1.951
1020.000, 2.557
1021.000, 3.168
1022.000, 3.415
1023.000, 1.462
1024.000, 0.086
1025.000, 0.017
1026.000, 0.248
1027.000, 0.860
1028.000, 1.318
1029.000, 1.422
1030.000, 1.336
1031.000, 0.922
1032.000, 0.946
1033.000, 1.562
1034.000, 1.677
1035.000, 1.263
1036.000, 1.131
1037.000, 1.232
1038.000, 1.331
1039.000, 1.428
1040.000, 1.874
1041.000, 2.488
1042.000, 1.573
1043.000, 0.120
1044.000, 0.745
1045.000, 1.868
1046.000, 2.092
1047.000, 2.185
1048.000, 1.793
1049.000, 1.379
1050.000, 1.990
1051.000, 2.558
1052.000, 2.649
1053.000, 2.662
1054.000, 2.232
1055.000, 2.032
1056.000, 2.638
1057.000, 3.091
1058.000, 3.178
1059.000, 3.074
1060.000, 2.642
1061.000, 2.675
1062.000, 3.281
1063.000, 3.070
1064.000, 2.114
1065.000, 2.096
1066.000, 2.702
1067.000, 2.600
1068.000, 2.163
1069.000, 2.515
1070.000, 3.115
1071.000, 3.273
1072.000, 3.353
1073.000, 2.954
1074.000, 2.517
1075.000, 3.105
1076.000, 3.609
1077.000, 3.166
1078.000, 2.812
1079.000, 2.886
1080.000, 2.827
1081.000, 2.384
1082.000, 2.302
1083.000, 2.890
1084.000, 3.023
1085.000, 2.567
1086.000, 2.657
1087.000, 3.241
1088.000, 3.189
1089.000, 2.742
1090.000, 2.662
1091.000, 2.727
1092.000, 1.950
1093.000, 0.968
1094.000, 1.873
1095.000, 2.992
1096.000, 3.062
1097.000, 3.017
1098.000, 1.989
1099.000, 1.259
1100.000, 1.845
1101.000, 2.434
1102.000, 3.013
1103.000, 2.974
1104.000, 1.972
1105.000, 1.749
1106.000, 2.344
1107.000, 2.630
1108.000, 2.696
1109.000, 2.392
1110.000, 1.909
1111.000, 1.840
1112.000, 1.889
1113.000, 1.921
1114.000, 1.928
1115.000, 2.457
1116.000, 2.876
1117.000, 2.363
1118.000, 1.976
1119.000, 2.008
1120.000, 2.222
1121.000, 2.811
1122.000, 3.172
1123.000, 3.236
1124.000, 2.708
1125.000, 1.713
1126.000, 1.425
1127.000, 1.497
1128.000, 1.987
1129.000, 2.618
1130.000, 2.766
1131.000, 2.834
1132.000, 2.885
1133.000, 2.940
1134.000, 2.999
1135.000, 3.064
1136.000, 3.133
1137.000, 3.019
1138.000, 2.554
1139.000, 2.344
1140.000, 2.437
1141.000, 2.210
1142.000, 1.744
1143.000, 2.051
1144.000, 2.648
1145.000, 2.340
1146.000, 1.871
1147.000, 2.443
1148.000, 2.992
1149.000, 3.062
1150.000, 3.128
1151.000, 3.184
1152.000, 3.056
1153.000, 2.588
1154.000, 2.380
1155.000, 2.449
1156.000, 3.178
1157.000, 4.363
1158.000, 3.517
1159.000, 1.981
1160.000, 2.321
1161.000, 2.920
1162.000, 3.005
1163.000, 3.150
1164.000, 3.755
1165.000, 4.059
1166.000, 3.590
1167.000, 3.570
1168.000, 4.184
1169.000, 4.201
1170.000, 3.732
1171.000, 3.634
1172.000, 3.701
1173.000, 3.768
1174.000, 3.837
1175.000, 3.417
1176.000, 3.071
1177.000, 3.678
1178.000, 4.021
1179.000, 3.555
1180.000, 3.299
1181.000, 3.366
1182.000, 3.727
1183.000, 4.333
1184.000, 3.819
1185.000, 2.808
1186.000, 3.155
1187.000, 3.762
1188.000, 3.302
1189.000, 2.902
1190.000, 2.969
1191.000, 3.035
1192.000, 3.102
1193.000, 3.406
1194.000, 4.014
1195.000, 3.982
1196.000, 3.506
1197.000, 3.031
1198.000, 2.556
1199.000, 3.056
1200.000, 3.575
1201.000, 2.552
1202.000, 1.879
1203.000, 2.488
1204.000, 2.696
1205.000, 2.220
1206.000, 2.035
1207.000, 2.130
1208.000, 2.574
1209.000, 3.185
1210.000, 3.335
1211.000, 3.389
1212.000, 2.367
1213.000, 1.538
1214.000, 1.605
1215.000, 1.673
1216.000, 1.743
1217.000, 1.535
1218.000, 1.057
1219.000, 1.680
1220.000, 2.840
1221.000, 2.167
1222.000, 1.157
1223.000, 1.773
1224.000, 2.194
1225.000, 1.717
1226.000, 1.622
1227.000, 2.239
1228.000, 2.286
1229.000, 1.809
1230.000, 1.712
1231.000, 1.783
1232.000, 1.378
1233.000, 0.901
1234.000, 0.423
1235.000, 0.054
1236.000, 0.532
1237.000, 0.358
1238.000, 0.810
1239.000, 1.663
1240.000, 2.283
1241.000, 1.660
1242.000, 0.631
1243.000, 0.116
1244.000, 0.237
1245.000, 0.384
1246.000, 0.512
1247.000, 0.519
1248.000, 0.488
1249.000, 0.684
1250.000, 1.121
1251.000, 1.191
1252.000, 1.261
1253.000, 1.310
1254.000, 0.828
1255.000, 0.472
1256.000, 0.542
1257.000, 0.612
1258.000, 0.682
1259.000, 0.753
1260.000, 0.823
1261.000, 0.893
1262.000, 0.963
1263.000, 0.062
1264.000, 0.795
1265.000, 0.171
1266.000, 0.452
1267.000, 1.076
1268.000, 0.748
1269.000, 0.292
1270.000, 0.374
1271.000, 1.553
1272.000, 1.123
1273.000, 0.637
1274.000, 0.151
1275.000, 0.133
1276.000, 0.063
1277.000, 0.320
1278.000, 0.945
1279.000, 1.143
1280.000, 1.212
1281.000, 0.202
1282.000, 0.553
1283.000, 0.072
1284.000, 0.277
1285.000, 0.212
1286.000, 0.050
1287.000, 0.575
1288.000, 1.202
1289.000, 1.828
1290.000, 1.338
1291.000, 0.848
1292.000, 0.357
1293.000, 0.335
1294.000, 0.962
1295.000, 1.238
1296.000, 1.306
1297.000, 1.374
1298.000, 1.442
1299.000, 1.511
1300.000, 1.579
1301.000, 1.647
1302.000, 1.442
1303.000, 0.950
1304.000, 0.851
1305.000, 0.919
1306.000, 0.988
1307.000, 1.056
1308.000, 1.124
1309.000, 1.192
1310.000, 1.260
1311.000, 1.002
1312.000, 0.508
1313.000, 0.026
1314.000, 0.427
1315.000, 0.206
1316.000, 0.697
1317.000, 0.765
1318.000, 1.101
1319.000, 1.737
1320.000, 1.974
1321.000, 2.044
1322.000, 1.070
1323.000, 0.366
1324.000, 1.567
1325.000, 2.115
1326.000, 1.619
1327.000, 1.122
1328.000, 0.624
1329.000, 1.086
1330.000, 1.674
1331.000, 1.742
1332.000, 1.820
1333.000, 1.889
1334.000, 1.957
1335.000, 2.041
1336.000, 2.596
1337.000, 3.199
1338.000, 2.131
1339.000, 1.357
1340.000, 1.425
1341.000, 1.493
1342.000, 1.585
1343.000, 1.652
1344.000, 1.691
1345.000, 2.296
1346.000, 2.810
1347.000, 2.880
1348.000, 2.949
1349.000, 3.018
1350.000, 3.086
1351.000, 3.152
1352.000, 3.752
1353.000, 4.057
1354.000, 2.990
1355.000, 2.651
1356.000, 3.262
1357.000, 2.724
1358.000, 1.665
1359.000, 2.207
1360.000, 2.625
1361.000, 2.123
1362.000, 1.876
1363.000, 1.943
1364.000, 2.409
1365.000, 3.048
1366.000, 2.598
1367.000, 2.444
1368.000, 3.656
1369.000, 4.075
1370.000, 3.567
1371.000, 3.464
1372.000, 3.479
1373.000, 2.972
1374.000, 2.461
1375.000, 1.951
1376.000, 1.440
1377.000, 0.910
1378.000, 1.700
1379.000, 2.883
1380.000, 2.369
1381.000, 2.017
1382.000, 2.076
1383.000, 2.128
1384.000, 2.182
1385.000, 2.241
1386.000, 2.321
1387.000, 2.381
1388.000, 2.442
1389.000, 2.500
1390.000, 2.168
1391.000, 1.644
1392.000, 1.628
1393.000, 1.581
1394.000, 1.064
1395.000, 1.044
1396.000, 1.691
1397.000, 1.934
1398.000, 2.002
1399.000, 1.510
1400.000, 1.281
1401.000, 1.930
1402.000, 2.277
1403.000, 2.346
1404.000, 1.952
1405.000, 1.525
1406.000, 2.175
1407.000, 2.206
1408.000, 1.074
1409.000, 1.081
1410.000, 1.731
1411.000, 1.318
1412.000, 0.915
1413.000, 0.982
1414.000, 1.328
1415.000, 1.978
1416.000, 1.740
1417.000, 1.251
1418.000, 1.318
1419.000, 0.995
1420.000, 0.106
1421.000, 0.121
1422.000, 0.528
1423.000, 1.710
1424.000, 2.367
1425.000, 0.679
1426.000, 0.132
1427.000, 0.784
1428.000, 0.523
1429.000, 0.046
1430.000, 0.112
1431.000, 0.178
1432.000, 0.244
1433.000, 0.696
1434.000, 1.349
1435.000, 0.881
1436.000, 0.803
1437.000, 2.044
1438.000, 1.673
1439.000, 0.024
1440.000, 0.773
1441.000, 1.584
1442.000, 0.114
1443.000, 0.493
1444.000, 0.753
1445.000, 1.116
1446.000, 1.186
1447.000, 1.256
1448.000, 0.906
1449.000, 0.203
1450.000, 0.249
1451.000, 1.501
1452.000, 1.039
1453.000, 0.681
1454.000, 0.753
1455.000, 0.825
1456.000, 0.897
1457.000, 1.497
1458.000, 1.803
1459.000, 0.692
1460.000, 0.188
1461.000, 0.190
1462.000, 0.747
1463.000, 1.163
1464.000, 0.036
1465.000, 0.026
1466.000, 1.207
1467.000, 1.084
1468.000, 0.610
1469.000, 0.679
1470.000, 0.955
1471.000, 1.617
1472.000, 1.628
1473.000, 1.686
1474.000, 1.747
1475.000, 1.488
1476.000, 0.927
1477.000, 1.187
1478.000, 1.815
1479.000, 1.262
1480.000, 1.089
1481.000, 1.654
1482.000, 2.279
1483.000, 2.739
1484.000, 2.187
1485.000, 1.569
1486.000, 0.971
1487.000, 1.145
1488.000, 1.756
1489.000, 1.213
1490.000, 0.969
1491.000, 1.571
1492.000, 1.062
1493.000, 0.115
1494.000, 0.999
1495.000, 2.058
1496.000, 2.699
1497.000, 2.391
1498.000, 2.227
1499.000, 0.829
1500.000, 0.000
##END=



