##NAMES=Corundum
##RRUFFID=X050045
##IDEAL CHEMISTRY=Al_2_O_3_
##LOCALITY=Queenland, Australia
##OWNER=Caltech
##SOURCE=G.R. Rossman
##DESCRIPTION=
##STATUS=The identification of this mineral has been determined only by Raman spectroscopy
##URL=rruff.info/X050045
199.600, 0.000
202.100, 61.686
204.600, 2.285
207.100, 93.256
209.700, 44.435
212.200, 89.822
214.700, 134.509
217.200, 176.156
219.800, 327.971
222.300, 346.662
224.800, 417.325
227.400, 560.950
229.900, 639.104
232.400, 683.129
234.900, 819.072
237.500, 998.219
240.000, 1151.728
242.500, 1323.808
245.000, 1446.431
247.600, 1598.084
250.100, 1659.695
252.600, 1840.110
255.100, 1745.555
257.700, 1654.375
260.200, 1597.219
262.700, 1558.700
265.200, 1447.834
267.800, 1370.833
270.300, 1341.715
272.800, 1246.068
275.300, 1129.717
277.900, 1018.529
280.400, 941.080
282.900, 883.119
285.400, 777.730
288.000, 623.419
290.500, 474.023
293.000, 356.678
295.500, 208.498
298.100, 169.009
300.600, 61.898
303.100, 14.899
305.600, 0.542
308.200, 12.099
310.700, 6.588
313.200, 47.146
315.700, 24.926
318.300, 21.556
320.800, 7.417
323.300, 31.172
325.800, 13.910
328.400, 12.538
330.900, 33.768
333.400, 68.940
335.900, 107.207
338.500, 110.909
341.000, 71.059
343.500, 79.892
346.000, 155.448
348.600, 177.212
351.100, 251.696
353.600, 302.972
356.200, 320.795
358.700, 542.229
361.200, 684.034
363.700, 825.701
366.300, 1064.899
368.800, 1390.203
371.300, 2022.211
373.800, 3211.211
376.400, 4755.463
378.900, 6452.702
381.400, 7654.691
383.900, 7172.216
386.500, 5458.131
389.000, 3991.807
391.500, 2689.153
394.000, 2123.747
396.600, 1980.550
399.100, 2140.663
401.600, 2159.791
404.100, 2424.624
406.700, 2808.862
409.200, 3877.983
411.700, 6896.293
414.200, 11041.740
416.800, 15392.749
419.300, 18611.332
421.800, 17204.008
424.300, 13209.994
426.900, 9163.453
429.400, 5979.669
431.900, 4377.496
434.400, 3810.356
437.000, 3253.836
439.500, 2711.718
442.000, 2323.966
444.500, 2110.348
447.100, 2105.883
449.600, 2088.780
452.100, 2048.412
454.600, 1974.607
457.200, 1912.128
459.700, 1780.996
462.200, 1735.448
464.700, 1746.218
467.300, 1770.472
469.800, 1771.554
472.300, 1815.607
474.800, 1847.823
477.400, 1945.280
479.900, 1980.767
482.400, 2051.825
485.000, 2030.554
487.500, 2009.670
490.000, 1970.422
492.500, 1899.375
495.100, 1806.327
497.600, 1681.923
500.100, 1539.457
502.600, 1471.351
505.200, 1437.326
507.700, 1385.678
510.200, 1375.590
512.700, 1338.630
515.300, 1284.380
517.800, 1305.740
520.300, 1396.056
522.800, 1415.757
525.400, 1423.057
527.900, 1491.571
530.400, 1552.350
532.900, 1589.709
535.500, 1535.123
538.000, 1555.033
540.500, 1588.242
543.000, 1556.520
545.600, 1445.201
548.100, 1378.789
550.600, 1315.978
553.100, 1302.445
555.700, 1266.804
558.200, 1230.580
560.700, 1100.915
563.200, 1057.628
565.800, 1000.329
568.300, 1009.816
570.800, 1098.785
573.300, 1345.697
575.900, 1587.399
578.400, 1762.020
580.900, 1656.537
583.400, 1359.728
586.000, 1072.729
588.500, 821.922
591.000, 641.820
593.500, 544.626
596.100, 494.050
598.600, 484.907
601.100, 501.102
603.600, 547.611
606.200, 659.339
608.700, 639.018
611.200, 577.488
613.800, 646.389
616.300, 713.308
618.800, 722.205
621.300, 752.974
623.900, 870.248
626.400, 909.854
628.900, 961.456
631.400, 1174.870
634.000, 1410.338
636.500, 1922.693
639.000, 2668.193
641.500, 3579.891
644.100, 4668.270
646.600, 5307.711
649.100, 5149.658
651.600, 4359.150
654.200, 3432.211
656.700, 2654.342
659.200, 2191.516
661.700, 1939.851
664.300, 1827.449
666.800, 1717.052
669.300, 1773.532
671.800, 1740.553
674.400, 1714.901
676.900, 1681.637
679.400, 1649.562
681.900, 1465.718
684.500, 1242.107
687.000, 1203.630
689.500, 1169.811
692.000, 1089.831
694.600, 1061.496
697.100, 1050.905
699.600, 1059.679
702.100, 1055.942
704.700, 1078.853
707.200, 1147.390
709.700, 1213.015
712.200, 1112.640
714.800, 936.996
717.300, 803.326
719.800, 610.877
722.300, 560.898
724.900, 566.115
727.400, 625.996
729.900, 700.680
732.400, 839.524
735.000, 1074.388
737.500, 1330.308
740.000, 1780.746
742.600, 2396.668
745.100, 3080.060
747.600, 3831.220
750.100, 4518.959
752.700, 4802.143
755.200, 4684.424
757.700, 4337.337
760.200, 3784.249
762.800, 3203.505
765.300, 2729.651
767.800, 2420.038
770.300, 2184.960
772.900, 2080.160
775.400, 2090.866
777.900, 2075.710
780.400, 2009.221
783.000, 1990.111
785.500, 2003.121
788.000, 2082.788
790.500, 2125.966
793.100, 2252.977
795.600, 2356.501
798.100, 2383.810
800.600, 2604.506
803.200, 2920.357
805.700, 3265.286
808.200, 3564.742
810.700, 3860.770
813.300, 4053.363
815.800, 4090.233
818.300, 3954.084
820.800, 3542.864
823.400, 3019.101
825.900, 2662.266
828.400, 2387.056
830.900, 2208.133
833.500, 2078.588
836.000, 2093.778
838.500, 2189.807
841.000, 2343.316
843.600, 2606.052
846.100, 2956.590
848.600, 3257.284
851.100, 3439.319
853.700, 3559.452
856.200, 3438.358
858.700, 3078.113
861.300, 2586.458
863.800, 2076.175
866.300, 1674.010
868.800, 1362.667
871.400, 1055.542
873.900, 925.029
876.400, 787.518
878.900, 629.792
881.500, 542.860
884.000, 492.369
886.500, 427.768
889.000, 313.393
891.600, 281.820
894.100, 273.819
896.600, 182.314
899.100, 97.248
901.700, 118.462
904.200, 82.921
906.700, 65.252
909.200, 12.488
911.800, 47.715
914.300, 40.229
916.800, 3.568
919.300, 10.735
921.900, 8.478
924.400, 28.614
926.900, 95.453
929.400, 77.971
932.000, 12.330
934.500, 7.355
937.000, 0.462
939.500, 8.294
942.100, 16.140
944.600, 24.000
947.100, 31.874
949.600, 39.758
952.200, 47.654
954.700, 55.559
957.200, 63.472
959.700, 18.281
962.300, 64.898
964.800, 136.263
967.300, 34.341
969.800, 96.152
972.400, 99.458
974.900, 164.961
977.400, 122.181
979.900, 91.295
982.500, 157.388
985.000, 223.980
987.500, 119.935
990.100, 101.678
992.600, 78.353
995.100, 49.514
997.600, 86.669
1000.200, 43.003
1002.700, 40.101
1005.200, 81.612
1007.700, 1.129
1010.300, 83.084
1012.800, 16.125
1015.300, 6.993
1017.800, 6.465
1020.400, 19.564
1022.900, 0.751
1025.400, 26.038
1027.900, 17.586
1030.500, 40.501
1033.000, 5.724
1035.500, 5.175
1038.000, 88.087
1040.600, 78.813
1043.100, 17.811
1045.600, 48.957
1048.100, 64.552
1050.700, 16.408
1053.200, 50.234
1055.700, 62.606
1058.200, 50.589
1060.800, 48.992
1063.300, 9.232
1065.800, 60.151
1068.300, 38.366
1070.900, 22.915
1073.400, 56.602
1075.900, 25.230
1078.400, 20.875
1081.000, 59.571
1083.500, 20.093
1086.000, 70.990
1088.500, 6.825
1091.100, 38.192
1093.600, 22.291
1096.100, 51.664
1098.600, 6.111
1101.200, 62.587
1103.700, 6.357
1106.200, 28.999
1108.700, 33.990
1111.300, 9.042
1113.800, 9.852
1116.300, 53.058
1118.900, 62.044
1121.400, 6.742
1123.900, 16.266
1126.400, 59.306
1129.000, 27.752
1131.500, 10.560
1134.000, 1.703
1136.500, 14.908
1139.100, 60.046
1141.600, 65.901
1144.100, 19.986
1146.600, 39.611
1149.200, 2.812
1151.700, 9.878
1154.200, 24.427
1156.700, 24.677
1159.300, 107.560
1161.800, 95.500
1164.300, 122.471
1166.800, 92.119
1169.400, 143.848
1171.900, 158.735
1174.400, 121.337
1176.900, 108.731
1179.500, 132.332
1182.000, 40.299
1184.500, 85.708
1187.000, 116.393
1189.600, 136.477
1192.100, 162.139
1194.600, 125.843
1197.100, 149.718
1199.700, 151.927
1202.200, 171.619
1204.700, 227.746
1207.200, 144.618
1209.800, 184.458
1212.300, 173.801
1214.800, 120.594
1217.300, 132.200
1219.900, 87.342
1222.400, 213.280
1224.900, 160.072
1227.400, 195.871
1230.000, 89.093
1232.500, 127.131
1235.000, 142.853
1237.500, 202.963
1240.100, 165.767
1242.600, 116.875
1245.100, 119.295
1247.700, 142.449
1250.200, 144.055
1252.700, 146.606
1255.200, 108.923
1257.800, 88.021
1260.300, 62.258
1262.800, 137.059
1265.300, 46.187
1267.900, 45.514
1270.400, 105.281
1272.900, 37.019
1275.400, 60.648
1278.000, 70.954
1280.500, 84.197
1283.000, 60.654
1285.500, 125.885
1288.100, 104.887
1290.600, 149.520
1293.100, 99.449
1295.600, 122.845
1298.200, 79.873
1300.700, 101.600
1303.200, 114.170
1305.700, 105.145
1308.300, 157.199
1310.800, 159.883
1313.300, 140.404
1315.800, 165.532
1318.400, 214.025
1320.900, 110.348
1323.400, 166.469
1325.900, 206.450
1328.500, 181.588
1331.000, 205.136
1333.500, 233.855
1336.000, 201.007
1338.600, 255.832
1341.100, 325.405
1343.600, 342.417
1346.100, 280.753
1348.700, 364.025
1351.200, 395.625
1353.700, 387.650
1356.200, 429.879
1358.800, 410.782
1361.300, 379.805
1363.800, 301.971
1366.300, 419.965
1368.900, 355.503
1371.400, 263.268
1373.900, 295.893
1376.500, 239.702
1379.000, 272.867
1381.500, 339.061
1384.000, 297.253
1386.600, 261.963
1389.100, 162.190
1391.600, 226.726
1394.100, 161.067
1396.700, 136.744
1399.200, 121.906
1401.700, 137.695
1404.200, 146.769
1406.800, 125.309
1409.300, 65.778
1411.800, 95.904
1414.300, 122.601
1416.900, 119.205
1419.400, 66.410
1421.900, 88.005
1424.400, 76.831
1427.000, 72.631
1429.500, 55.758
1432.000, 11.479
1434.500, 72.805
1437.100, 14.220
1439.600, 45.780
1442.100, 6.225
1444.600, 12.652
1447.200, 30.434
1449.700, 18.127
1452.200, 23.133
1454.700, 33.440
1457.300, 27.283
1459.800, 16.802
1462.300, 36.721
1464.800, 56.931
1467.400, 10.856
1469.900, 19.591
1472.400, 72.511
1474.900, 5.389
1477.500, 11.564
1480.000, 103.408
1482.500, 28.616
1485.000, 41.338
1487.600, 89.987
1490.100, 40.601
1492.600, 21.099
1495.100, 67.871
1497.700, 22.542
1500.200, 0.000
##END=



