##NAMES=Dondoellite
##RRUFFID=R140175
##IDEAL CHEMISTRY=Ca_2_Fe^2+^(PO_4_)_2_&#183;2H_2_O
##LOCALITY=Messel mine, Messel, Darmstadt, Hesse, Germany
##OWNER=RRUFF
##SOURCE=Rock Currier
##DESCRIPTION=Pale greenish white hemispherical or sheaflike aggregates of lamellar crystals, associated with anapaite (R141081). The cell parameters do not match messelite, but may be a related phase, perhaps a polytype. Needs more work.
##STATUS=The identification of this mineral is confirmed by single-crystal X-ray diffraction and chemical analysis.
##URL=rruff.info/R140175
##MEASURED CHEMISTRY=Ca_1.98_(Fe_0.88_Mg_0.09_)(P_1.01_O_4_)_2_·2H_2_O ; trace amount of Mn
8.758203e+001, 6.675177e+003
8.806415e+001, 6.514765e+003
8.854626e+001, 6.486566e+003
8.902838e+001, 6.639120e+003
8.951050e+001, 6.841491e+003
8.999261e+001, 7.054941e+003
9.047473e+001, 7.273931e+003
9.095685e+001, 7.493849e+003
9.143896e+001, 7.712050e+003
9.192108e+001, 7.928526e+003
9.240320e+001, 8.136931e+003
9.288531e+001, 8.230617e+003
9.336743e+001, 8.166624e+003
9.384955e+001, 8.000276e+003
9.433167e+001, 7.857168e+003
9.481378e+001, 7.704128e+003
9.529590e+001, 7.575470e+003
9.577802e+001, 7.469331e+003
9.626013e+001, 7.371320e+003
9.674225e+001, 7.267633e+003
9.722437e+001, 7.157987e+003
9.770648e+001, 7.065422e+003
9.818860e+001, 6.999353e+003
9.867072e+001, 6.942102e+003
9.915283e+001, 6.884603e+003
9.963495e+001, 6.825287e+003
1.001171e+002, 6.767466e+003
1.005992e+002, 6.716073e+003
1.010813e+002, 6.671116e+003
1.015634e+002, 6.629345e+003
1.020455e+002, 6.588460e+003
1.025277e+002, 6.547123e+003
1.030098e+002, 6.502052e+003
1.034919e+002, 6.451843e+003
1.039740e+002, 6.400333e+003
1.044561e+002, 6.361368e+003
1.049382e+002, 6.348317e+003
1.054204e+002, 6.331584e+003
1.059025e+002, 6.304646e+003
1.063846e+002, 6.271607e+003
1.068667e+002, 6.239497e+003
1.073488e+002, 6.211978e+003
1.078309e+002, 6.189206e+003
1.083131e+002, 6.171320e+003
1.087952e+002, 6.161428e+003
1.092773e+002, 6.152540e+003
1.097594e+002, 6.140485e+003
1.102415e+002, 6.125194e+003
1.107236e+002, 6.109743e+003
1.112058e+002, 6.097107e+003
1.116879e+002, 6.086219e+003
1.121700e+002, 6.073724e+003
1.126521e+002, 6.058253e+003
1.131342e+002, 6.041038e+003
1.136163e+002, 6.023702e+003
1.140985e+002, 6.005656e+003
1.145806e+002, 5.989244e+003
1.150627e+002, 5.976802e+003
1.155448e+002, 5.967120e+003
1.160269e+002, 5.957172e+003
1.165090e+002, 5.943659e+003
1.169912e+002, 5.926745e+003
1.174733e+002, 5.914177e+003
1.179554e+002, 5.910452e+003
1.184375e+002, 5.907782e+003
1.189196e+002, 5.903902e+003
1.194017e+002, 5.898294e+003
1.198839e+002, 5.890903e+003
1.203660e+002, 5.881240e+003
1.208481e+002, 5.867876e+003
1.213302e+002, 5.855366e+003
1.218123e+002, 5.843402e+003
1.222944e+002, 5.832014e+003
1.227766e+002, 5.820728e+003
1.232587e+002, 5.809525e+003
1.237408e+002, 5.799014e+003
1.242229e+002, 5.790495e+003
1.247050e+002, 5.784711e+003
1.251871e+002, 5.780087e+003
1.256693e+002, 5.780091e+003
1.261514e+002, 5.780319e+003
1.266335e+002, 5.774115e+003
1.271156e+002, 5.757784e+003
1.275977e+002, 5.735535e+003
1.280798e+002, 5.720075e+003
1.285620e+002, 5.713056e+003
1.290441e+002, 5.708009e+003
1.295262e+002, 5.704224e+003
1.300083e+002, 5.701021e+003
1.304904e+002, 5.695146e+003
1.309725e+002, 5.683613e+003
1.314547e+002, 5.668981e+003
1.319368e+002, 5.656811e+003
1.324189e+002, 5.647671e+003
1.329010e+002, 5.640780e+003
1.333831e+002, 5.635593e+003
1.338652e+002, 5.632239e+003
1.343474e+002, 5.630089e+003
1.348295e+002, 5.630577e+003
1.353116e+002, 5.631609e+003
1.357937e+002, 5.630787e+003
1.362758e+002, 5.626927e+003
1.367579e+002, 5.620810e+003
1.372401e+002, 5.614141e+003
1.377222e+002, 5.605321e+003
1.382043e+002, 5.598567e+003
1.386864e+002, 5.596538e+003
1.391685e+002, 5.596909e+003
1.396507e+002, 5.596363e+003
1.401328e+002, 5.592767e+003
1.406149e+002, 5.586142e+003
1.410970e+002, 5.577970e+003
1.415791e+002, 5.563325e+003
1.420612e+002, 5.551747e+003
1.425434e+002, 5.548158e+003
1.430255e+002, 5.550360e+003
1.435076e+002, 5.552272e+003
1.439897e+002, 5.547917e+003
1.444718e+002, 5.535359e+003
1.449539e+002, 5.527708e+003
1.454361e+002, 5.529233e+003
1.459182e+002, 5.531103e+003
1.464003e+002, 5.527697e+003
1.468824e+002, 5.518789e+003
1.473645e+002, 5.508669e+003
1.478466e+002, 5.502306e+003
1.483288e+002, 5.501092e+003
1.488109e+002, 5.499044e+003
1.492930e+002, 5.494747e+003
1.497751e+002, 5.490107e+003
1.502572e+002, 5.487527e+003
1.507393e+002, 5.487726e+003
1.512215e+002, 5.488607e+003
1.517036e+002, 5.486865e+003
1.521857e+002, 5.482633e+003
1.526678e+002, 5.478722e+003
1.531499e+002, 5.476421e+003
1.536320e+002, 5.475131e+003
1.541142e+002, 5.473323e+003
1.545963e+002, 5.470419e+003
1.550784e+002, 5.467253e+003
1.555605e+002, 5.464417e+003
1.560426e+002, 5.461920e+003
1.565247e+002, 5.460304e+003
1.570069e+002, 5.459960e+003
1.574890e+002, 5.460899e+003
1.579711e+002, 5.462875e+003
1.584532e+002, 5.465763e+003
1.589353e+002, 5.469966e+003
1.594174e+002, 5.476687e+003
1.598996e+002, 5.485976e+003
1.603817e+002, 5.494964e+003
1.608638e+002, 5.499935e+003
1.613459e+002, 5.499620e+003
1.618280e+002, 5.499416e+003
1.623102e+002, 5.501512e+003
1.627923e+002, 5.503058e+003
1.632744e+002, 5.503021e+003
1.637565e+002, 5.500884e+003
1.642386e+002, 5.495399e+003
1.647207e+002, 5.483317e+003
1.652029e+002, 5.457654e+003
1.656850e+002, 5.436764e+003
1.661671e+002, 5.422913e+003
1.666492e+002, 5.413370e+003
1.671313e+002, 5.405917e+003
1.676134e+002, 5.399660e+003
1.680956e+002, 5.394481e+003
1.685777e+002, 5.390070e+003
1.690598e+002, 5.389111e+003
1.695419e+002, 5.385813e+003
1.700240e+002, 5.376855e+003
1.705061e+002, 5.365897e+003
1.709883e+002, 5.358071e+003
1.714704e+002, 5.356059e+003
1.719525e+002, 5.358773e+003
1.724346e+002, 5.361876e+003
1.729167e+002, 5.364816e+003
1.733988e+002, 5.368683e+003
1.738810e+002, 5.374752e+003
1.743631e+002, 5.382157e+003
1.748452e+002, 5.388178e+003
1.753273e+002, 5.390371e+003
1.758094e+002, 5.390808e+003
1.762915e+002, 5.396345e+003
1.767737e+002, 5.410339e+003
1.772558e+002, 5.425274e+003
1.777379e+002, 5.437027e+003
1.782200e+002, 5.445698e+003
1.787021e+002, 5.452825e+003
1.791842e+002, 5.458472e+003
1.796664e+002, 5.463281e+003
1.801485e+002, 5.468795e+003
1.806306e+002, 5.476631e+003
1.811127e+002, 5.483587e+003
1.815948e+002, 5.486026e+003
1.820769e+002, 5.483556e+003
1.825591e+002, 5.478569e+003
1.830412e+002, 5.471034e+003
1.835233e+002, 5.461950e+003
1.840054e+002, 5.451886e+003
1.844875e+002, 5.440604e+003
1.849696e+002, 5.429011e+003
1.854518e+002, 5.419068e+003
1.859339e+002, 5.411673e+003
1.864160e+002, 5.403853e+003
1.868981e+002, 5.394770e+003
1.873802e+002, 5.384644e+003
1.878623e+002, 5.372825e+003
1.883445e+002, 5.357941e+003
1.888266e+002, 5.342523e+003
1.893087e+002, 5.336223e+003
1.897908e+002, 5.348690e+003
1.902729e+002, 5.356893e+003
1.907550e+002, 5.354051e+003
1.912372e+002, 5.344329e+003
1.917193e+002, 5.332954e+003
1.922014e+002, 5.322783e+003
1.926835e+002, 5.313854e+003
1.931656e+002, 5.306465e+003
1.936477e+002, 5.301815e+003
1.941299e+002, 5.297795e+003
1.946120e+002, 5.294339e+003
1.950941e+002, 5.291268e+003
1.955762e+002, 5.288315e+003
1.960583e+002, 5.285235e+003
1.965404e+002, 5.282090e+003
1.970226e+002, 5.280188e+003
1.975047e+002, 5.280778e+003
1.979868e+002, 5.281163e+003
1.984689e+002, 5.280057e+003
1.989510e+002, 5.278075e+003
1.994331e+002, 5.276678e+003
1.999153e+002, 5.276881e+003
2.003974e+002, 5.278651e+003
2.008795e+002, 5.280935e+003
2.013616e+002, 5.282183e+003
2.018437e+002, 5.285177e+003
2.023258e+002, 5.292541e+003
2.028080e+002, 5.303162e+003
2.032901e+002, 5.313077e+003
2.037722e+002, 5.319680e+003
2.042543e+002, 5.322830e+003
2.047364e+002, 5.324715e+003
2.052185e+002, 5.325864e+003
2.057007e+002, 5.325489e+003
2.061828e+002, 5.321979e+003
2.066649e+002, 5.315739e+003
2.071470e+002, 5.310451e+003
2.076291e+002, 5.309609e+003
2.081112e+002, 5.312013e+003
2.085934e+002, 5.311456e+003
2.090755e+002, 5.305245e+003
2.095576e+002, 5.297636e+003
2.100397e+002, 5.292385e+003
2.105218e+002, 5.289601e+003
2.110039e+002, 5.287346e+003
2.114861e+002, 5.284617e+003
2.119682e+002, 5.281474e+003
2.124503e+002, 5.277976e+003
2.129324e+002, 5.274031e+003
2.134145e+002, 5.269790e+003
2.138967e+002, 5.265239e+003
2.143788e+002, 5.260187e+003
2.148609e+002, 5.255554e+003
2.153430e+002, 5.251840e+003
2.158251e+002, 5.248801e+003
2.163072e+002, 5.246187e+003
2.167894e+002, 5.243474e+003
2.172715e+002, 5.241448e+003
2.177536e+002, 5.242175e+003
2.182357e+002, 5.247202e+003
2.187178e+002, 5.250542e+003
2.191999e+002, 5.247595e+003
2.196821e+002, 5.242290e+003
2.201642e+002, 5.239497e+003
2.206463e+002, 5.242180e+003
2.211284e+002, 5.247175e+003
2.216105e+002, 5.246666e+003
2.220926e+002, 5.237008e+003
2.225748e+002, 5.229290e+003
2.230569e+002, 5.226992e+003
2.235390e+002, 5.228172e+003
2.240211e+002, 5.231632e+003
2.245032e+002, 5.237542e+003
2.249853e+002, 5.243697e+003
2.254675e+002, 5.243347e+003
2.259496e+002, 5.231214e+003
2.264317e+002, 5.220845e+003
2.269138e+002, 5.214392e+003
2.273959e+002, 5.211208e+003
2.278780e+002, 5.211679e+003
2.283602e+002, 5.216333e+003
2.288423e+002, 5.222679e+003
2.293244e+002, 5.222457e+003
2.298065e+002, 5.209457e+003
2.302886e+002, 5.197813e+003
2.307707e+002, 5.185751e+003
2.312529e+002, 5.177017e+003
2.317350e+002, 5.177474e+003
2.322171e+002, 5.190112e+003
2.326992e+002, 5.209864e+003
2.331813e+002, 5.220468e+003
2.336634e+002, 5.212802e+003
2.341456e+002, 5.205871e+003
2.346277e+002, 5.202497e+003
2.351098e+002, 5.200100e+003
2.355919e+002, 5.194546e+003
2.360740e+002, 5.183903e+003
2.365561e+002, 5.171242e+003
2.370383e+002, 5.165672e+003
2.375204e+002, 5.176636e+003
2.380025e+002, 5.184165e+003
2.384846e+002, 5.186750e+003
2.389667e+002, 5.185563e+003
2.394488e+002, 5.180814e+003
2.399310e+002, 5.172455e+003
2.404131e+002, 5.163155e+003
2.408952e+002, 5.159819e+003
2.413773e+002, 5.169229e+003
2.418594e+002, 5.175334e+003
2.423415e+002, 5.173428e+003
2.428237e+002, 5.168403e+003
2.433058e+002, 5.167358e+003
2.437879e+002, 5.173205e+003
2.442700e+002, 5.181638e+003
2.447521e+002, 5.182886e+003
2.452342e+002, 5.171763e+003
2.457164e+002, 5.164174e+003
2.461985e+002, 5.166061e+003
2.466806e+002, 5.171696e+003
2.471627e+002, 5.172554e+003
2.476448e+002, 5.165397e+003
2.481269e+002, 5.155135e+003
2.486091e+002, 5.150701e+003
2.490912e+002, 5.153562e+003
2.495733e+002, 5.155781e+003
2.500554e+002, 5.156462e+003
2.505375e+002, 5.155423e+003
2.510196e+002, 5.152043e+003
2.515018e+002, 5.145962e+003
2.519839e+002, 5.138635e+003
2.524660e+002, 5.131536e+003
2.529481e+002, 5.124379e+003
2.534302e+002, 5.119581e+003
2.539123e+002, 5.119843e+003
2.543945e+002, 5.122327e+003
2.548766e+002, 5.121505e+003
2.553587e+002, 5.115136e+003
2.558408e+002, 5.109729e+003
2.563229e+002, 5.115716e+003
2.568051e+002, 5.131411e+003
2.572872e+002, 5.144698e+003
2.577693e+002, 5.151758e+003
2.582514e+002, 5.154431e+003
2.587335e+002, 5.155427e+003
2.592156e+002, 5.154899e+003
2.596978e+002, 5.153191e+003
2.601799e+002, 5.150087e+003
2.606620e+002, 5.145854e+003
2.611441e+002, 5.141356e+003
2.616262e+002, 5.134450e+003
2.621083e+002, 5.128078e+003
2.625905e+002, 5.127859e+003
2.630726e+002, 5.135391e+003
2.635547e+002, 5.144364e+003
2.640368e+002, 5.150583e+003
2.645189e+002, 5.154662e+003
2.650010e+002, 5.157235e+003
2.654832e+002, 5.159083e+003
2.659653e+002, 5.159394e+003
2.664474e+002, 5.156215e+003
2.669295e+002, 5.148736e+003
2.674116e+002, 5.140997e+003
2.678937e+002, 5.133164e+003
2.683759e+002, 5.127142e+003
2.688580e+002, 5.126787e+003
2.693401e+002, 5.136715e+003
2.698222e+002, 5.149827e+003
2.703043e+002, 5.155462e+003
2.707864e+002, 5.152448e+003
2.712686e+002, 5.147100e+003
2.717507e+002, 5.138249e+003
2.722328e+002, 5.130122e+003
2.727149e+002, 5.128607e+003
2.731970e+002, 5.137379e+003
2.736791e+002, 5.148756e+003
2.741613e+002, 5.151426e+003
2.746434e+002, 5.143445e+003
2.751255e+002, 5.136789e+003
2.756076e+002, 5.137229e+003
2.760897e+002, 5.140340e+003
2.765718e+002, 5.142800e+003
2.770540e+002, 5.143758e+003
2.775361e+002, 5.144775e+003
2.780182e+002, 5.148560e+003
2.785003e+002, 5.155877e+003
2.789824e+002, 5.160688e+003
2.794645e+002, 5.159409e+003
2.799467e+002, 5.156302e+003
2.804288e+002, 5.153433e+003
2.809109e+002, 5.151195e+003
2.813930e+002, 5.150401e+003
2.818751e+002, 5.152216e+003
2.823572e+002, 5.156813e+003
2.828394e+002, 5.161894e+003
2.833215e+002, 5.168193e+003
2.838036e+002, 5.173967e+003
2.842857e+002, 5.178016e+003
2.847678e+002, 5.180378e+003
2.852499e+002, 5.182153e+003
2.857321e+002, 5.183604e+003
2.862142e+002, 5.184638e+003
2.866963e+002, 5.188157e+003
2.871784e+002, 5.199296e+003
2.876605e+002, 5.207611e+003
2.881426e+002, 5.207092e+003
2.886248e+002, 5.199230e+003
2.891069e+002, 5.189461e+003
2.895890e+002, 5.181568e+003
2.900711e+002, 5.175327e+003
2.905532e+002, 5.168621e+003
2.910353e+002, 5.161047e+003
2.915175e+002, 5.153349e+003
2.919996e+002, 5.145288e+003
2.924817e+002, 5.137335e+003
2.929638e+002, 5.130489e+003
2.934459e+002, 5.125636e+003
2.939280e+002, 5.122274e+003
2.944102e+002, 5.118347e+003
2.948923e+002, 5.114283e+003
2.953744e+002, 5.108952e+003
2.958565e+002, 5.101285e+003
2.963386e+002, 5.092677e+003
2.968207e+002, 5.084740e+003
2.973029e+002, 5.078175e+003
2.977850e+002, 5.073146e+003
2.982671e+002, 5.070395e+003
2.987492e+002, 5.071532e+003
2.992313e+002, 5.071890e+003
2.997134e+002, 5.069755e+003
3.001956e+002, 5.066861e+003
3.006777e+002, 5.064705e+003
3.011598e+002, 5.063786e+003
3.016419e+002, 5.063773e+003
3.021240e+002, 5.063987e+003
3.026061e+002, 5.064026e+003
3.030883e+002, 5.065406e+003
3.035704e+002, 5.070491e+003
3.040525e+002, 5.075384e+003
3.045346e+002, 5.077165e+003
3.050167e+002, 5.075367e+003
3.054988e+002, 5.071955e+003
3.059810e+002, 5.068474e+003
3.064631e+002, 5.064101e+003
3.069452e+002, 5.063303e+003
3.074273e+002, 5.072568e+003
3.079094e+002, 5.080406e+003
3.083915e+002, 5.078862e+003
3.088737e+002, 5.069602e+003
3.093558e+002, 5.061588e+003
3.098379e+002, 5.064306e+003
3.103200e+002, 5.078438e+003
3.108021e+002, 5.089134e+003
3.112842e+002, 5.092835e+003
3.117664e+002, 5.096481e+003
3.122485e+002, 5.104921e+003
3.127306e+002, 5.115268e+003
3.132127e+002, 5.121003e+003
3.136948e+002, 5.116630e+003
3.141769e+002, 5.104018e+003
3.146591e+002, 5.094501e+003
3.151412e+002, 5.089635e+003
3.156233e+002, 5.086071e+003
3.161054e+002, 5.083302e+003
3.165875e+002, 5.081003e+003
3.170696e+002, 5.078578e+003
3.175518e+002, 5.075601e+003
3.180339e+002, 5.072898e+003
3.185160e+002, 5.072854e+003
3.189981e+002, 5.077144e+003
3.194802e+002, 5.080853e+003
3.199623e+002, 5.083633e+003
3.204445e+002, 5.085196e+003
3.209266e+002, 5.084442e+003
3.214087e+002, 5.081101e+003
3.218908e+002, 5.077706e+003
3.223729e+002, 5.078983e+003
3.228550e+002, 5.087235e+003
3.233372e+002, 5.091985e+003
3.238193e+002, 5.088962e+003
3.243014e+002, 5.084155e+003
3.247835e+002, 5.080767e+003
3.252656e+002, 5.079148e+003
3.257477e+002, 5.077780e+003
3.262299e+002, 5.075376e+003
3.267120e+002, 5.071924e+003
3.271941e+002, 5.066866e+003
3.276762e+002, 5.055869e+003
3.281583e+002, 5.047340e+003
3.286404e+002, 5.047029e+003
3.291226e+002, 5.052474e+003
3.296047e+002, 5.056509e+003
3.300868e+002, 5.053220e+003
3.305689e+002, 5.043918e+003
3.310510e+002, 5.037391e+003
3.315331e+002, 5.033852e+003
3.320153e+002, 5.033236e+003
3.324974e+002, 5.037116e+003
3.329795e+002, 5.043131e+003
3.334616e+002, 5.048068e+003
3.339437e+002, 5.050626e+003
3.344258e+002, 5.051052e+003
3.349080e+002, 5.049558e+003
3.353901e+002, 5.045601e+003
3.358722e+002, 5.041388e+003
3.363543e+002, 5.038848e+003
3.368365e+002, 5.035825e+003
3.373186e+002, 5.029405e+003
3.378007e+002, 5.018613e+003
3.382828e+002, 5.007858e+003
3.387649e+002, 5.002818e+003
3.392470e+002, 5.004122e+003
3.397292e+002, 5.006508e+003
3.402113e+002, 5.009517e+003
3.406934e+002, 5.012895e+003
3.411755e+002, 5.016924e+003
3.416576e+002, 5.021374e+003
3.421397e+002, 5.024932e+003
3.426219e+002, 5.025003e+003
3.431040e+002, 5.022162e+003
3.435861e+002, 5.023864e+003
3.440682e+002, 5.034876e+003
3.445503e+002, 5.044292e+003
3.450324e+002, 5.045418e+003
3.455146e+002, 5.040207e+003
3.459967e+002, 5.033460e+003
3.464788e+002, 5.026204e+003
3.469609e+002, 5.019589e+003
3.474430e+002, 5.017083e+003
3.479251e+002, 5.020140e+003
3.484073e+002, 5.023345e+003
3.488894e+002, 5.024974e+003
3.493715e+002, 5.024967e+003
3.498536e+002, 5.022339e+003
3.503357e+002, 5.015372e+003
3.508178e+002, 5.008843e+003
3.513000e+002, 5.009783e+003
3.517821e+002, 5.018688e+003
3.522642e+002, 5.025935e+003
3.527463e+002, 5.027977e+003
3.532284e+002, 5.027132e+003
3.537105e+002, 5.025892e+003
3.541927e+002, 5.024457e+003
3.546748e+002, 5.022310e+003
3.551569e+002, 5.017909e+003
3.556390e+002, 5.012166e+003
3.561211e+002, 5.009349e+003
3.566032e+002, 5.011193e+003
3.570854e+002, 5.014516e+003
3.575675e+002, 5.016806e+003
3.580496e+002, 5.018144e+003
3.585317e+002, 5.018511e+003
3.590138e+002, 5.018154e+003
3.594959e+002, 5.016729e+003
3.599781e+002, 5.012933e+003
3.604602e+002, 5.006238e+003
3.609423e+002, 5.000295e+003
3.614244e+002, 4.998470e+003
3.619065e+002, 4.999300e+003
3.623886e+002, 4.999009e+003
3.628708e+002, 4.995246e+003
3.633529e+002, 4.992106e+003
3.638350e+002, 4.992592e+003
3.643171e+002, 4.996549e+003
3.647992e+002, 5.004009e+003
3.652813e+002, 5.017750e+003
3.657635e+002, 5.032118e+003
3.662456e+002, 5.035298e+003
3.667277e+002, 5.023472e+003
3.672098e+002, 5.013138e+003
3.676919e+002, 5.012708e+003
3.681740e+002, 5.018004e+003
3.686562e+002, 5.021669e+003
3.691383e+002, 5.022063e+003
3.696204e+002, 5.019577e+003
3.701025e+002, 5.013435e+003
3.705846e+002, 5.003284e+003
3.710667e+002, 4.995711e+003
3.715489e+002, 4.991028e+003
3.720310e+002, 4.989589e+003
3.725131e+002, 4.993638e+003
3.729952e+002, 5.002594e+003
3.734773e+002, 5.010452e+003
3.739594e+002, 5.012471e+003
3.744416e+002, 5.009225e+003
3.749237e+002, 5.007741e+003
3.754058e+002, 5.009586e+003
3.758879e+002, 5.011347e+003
3.763700e+002, 5.011565e+003
3.768521e+002, 5.010717e+003
3.773343e+002, 5.009716e+003
3.778164e+002, 5.008916e+003
3.782985e+002, 5.008427e+003
3.787806e+002, 5.008635e+003
3.792627e+002, 5.011442e+003
3.797448e+002, 5.011621e+003
3.802270e+002, 5.004546e+003
3.807091e+002, 4.997039e+003
3.811912e+002, 4.996389e+003
3.816733e+002, 5.003597e+003
3.821554e+002, 5.013530e+003
3.826375e+002, 5.020766e+003
3.831197e+002, 5.025046e+003
3.836018e+002, 5.027364e+003
3.840839e+002, 5.026838e+003
3.845660e+002, 5.025586e+003
3.850481e+002, 5.024196e+003
3.855302e+002, 5.022857e+003
3.860124e+002, 5.021512e+003
3.864945e+002, 5.019973e+003
3.869766e+002, 5.018673e+003
3.874587e+002, 5.019960e+003
3.879408e+002, 5.027671e+003
3.884229e+002, 5.033439e+003
3.889051e+002, 5.035924e+003
3.893872e+002, 5.036343e+003
3.898693e+002, 5.035101e+003
3.903514e+002, 5.032588e+003
3.908335e+002, 5.030729e+003
3.913156e+002, 5.033181e+003
3.917978e+002, 5.042554e+003
3.922799e+002, 5.049118e+003
3.927620e+002, 5.051730e+003
3.932441e+002, 5.052657e+003
3.937262e+002, 5.052561e+003
3.942083e+002, 5.051739e+003
3.946905e+002, 5.050522e+003
3.951726e+002, 5.049044e+003
3.956547e+002, 5.047369e+003
3.961368e+002, 5.046017e+003
3.966189e+002, 5.043981e+003
3.971010e+002, 5.043921e+003
3.975832e+002, 5.047575e+003
