##NAMES=Dondoellite
##RRUFFID=R140175
##IDEAL CHEMISTRY=Ca_2_Fe^2+^(PO_4_)_2_&#183;2H_2_O
##LOCALITY=Messel mine, Messel, Darmstadt, Hesse, Germany
##OWNER=RRUFF
##SOURCE=Rock Currier
##DESCRIPTION=Pale greenish white hemispherical or sheaflike aggregates of lamellar crystals, associated with anapaite (R141081). The cell parameters do not match messelite, but may be a related phase, perhaps a polytype. Needs more work.
##STATUS=The identification of this mineral is confirmed by single-crystal X-ray diffraction and chemical analysis.
##URL=rruff.info/R140175
##MEASURED CHEMISTRY=Ca_1.98_(Fe_0.88_Mg_0.09_)(P_1.01_O_4_)_2_Â·2H_2_O ; trace amount of Mn
95.29590, 0.0000000E+00
95.77802, 9.270508
96.26013, 26.20703
96.74225, 31.99658
97.22437, 11.46436
97.70648, 0.8095700
98.18860, 9.956055
98.67072, 22.25635
99.15283, 29.05273
99.63495, 34.66162
100.1171, 40.14062
100.5992, 40.62695
101.0813, 47.03320
101.5634, 59.89014
102.0455, 65.81152
102.5277, 62.11133
103.0098, 51.54150
103.4919, 33.14990
103.9740, 11.22363
104.4561, 0.8481450
104.9382, 15.72607
105.4204, 25.53760
105.9025, 23.65820
106.3846, 15.14209
106.8667, 5.615234
107.3488, 1.063477
107.8309, 3.904297
108.3131, 2.328125
108.7952, 6.914551
109.2773, 16.91455
109.7594, 23.36768
110.2415, 25.67773
110.7236, 26.70508
111.2058, 29.94678
111.6879, 35.54053
112.1700, 39.21826
112.6521, 39.14062
113.1342, 36.86768
113.6163, 34.89209
114.0985, 32.30859
114.5806, 30.72559
115.0627, 32.04248
115.5448, 35.04785
116.0269, 37.30273
116.5090, 35.87207
116.9912, 30.88086
117.4733, 29.49316
117.9554, 36.58350
118.4375, 45.03223
118.9196, 53.72656
119.4017, 58.85449
119.8839, 62.30518
120.3660, 64.19531
120.8481, 60.58838
121.3302, 59.18164
121.8123, 59.46387
122.2944, 59.61426
122.7766, 60.16211
123.2587, 59.20654
123.7408, 58.17334
124.2229, 58.54932
124.7050, 60.20410
125.1871, 62.67090
125.6693, 69.49170
126.1514, 76.34912
126.6335, 76.54199
127.1156, 66.31982
127.5977, 49.78906
128.0798, 39.63574
128.5620, 37.72607
129.0441, 37.58398
129.5262, 38.55713
130.0083, 40.13672
130.4904, 39.46045
130.9725, 33.34912
131.4547, 24.18018
131.9368, 17.45166
132.4189, 13.65869
132.9010, 12.16846
133.3831, 12.41016
133.8652, 14.29297
134.3474, 17.15576
134.8295, 22.37598
135.3116, 27.88037
135.7937, 31.35742
136.2758, 31.42139
136.7579, 29.10986
137.2401, 26.20850
137.7222, 21.11865
138.2043, 18.05469
138.6864, 19.67334
139.1685, 23.65137
139.6507, 26.67285
140.1328, 26.60645
140.6149, 23.46826
141.0970, 18.74023
141.5791, 7.495117
142.0612, 0.6083980
142.5434, 0.7324220
143.0255, 4.734375
143.5076, 9.973145
143.9897, 9.061523
144.4718, 0.0000000E+00
144.9539, 4.159180
145.4361, 0.8339840
145.9182, 6.149414
146.4003, 6.138672
146.8824, 0.5502930
147.3645, 6.295898
147.8466, 9.470215
148.3288, 7.605957
148.8109, 6.713867
149.2930, 8.273926
149.7751, 10.22266
150.2572, 10.14990
150.7393, 7.344238
151.2215, 3.901367
151.7036, 3.127441
152.1857, 4.886719
152.6678, 6.361816
153.1499, 1.291504
153.6320, 9.471191
154.1142, 16.66162
154.5963, 22.28369
155.0784, 27.14844
155.5605, 31.85156
156.0426, 36.63086
156.5247, 42.05127
157.0069, 48.48438
157.4890, 55.92334
157.9711, 64.11621
158.4532, 72.98779
158.9353, 82.95752
159.4174, 95.22021
159.8996, 109.8452
160.3817, 123.9741
160.8638, 133.8613
161.3459, 138.1675
161.8280, 142.2236
162.3102, 148.2183
162.7923, 153.8613
163.2744, 157.8960
163.7565, 159.6782
164.2386, 157.8999
164.7207, 149.3003
165.2029, 126.7998
165.6850, 108.8115
166.1671, 97.86621
166.6492, 91.48975
167.1313, 87.24365
167.6134, 84.18408
168.0956, 82.14404
168.5777, 80.82178
169.0598, 82.94873
169.5419, 82.73193
170.0240, 76.82227
170.5061, 68.83740
170.9883, 63.87500
171.4704, 64.60938
171.9525, 69.97168
172.4346, 75.68994
172.9167, 81.24023
173.3988, 87.73438
173.8810, 96.43018
174.3631, 106.3921
174.8452, 114.8203
175.3273, 119.2754
175.8094, 121.9521
176.2915, 129.7686
176.7737, 146.0669
177.2558, 163.2915
177.7379, 177.3057
178.2200, 188.2109
178.7021, 197.5547
179.1842, 205.4087
179.6664, 212.3818
180.1485, 219.9521
180.6306, 229.7432
181.1127, 238.5757
181.5948, 242.8374
182.0769, 242.1665
182.5591, 238.9985
183.0412, 233.3145
183.5233, 226.0986
184.0054, 217.8657
184.4875, 208.3623
184.9696, 198.4893
185.4518, 190.1484
185.9339, 184.2554
186.4160, 177.8784
186.8981, 170.1841
187.3802, 161.4321
187.8623, 151.0298
188.3445, 137.5688
188.8266, 123.4946
189.3087, 118.4058
189.7908, 131.9771
190.2729, 141.2363
190.7550, 139.4521
191.2372, 130.7935
191.7193, 120.4854
192.2014, 111.3965
192.6835, 103.5967
193.1656, 97.38037
193.6477, 93.93213
194.1299, 91.12646
194.6120, 88.88184
195.0941, 87.01611
195.5762, 85.25049
196.0583, 83.39844
196.5404, 81.47510
197.0226, 80.76758
197.5047, 82.57324
197.9868, 84.30811
198.4689, 84.67773
198.9510, 83.91357
199.4331, 83.39453
199.9153, 84.10938
200.3974, 86.34961
200.8795, 89.33545
201.3616, 91.36768
201.8437, 95.12646
202.3258, 102.9863
202.8080, 113.8511
203.2901, 124.3335
203.7722, 131.6758
204.2543, 135.5854
204.7364, 138.0845
205.2185, 139.4165
205.7007, 138.9907
206.1828, 135.5068
206.6649, 129.3398
207.1470, 124.0303
207.6291, 123.0474
208.1112, 125.3188
208.5934, 124.8091
209.0755, 118.8662
209.5576, 111.5791
210.0397, 106.5435
210.5218, 103.9102
211.0039, 102.2515
211.4861, 100.1948
211.9682, 97.71484
212.4503, 94.89355
212.9324, 91.63574
213.4145, 88.09326
213.8967, 84.24512
214.3788, 79.89209
214.8609, 75.95947
215.3430, 72.95215
215.8251, 70.63184
216.3072, 68.75098
216.7894, 66.79297
217.2715, 65.55371
217.7536, 67.10986
218.2357, 73.00781
218.7178, 77.24365
219.1999, 75.19531
219.6821, 70.79248
220.1642, 68.91748
220.6463, 72.52930
221.1284, 78.45703
221.6105, 78.87744
222.0926, 70.13135
222.5748, 63.27979
223.0569, 61.74951
223.5390, 63.62109
224.0211, 67.72705
224.5032, 74.25391
224.9853, 81.00391
225.4675, 81.23242
225.9496, 69.66309
226.4317, 59.84668
226.9138, 53.94678
227.3959, 51.30713
227.8780, 52.28955
228.3602, 57.41455
228.8423, 64.20361
229.3244, 64.42090
229.8065, 51.87793
230.2886, 40.70850
230.7707, 29.13818
231.2529, 20.91699
231.7350, 21.91650
232.2171, 35.13281
232.6992, 55.49414
233.1813, 66.72168
233.6634, 59.68652
234.1456, 53.41504
234.6277, 50.76465
235.1098, 49.14062
235.5919, 44.35303
236.0740, 34.47119
236.5561, 22.56494
237.0383, 17.74268
237.5204, 29.44775
238.0025, 37.71094
238.4846, 41.02441
238.9667, 40.56055
239.4488, 36.54297
239.9310, 28.93457
240.4131, 20.39795
240.8952, 17.82861
241.3773, 27.99219
241.8594, 34.84131
242.3415, 33.68066
242.8237, 29.40479
243.3058, 29.12207
243.7879, 35.73633
244.2700, 44.92188
244.7521, 46.90430
245.2342, 36.50928
245.7164, 29.63574
246.1985, 32.19287
246.6806, 38.41748
247.1627, 39.83594
247.6448, 33.30420
248.1269, 23.70996
248.6091, 19.95801
249.0912, 23.49072
249.5733, 26.34277
250.0554, 27.57910
250.5375, 27.06201
251.0196, 24.17871
251.5018, 18.58643
251.9839, 11.76807
252.4660, 5.154785
252.9481, 1.547852
253.4302, 5.898438
253.9123, 5.197754
254.3945, 2.283203
254.8766, 2.677734
255.3587, 8.611816
255.8408, 13.57910
256.3229, 7.153809
256.8051, 8.977051
257.2872, 22.70264
257.7693, 30.20947
258.2514, 33.34424
258.7335, 34.81787
259.2156, 34.77930
259.6978, 33.57910
260.1799, 31.02100
260.6620, 27.38623
261.1441, 23.49463
261.6262, 17.19385
262.1083, 11.42676
262.5905, 11.81152
263.0726, 19.94971
263.5547, 29.53027
264.0368, 36.35986
264.5189, 41.05176
265.0010, 44.23975
265.4832, 46.70605
265.9653, 47.63916
266.4474, 45.08350
266.9295, 38.22949
267.4116, 31.11719
267.8937, 23.91260
268.3759, 18.52002
268.8580, 18.79395
269.3401, 29.35059
269.8222, 43.09180
270.3043, 49.35449
270.7864, 46.96875
271.2686, 42.23633
271.7507, 33.98779
272.2328, 26.44678
272.7149, 25.50439
273.1970, 34.83789
273.6791, 46.78955
274.1613, 50.04150
274.6434, 42.63574
275.1255, 36.53320
275.6076, 37.52051
276.0897, 41.20459
276.5718, 44.25732
277.0540, 45.80029
277.5361, 47.38574
278.0182, 51.73242
278.5003, 59.62744
278.9824, 65.04248
279.4645, 64.37061
279.9467, 61.85449
280.4288, 59.91895
280.9109, 59.21240
281.3930, 60.24854
281.8751, 63.80273
282.3572, 69.99268
282.8394, 76.46729
283.3215, 83.93701
283.8036, 90.60742
284.2857, 95.26465
284.7678, 98.16357
285.2499, 100.4648
285.7321, 102.4575
286.2142, 104.0483
286.6963, 108.1445
287.1784, 119.8643
287.6605, 128.7104
288.1426, 128.6782
288.6248, 121.2573
289.1069, 111.8970
289.5890, 104.4292
290.0711, 98.69580
290.5532, 92.55176
291.0353, 85.57520
291.5175, 78.45801
291.9996, 70.95264
292.4817, 63.54590
292.9638, 57.25586
293.4459, 53.22021
293.9280, 50.55664
294.4102, 47.06250
294.8923, 43.41260
295.3744, 38.54590
295.8565, 31.37842
296.3386, 23.28467
296.8207, 15.86230
297.3029, 9.795410
297.7850, 5.233398
298.2671, 2.915039
298.7492, 4.521973
299.2313, 5.346191
299.7134, 3.705566
300.1956, 1.302246
300.6777, 0.3798830
301.1598, 0.8251950
301.6419, 0.3374020
302.1240, 0.4160160
302.6061, 1.003418
303.0883, 2.936523
303.5704, 8.841309
304.0525, 14.64893
304.5346, 17.30078
305.0167, 16.37500
305.4988, 14.00586
305.9810, 11.68945
306.4631, 8.416992
306.9452, 8.482910
307.4273, 18.24414
307.9094, 26.56104
308.3915, 25.49609
308.8737, 16.70459
309.3558, 9.135742
309.8379, 12.27344
310.3200, 26.79785
310.8021, 37.84717
311.2842, 41.81445
311.7664, 45.74707
312.2485, 54.53369
312.7306, 65.22217
313.2127, 71.15625
313.6948, 66.96680
314.1769, 54.98828
314.6591, 46.34424
315.1412, 42.15576
315.6233, 39.10791
316.1054, 36.86963
316.5875, 35.10889
317.0696, 33.22314
317.5518, 30.78174
318.0339, 28.60449
318.5160, 29.07227
318.9981, 33.85840
319.4802, 38.03809
319.9623, 41.26514
320.4445, 43.27734
320.9266, 43.00732
321.4087, 40.19189
321.8908, 37.33203
322.3729, 39.14258
322.8550, 47.92773
323.3372, 53.20947
323.8193, 50.71729
324.3014, 46.43994
324.7835, 43.58105
325.2656, 42.48926
325.7477, 41.62744
326.2299, 39.70703
326.7120, 36.74023
327.1941, 32.20605
327.6762, 21.73145
328.1583, 13.72314
328.6404, 13.93213
329.1226, 19.89697
329.6047, 24.44971
330.0868, 21.67773
330.5689, 12.89209
331.0510, 6.880371
331.5331, 3.855469
332.0153, 3.752930
332.4974, 8.145508
332.9795, 14.67188
333.4616, 20.11963
333.9437, 23.18750
334.4258, 24.12256
334.9080, 23.13672
335.3901, 19.68652
335.8722, 15.98047
336.3543, 13.94629
336.8365, 11.42822
337.3186, 5.511719
337.8007, 4.778320
338.2828, 15.03418
338.7649, 19.58545
339.2470, 17.80420
339.7292, 14.95215
340.2113, 11.48535
340.6934, 7.658203
341.1755, 3.186523
341.6576, 1.702637
342.1397, 5.698730
342.6219, 6.206543
343.1040, 3.802246
343.5861, 5.939453
344.0682, 17.38623
344.5503, 27.23682
345.0324, 28.79541
345.5146, 24.01758
345.9967, 17.70312
346.4788, 10.87939
346.9609, 4.696289
347.4430, 2.622070
347.9251, 6.110352
348.4073, 9.745605
348.8894, 11.80371
349.3715, 12.22510
349.8536, 10.02490
350.3357, 3.485840
350.8178, 2.616699
351.3000, 1.252441
351.7821, 8.072754
352.2642, 15.74072
352.7463, 18.20312
353.2284, 17.77832
353.7105, 16.95801
354.1927, 15.94238
354.6748, 14.20117
355.1569, 10.18018
355.6390, 4.798828
356.1211, 2.334473
356.6032, 4.538086
357.0854, 8.225098
357.5675, 10.87256
358.0496, 12.55762
358.5317, 13.25537
359.0138, 13.21826
359.4959, 12.12500
359.9781, 8.674316
360.4602, 2.327148
360.9423, 3.259277
361.4244, 4.707031
361.9065, 3.481934
362.3886, 3.370605
362.8708, 6.738770
363.3529, 9.500488
363.8350, 8.654297
364.3171, 4.358398
364.7992, 3.436035
365.2813, 17.55225
365.7635, 32.29785
366.2456, 35.85400
366.7277, 24.39844
367.2098, 14.40430
367.6919, 14.32764
368.1740, 20.00000
368.6562, 24.04199
369.1383, 24.81396
369.6204, 22.70703
370.1025, 16.94482
370.5846, 7.174316
371.0667, 1.7090000E-02
371.5489, 4.318359
372.0310, 5.375977
372.5131, 0.9467770
372.9952, 8.388672
373.4773, 16.62598
373.9594, 19.02393
374.4416, 16.15625
374.9237, 15.05078
375.4058, 17.27344
375.8879, 19.41260
376.3700, 20.00977
376.8521, 19.54150
377.3343, 18.92041
377.8164, 18.50098
378.2985, 18.39209
378.7806, 18.97998
379.2627, 22.16650
379.7448, 22.72607
380.2270, 16.02979
380.7091, 8.902344
381.1912, 8.631348
381.6733, 16.21777
382.1554, 26.52881
382.6375, 34.14355
383.1197, 38.80127
383.6018, 41.49707
384.0839, 41.34912
384.5660, 40.47559
385.0481, 39.46289
385.5302, 38.50195
386.0124, 37.53467
386.4945, 36.37305
386.9766, 35.44971
387.4587, 37.11426
387.9408, 45.20264
388.4229, 51.34814
388.9051, 54.18896
389.3872, 54.95166
389.8693, 54.05322
390.3514, 51.90283
390.8335, 50.42041
391.3156, 53.25049
391.7978, 63.00293
392.2799, 69.94873
392.7620, 72.94482
393.2441, 74.25781
393.7262, 74.54639
394.2083, 74.10986
394.6905, 73.27881
395.1726, 72.16748
395.6547, 70.49463
396.1368, 68.54053
396.6189, 65.61572
397.1010, 64.77588
397.5832, 67.82715
398.0653, 72.95312
398.5474, 77.85791
399.0295, 81.69189
399.5116, 84.98828
399.9937, 87.54004
400.4759, 88.41846
400.9580, 93.20654
401.4401, 109.3784
401.9222, 125.4668
402.4043, 132.5894
402.8864, 130.5713
403.3686, 126.9839
403.8507, 126.0811
404.3328, 127.9312
404.8149, 133.7393
405.2970, 145.8076
405.7791, 157.0005
406.2613, 159.4531
406.7434, 157.5576
407.2255, 160.6025
407.7076, 173.5186
408.1897, 190.4678
408.6718, 204.7065
409.1540, 216.7109
409.6361, 229.6558
410.1182, 244.7852
410.6003, 261.1499
411.0824, 277.4272
411.5645, 294.1924
412.0467, 308.9629
412.5288, 319.7363
413.0109, 328.0322
413.4930, 337.1309
413.9751, 347.8730
414.4572, 356.9971
414.9394, 359.9775
415.4215, 356.4844
415.9036, 355.8921
416.3857, 362.9004
416.8678, 369.1846
417.3499, 370.3296
417.8321, 366.2109
418.3142, 356.7866
418.7963, 341.1895
419.2784, 321.4961
419.7605, 304.2759
420.2426, 289.4785
420.7248, 276.7114
421.2069, 267.0444
421.6890, 259.1543
422.1711, 251.9946
422.6532, 245.3169
423.1353, 238.6392
423.6175, 231.9458
424.0996, 225.6382
424.5817, 217.3184
425.0638, 203.0757
425.5459, 191.0557
426.0280, 185.0864
426.5102, 183.7769
426.9923, 184.6826
427.4744, 186.7319
427.9565, 188.3379
428.4386, 184.8486
428.9207, 173.3320
429.4029, 161.5522
429.8850, 148.0601
430.3671, 136.2695
430.8492, 129.1948
431.3313, 127.4204
431.8134, 129.0259
432.2956, 133.4316
432.7777, 140.7832
433.2598, 144.7954
433.7419, 144.3379
434.2241, 141.4414
434.7062, 136.6216
435.1883, 130.6011
435.6704, 124.0493
436.1525, 116.1978
436.6346, 109.4541
437.1168, 108.8608
437.5989, 115.1562
438.0810, 119.8555
438.5631, 119.0767
439.0452, 115.9707
439.5273, 114.1436
440.0095, 113.7881
440.4916, 113.7056
440.9737, 113.8340
441.4558, 113.6855
441.9379, 111.5010
442.4200, 106.5596
442.9022, 102.9385
443.3843, 105.5996
443.8664, 112.9731
444.3485, 115.4082
444.8306, 108.5249
445.3127, 100.3340
445.7949, 94.69873
446.2770, 91.34424
446.7591, 89.70020
447.2412, 89.76758
447.7233, 90.48193
448.2054, 89.69385
448.6876, 86.21875
449.1697, 84.64160
449.6518, 88.06787
450.1339, 90.90430
450.6160, 87.45264
451.0981, 78.43359
451.5803, 70.19775
452.0624, 68.04395
452.5445, 71.73193
453.0266, 72.16016
453.5087, 62.98291
453.9908, 56.67188
454.4730, 56.27441
454.9551, 58.95459
455.4372, 62.13281
455.9193, 64.48975
456.4014, 66.03223
456.8835, 66.31299
457.3657, 64.58496
457.8478, 64.96729
458.3299, 71.91553
458.8120, 76.74219
459.2941, 73.16309
459.7762, 64.48291
460.2584, 58.96387
460.7405, 62.82568
461.2226, 70.58643
461.7047, 69.97510
462.1868, 59.30713
462.6689, 48.22852
463.1511, 37.25928
463.6332, 29.50879
464.1153, 29.45166
464.5974, 37.88428
465.0795, 45.86475
465.5616, 47.54834
466.0438, 45.02832
466.5259, 42.47168
467.0080, 40.15967
467.4901, 39.38086
467.9722, 42.75977
468.4543, 48.79395
468.9365, 50.29297
469.4186, 41.33643
469.9007, 33.51807
470.3828, 34.41748
470.8649, 40.79395
471.3470, 46.44434
471.8292, 49.40430
472.3113, 48.63232
472.7934, 41.47021
473.2755, 23.04932
473.7576, 13.05469
474.2397, 17.18994
474.7219, 24.32959
475.2040, 28.97656
475.6861, 30.85010
476.1682, 31.18848
476.6503, 30.67920
477.1324, 29.54248
477.6146, 28.73486
478.0967, 28.81787
478.5788, 28.28760
479.0609, 27.51904
479.5430, 25.85742
480.0251, 22.05371
480.5073, 16.41748
480.9894, 11.24170
481.4715, 9.018555
481.9536, 9.535156
482.4357, 9.734863
482.9178, 10.17090
483.4000, 9.300293
483.8821, 4.487793
484.3642, 1.118652
484.8463, 2.713867
485.3284, 2.549316
485.8105, 7.770996
486.2927, 3.925293
486.7748, 6.998047
487.2569, 12.02783
487.7390, 7.070313
488.2211, 1.567383
488.7032, 9.213379
489.1854, 15.65527
489.6675, 17.25049
490.1496, 8.250977
490.6317, 1.704590
491.1138, 5.485352
491.5959, 3.504395
492.0781, 2.875000
492.5602, 14.13135
493.0423, 26.28662
493.5244, 30.20654
494.0065, 19.84375
494.4886, 12.64404
494.9708, 11.10645
495.4529, 11.40527
495.9350, 10.57764
496.4171, 8.666016
496.8992, 7.316895
497.3813, 7.640137
497.8635, 9.660156
498.3456, 14.12646
498.8277, 25.35059
499.3098, 32.25879
499.7919, 31.58252
500.2740, 27.34766
500.7562, 22.26172
501.2383, 17.17578
501.7204, 12.83057
502.2025, 10.28320
502.6846, 9.419434
503.1667, 8.405273
503.6489, 7.239258
504.1310, 6.103516
504.6131, 5.979980
505.0952, 5.820801
505.5773, 3.604492
506.0594, 2.053711
506.5416, 7.387207
507.0237, 9.437012
507.5058, 8.622559
507.9879, 5.549316
508.4700, 0.5112300
508.9521, 5.383301
509.4343, 2.629395
509.9164, 7.654785
510.3985, 10.83398
510.8806, 2.883301
511.3627, 15.27930
511.8448, 13.86035
512.3270, 3.662598
512.8091, 3.051758
513.2912, 0.9057620
513.7733, 5.472656
514.2554, 7.500488
514.7375, 2.686523
515.2197, 0.6718750
515.7018, 3.475586
516.1839, 4.195313
516.6660, 0.7919920
517.1481, 5.312500
517.6302, 11.05029
518.1124, 14.71777
518.5945, 16.31689
519.0766, 15.18750
519.5587, 9.694824
520.0408, 6.488281
520.5229, 9.582520
521.0051, 13.36133
521.4872, 13.88232
521.9693, 11.32617
522.4514, 8.717773
522.9335, 7.430176
523.4156, 7.411621
523.8978, 8.615723
524.3799, 11.08594
524.8620, 15.14844
525.3441, 22.51465
525.8262, 30.54395
526.3083, 33.55273
526.7905, 30.53955
527.2726, 26.90479
527.7547, 24.17725
528.2368, 21.78076
528.7189, 18.61963
529.2010, 14.87500
529.6832, 12.25391
530.1653, 11.99121
530.6474, 13.92139
531.1295, 16.99463
531.6116, 26.19531
532.0938, 29.93457
532.5759, 22.00781
533.0580, 11.34912
533.5401, 5.588867
534.0222, 5.934082
534.5043, 9.312500
534.9865, 13.92090
535.4686, 19.31543
535.9507, 19.84619
536.4328, 11.00244
536.9149, 5.891602
537.3970, 14.66064
537.8792, 26.79980
538.3613, 30.59473
538.8434, 23.33545
539.3255, 13.76025
539.8076, 7.913086
540.2897, 4.899414
540.7719, 1.612793
541.2540, 2.677734
541.7361, 4.078125
542.2182, 1.502930
542.7003, 12.43164
543.1824, 20.33936
543.6646, 22.08496
544.1467, 24.62549
544.6288, 31.56689
545.1109, 39.69971
545.5930, 45.08496
546.0751, 46.90723
546.5573, 46.59766
547.0394, 45.46631
547.5215, 43.36768
548.0036, 45.16650
548.4857, 55.47607
548.9678, 64.18848
549.4500, 70.40820
549.9321, 74.17627
550.4142, 74.99072
550.8963, 72.88232
551.3784, 69.17871
551.8605, 64.92383
552.3427, 60.17041
552.8248, 55.62061
553.3069, 50.75342
553.7890, 47.22705
554.2711, 46.79639
554.7532, 48.11426
555.2354, 49.33789
555.7175, 50.02002
556.1996, 51.01270
556.6817, 54.33350
557.1638, 58.06445
557.6459, 58.21387
558.1281, 53.32617
558.6102, 46.68701
559.0923, 40.73193
559.5744, 35.44141
560.0565, 30.36279
560.5386, 24.62402
561.0208, 20.16943
561.5029, 18.08643
561.9850, 17.16797
562.4671, 16.02979
562.9492, 14.38721
563.4313, 12.87988
563.9135, 12.22070
564.3956, 12.20410
564.8777, 10.97656
565.3598, 7.114258
565.8419, 4.894531
566.3240, 8.205566
566.8062, 12.17383
567.2883, 10.52734
567.7704, 1.398438
568.2525, 6.306152
568.7346, 2.705566
569.2167, 7.563477
569.6989, 12.64258
570.1810, 10.92676
570.6631, 9.074219
571.1452, 12.66455
571.6273, 19.37305
572.1094, 21.15723
572.5916, 15.10156
573.0737, 9.717285
573.5558, 5.795410
574.0379, 4.531738
574.5200, 9.125977
575.0021, 18.64502
575.4843, 27.38086
575.9664, 30.64453
576.4485, 29.32568
576.9306, 28.93945
577.4127, 29.84717
577.8948, 31.15967
578.3770, 32.14209
578.8591, 33.58203
579.3412, 35.53809
579.8233, 38.28125
580.3054, 42.89307
580.7875, 51.05762
581.2697, 61.28320
581.7518, 71.07764
582.2339, 81.03857
582.7161, 84.64551
583.1982, 75.78662
583.6803, 62.42041
584.1624, 57.27197
584.6445, 61.22070
585.1266, 63.54688
585.6088, 59.14502
586.0909, 53.81787
586.5730, 52.86230
587.0551, 55.69678
587.5372, 58.89258
588.0193, 60.62158
588.5015, 62.16602
588.9836, 66.60254
589.4657, 76.54443
589.9478, 83.74756
590.4299, 85.78516
590.9120, 87.78809
591.3942, 91.81104
591.8763, 97.77246
592.3584, 104.6479
592.8405, 111.7534
593.3226, 120.5522
593.8047, 135.3779
594.2869, 156.0806
594.7690, 170.0361
595.2511, 171.7305
595.7332, 172.7632
596.2153, 184.4580
596.6974, 204.0347
597.1796, 222.6729
597.6617, 242.4453
598.1438, 257.4102
598.6259, 263.5732
599.1080, 262.8394
599.5901, 258.4756
600.0723, 251.6846
600.5544, 242.1899
601.0365, 230.0786
601.5186, 215.3916
602.0007, 196.6538
602.4828, 166.2080
602.9650, 141.1855
603.4471, 127.6528
603.9292, 119.0884
604.4113, 108.7236
604.8934, 95.51855
605.3755, 83.18359
605.8577, 74.72461
606.3398, 69.80127
606.8219, 68.23975
607.3040, 71.11035
607.7861, 70.41504
608.2682, 60.44043
608.7504, 46.26074
609.2325, 36.31396
609.7146, 30.78564
610.1967, 27.67480
610.6788, 27.62109
611.1609, 28.80029
611.6431, 29.86719
612.1252, 30.70166
612.6073, 32.34229
613.0894, 35.63184
613.5715, 37.56445
614.0536, 30.04395
614.5358, 4.834961
615.0179, 9.201172
615.5000, 2.756348
615.9821, 5.740723
616.4642, 9.441895
616.9464, 9.506348
617.4285, 8.826660
617.9106, 8.422363
618.3927, 8.676758
618.8748, 11.30713
619.3569, 15.74707
619.8391, 18.92773
620.3212, 20.53174
620.8033, 20.74365
621.2854, 19.99463
621.7675, 18.55859
622.2496, 18.07324
622.7318, 19.72021
623.2139, 20.66406
623.6960, 18.78564
624.1781, 16.55615
624.6602, 17.63037
625.1423, 21.64014
625.6245, 24.18604
626.1066, 21.12158
626.5887, 14.37793
627.0708, 11.47656
627.5529, 14.75049
628.0350, 16.03955
628.5172, 10.89404
628.9993, 5.390137
629.4814, 2.951172
629.9635, 3.697754
630.4456, 6.851074
630.9277, 15.13965
631.4099, 23.11279
631.8920, 23.35498
632.3741, 17.72510
632.8562, 14.66113
633.3383, 17.04248
633.8204, 19.36475
634.3026, 14.75293
634.7847, 1.969238
635.2668, 3.044434
635.7489, 5.049805
636.2310, 13.36035
636.7131, 17.65527
637.1953, 19.80225
637.6774, 22.98584
638.1595, 27.76123
638.6416, 31.15479
639.1237, 29.90869
639.6058, 24.72461
640.0880, 18.40430
640.5701, 9.865723
641.0522, 4.649902
641.5343, 5.923340
642.0164, 11.11963
642.4985, 17.87354
642.9807, 26.40039
643.4628, 30.08936
643.9449, 24.01709
644.4270, 15.15039
644.9091, 6.696289
645.3912, 0.2363280
645.8734, 0.5141600
646.3555, 9.482422
646.8376, 20.30713
647.3197, 21.82861
647.8018, 11.89941
648.2839, 4.759277
648.7661, 1.187988
649.2482, 0.4350590
649.7303, 0.9633790
650.2124, 3.205566
650.6945, 2.703613
651.1766, 1.425293
651.6588, 3.573242
652.1409, 3.300781
652.6230, 14.32764
653.1051, 19.04346
653.5872, 16.97559
654.0693, 13.50049
654.5515, 10.65527
655.0336, 9.305176
655.5157, 11.65332
655.9978, 20.90381
656.4799, 26.47461
656.9620, 25.47314
657.4442, 23.05322
657.9263, 21.32422
658.4084, 20.34766
658.8905, 19.67139
659.3726, 19.11865
659.8547, 19.04590
660.3369, 20.87744
660.8190, 24.29395
661.3011, 24.06689
661.7832, 18.89209
662.2653, 12.89111
662.7474, 7.485352
663.2296, 3.098633
663.7117, 0.4863280
664.1938, 0.1293950
664.6759, 0.2875980
665.1580, 1.949707
665.6401, 4.140137
666.1223, 6.921875
666.6044, 9.700684
667.0865, 10.69336
667.5686, 8.918945
668.0507, 5.847656
668.5328, 4.116699
669.0150, 3.797363
669.4971, 4.649902
669.9792, 8.287598
670.4613, 11.01172
670.9434, 10.59131
671.4255, 8.580078
671.9077, 7.052246
672.3898, 6.291016
672.8719, 6.638184
673.3540, 12.00293
673.8361, 17.87256
674.3182, 15.29004
674.8004, 4.988770
675.2825, 1.481934
675.7646, 3.207520
676.2467, 13.35449
676.7288, 15.28125
677.2109, 2.336426
677.6931, 3.234375
678.1752, 3.578613
678.6573, 11.78711
679.1394, 17.92871
679.6215, 21.88086
680.1036, 23.78906
680.5858, 23.61084
681.0679, 22.12939
681.5500, 19.66797
682.0321, 16.49561
682.5142, 12.28174
682.9963, 6.782227
683.4785, 5.660156
683.9606, 13.70264
684.4427, 26.18945
684.9248, 32.19434
685.4069, 29.56201
685.8890, 25.19238
686.3712, 14.89795
686.8533, 7.293457
687.3354, 9.651855
687.8175, 17.40137
688.2996, 22.65723
688.7817, 22.47168
689.2639, 18.21826
689.7460, 9.118164
690.2281, 3.448730
690.7102, 8.856445
691.1923, 5.121582
691.6744, 1.062988
692.1566, 0.9003910
692.6387, 3.191895
693.1208, 5.710938
693.6029, 8.996094
694.0850, 9.652832
694.5671, 5.471191
695.0493, 0.1357420
695.5314, 4.477051
696.0135, 8.308105
696.4956, 12.10205
696.9777, 15.99902
697.4598, 18.33838
697.9420, 16.29541
698.4241, 10.08496
698.9062, 5.172852
699.3883, 1.149414
699.8704, 2.5390999E-02
700.3525, 5.311523
700.8347, 12.47363
701.3168, 13.85254
701.7989, 8.808105
702.2810, 5.645996
702.7631, 7.659668
703.2452, 11.32959
703.7274, 14.90088
704.2095, 18.07520
704.6916, 20.34766
705.1737, 21.61475
705.6558, 22.68994
706.1379, 24.64307
706.6201, 27.36475
707.1022, 28.98486
707.5843, 29.09180
708.0664, 29.21484
708.5485, 31.60840
709.0306, 32.70801
709.5128, 27.76758
709.9949, 17.64307
710.4770, 10.45605
710.9591, 11.30664
711.4412, 13.67529
711.9233, 13.37451
712.4055, 11.06982
712.8876, 7.080566
713.3697, 1.971680
713.8518, 0.6513670
714.3339, 3.495117
714.8160, 13.04248
715.2982, 17.26025
715.7803, 13.49512
716.2624, 10.67285
716.7445, 11.57715
717.2266, 13.16650
717.7087, 12.02393
718.1909, 9.395996
718.6730, 10.83936
719.1551, 22.21338
719.6372, 32.47314
720.1193, 31.59570
720.6014, 25.39160
721.0836, 24.32666
721.5657, 29.56836
722.0478, 35.03418
722.5299, 36.24316
723.0120, 34.16602
723.4941, 32.35889
723.9763, 31.41846
724.4584, 29.00635
724.9405, 21.92139
725.4226, 16.42383
725.9047, 15.84912
726.3868, 19.45166
726.8690, 26.32959
727.3511, 38.40820
727.8332, 47.56055
728.3153, 47.72803
728.7974, 42.77783
729.2795, 36.65234
729.7617, 30.31396
730.2438, 25.06152
730.7259, 21.53662
731.2080, 19.76465
731.6901, 20.25537
732.1722, 24.02100
732.6544, 25.54004
733.1365, 21.98193
733.6186, 19.98584
734.1007, 24.67334
734.5828, 30.77881
735.0649, 30.49170
735.5471, 21.91748
736.0292, 15.56152
736.5113, 17.49756
736.9934, 22.18066
737.4755, 25.40869
737.9576, 26.65674
738.4398, 24.35156
738.9219, 18.07422
739.4040, 12.23633
739.8861, 12.83984
740.3682, 19.72021
740.8503, 23.24170
741.3325, 21.36963
741.8146, 20.34131
742.2967, 23.95312
742.7788, 27.45703
743.2609, 25.81445
743.7430, 19.68848
744.2252, 15.53174
744.7073, 17.62012
745.1894, 19.77539
745.6715, 15.84424
746.1536, 10.28271
746.6357, 11.92236
747.1179, 21.06787
747.6000, 28.61475
748.0821, 26.73340
748.5642, 18.66113
749.0463, 15.70459
749.5284, 19.27002
750.0106, 21.69385
750.4927, 21.81934
750.9748, 20.57910
751.4569, 18.08594
751.9390, 14.88574
752.4211, 12.02734
752.9033, 9.414063
753.3854, 7.405762
753.8675, 5.965820
754.3496, 5.103027
754.8317, 6.136719
755.3138, 7.706543
755.7960, 5.012695
756.2781, 4.166504
756.7602, 13.09180
757.2423, 10.01074
757.7244, 4.552246
758.2065, 12.92432
758.6887, 13.12939
759.1708, 12.31787
759.6529, 13.21973
760.1350, 14.95312
760.6171, 16.31738
761.0992, 17.29590
761.5814, 18.52344
762.0635, 20.23975
762.5456, 22.10107
763.0277, 23.67578
763.5098, 25.47607
763.9919, 29.68457
764.4741, 35.59766
764.9562, 37.65479
765.4383, 29.90088
765.9204, 17.52734
766.4025, 11.86768
766.8846, 12.83643
767.3668, 18.34326
767.8489, 29.55273
768.3310, 39.46436
768.8131, 42.10791
769.2952, 38.46289
769.7773, 34.30713
770.2595, 27.81250
770.7416, 23.31787
771.2237, 21.40039
771.7058, 21.09961
772.1879, 23.53564
772.6700, 27.66602
773.1522, 30.02979
773.6343, 28.70166
774.1164, 26.23926
774.5985, 24.81348
775.0806, 24.37500
775.5627, 25.59570
776.0449, 28.22656
776.5270, 29.06152
777.0091, 26.64404
777.4912, 22.11426
777.9733, 16.79395
778.4554, 10.23193
778.9376, 6.635742
779.4197, 8.937500
779.9019, 10.25244
780.3840, 8.548340
780.8661, 5.709961
781.3482, 2.403809
781.8303, 0.7685550
782.3124, 1.321289
782.7946, 3.579590
783.2767, 9.171875
783.7588, 11.79932
784.2409, 12.29541
784.7230, 11.18701
785.2051, 9.111816
785.6873, 8.840820
786.1694, 12.41357
786.6515, 18.69971
787.1336, 25.44238
787.6157, 33.24463
788.0978, 38.01611
788.5800, 38.22607
789.0621, 37.69873
789.5442, 39.99023
790.0263, 42.25098
790.5084, 38.93799
790.9905, 28.33594
791.4727, 20.32568
791.9548, 19.31299
792.4369, 19.70801
792.9190, 18.43994
793.4011, 15.91357
793.8832, 12.13721
794.3654, 7.640137
794.8475, 5.460938
795.3296, 9.261230
795.8117, 16.90771
796.2938, 22.17383
796.7759, 25.40039
797.2581, 28.55420
797.7402, 32.20020
798.2223, 35.09863
798.7044, 36.17432
799.1865, 35.52979
799.6686, 33.98340
800.1508, 27.97021
800.6329, 26.26904
801.1150, 33.79102
801.5971, 41.00830
802.0792, 42.48682
802.5613, 39.86865
803.0435, 35.94189
803.5256, 31.32812
804.0077, 29.06934
804.4898, 35.79004
804.9719, 43.77881
805.4540, 38.98535
805.9362, 24.63037
806.4183, 15.76758
806.9004, 17.73779
807.3825, 23.77979
807.8646, 26.60449
808.3467, 26.24561
808.8289, 22.03320
809.3110, 10.57129
809.7931, 4.675293
810.2752, 10.57959
810.7573, 19.06299
811.2394, 22.56348
811.7216, 22.54395
812.2037, 24.01904
812.6858, 30.05762
813.1679, 33.14404
813.6500, 26.74561
814.1321, 19.37842
814.6143, 18.93506
815.0964, 24.41553
815.5785, 31.47559
816.0606, 37.44922
816.5427, 40.58789
817.0248, 35.80615
817.5070, 26.75098
817.9891, 28.49512
818.4712, 41.21729
818.9533, 50.40430
819.4354, 50.54883
819.9175, 45.67285
820.3997, 40.56543
820.8818, 35.38672
821.3639, 29.50439
821.8460, 19.24902
822.3281, 13.92871
822.8102, 16.54004
823.2924, 22.32227
823.7745, 30.69287
824.2566, 39.52539
824.7387, 44.45605
825.2208, 44.53320
825.7029, 39.80664
826.1851, 25.85645
826.6672, 10.28223
827.1493, 1.652344
827.6314, 0.5234380
828.1135, 1.416016
828.5956, 6.236816
829.0778, 9.308594
829.5599, 3.135254
830.0420, 9.984863
830.5241, 13.35986
831.0062, 5.349609
831.4883, 1.691406
831.9705, 4.089844
832.4526, 5.014648
832.9347, 7.114258
833.4168, 10.33252
833.8989, 14.26807
834.3810, 20.70459
834.8632, 26.05322
835.3453, 29.59326
835.8274, 31.13037
836.3095, 29.01318
836.7916, 25.70947
837.2737, 25.83105
837.7559, 30.84521
838.2380, 35.61279
838.7201, 36.86621
839.2022, 35.28711
839.6843, 29.87891
840.1664, 22.44287
840.6486, 18.72803
841.1307, 20.23291
841.6128, 23.13232
842.0949, 23.60254
842.5770, 22.32275
843.0591, 22.93799
843.5413, 26.28906
844.0234, 26.81738
844.5055, 22.08252
844.9876, 17.31738
845.4697, 16.81982
845.9518, 18.79053
846.4340, 17.46777
846.9161, 9.818848
847.3982, 7.171875
847.8803, 16.79248
848.3624, 25.12842
848.8445, 23.40771
849.3267, 17.27295
849.8088, 14.88232
850.2909, 17.46924
850.7730, 20.27295
851.2551, 21.64014
851.7372, 20.22314
852.2194, 10.76953
852.7015, 2.137695
853.1836, 5.898438
853.6657, 0.8500980
854.1478, 9.064453
854.6299, 12.83105
855.1121, 13.40674
855.5942, 13.38330
856.0763, 12.64697
856.5584, 11.94727
857.0405, 10.86426
857.5226, 10.86963
858.0048, 12.36475
858.4869, 15.48340
858.9690, 21.84814
859.4511, 31.96484
859.9332, 36.55273
860.4153, 30.79834
860.8975, 25.25000
861.3796, 21.77930
861.8617, 20.50928
862.3438, 22.20508
862.8259, 26.11426
863.3080, 30.55566
863.7902, 35.34424
864.2723, 38.52295
864.7544, 38.01172
865.2365, 35.12988
865.7186, 31.71777
866.2007, 27.86670
866.6829, 22.40186
867.1650, 15.04834
867.6471, 9.748535
868.1292, 12.63965
868.6113, 21.40723
869.0934, 20.38037
869.5756, 7.316406
870.0577, 1.503906
870.5398, 9.583496
871.0219, 19.98682
871.5040, 24.73291
871.9861, 24.35986
872.4683, 20.44385
872.9504, 6.611328
873.4325, 1.401855
873.9146, 15.05713
874.3967, 25.93506
874.8788, 22.81641
875.3610, 12.75684
875.8431, 3.660645
876.3252, 2.915039
876.8073, 5.622070
877.2894, 1.870117
877.7715, 3.920898
878.2537, 8.873535
878.7358, 13.37549
879.2179, 18.38672
879.7000, 23.67676
880.1821, 27.80273
880.6642, 29.94043
881.1464, 30.63574
881.6285, 30.83545
882.1106, 30.35303
882.5927, 27.39160
883.0748, 21.76660
883.5569, 18.22266
884.0391, 19.00830
884.5212, 20.63867
885.0033, 18.49023
885.4854, 12.94287
885.9675, 11.78906
886.4496, 19.22559
886.9318, 22.71338
887.4139, 17.69531
887.8960, 10.88672
888.3781, 6.260742
888.8602, 4.030762
889.3423, 3.124512
889.8245, 3.453613
890.3066, 3.526855
890.7887, 4.284668
891.2708, 3.295898
891.7529, 3.697266
892.2350, 11.76904
892.7172, 13.55371
893.1993, 8.801270
893.6814, 3.696777
894.1635, 2.361328
894.6456, 1.530762
895.1277, 3.336426
895.6099, 10.46240
896.0920, 16.75391
896.5741, 21.40967
897.0562, 21.85205
897.5383, 16.69531
898.0204, 9.856934
898.5026, 7.172363
898.9847, 8.242188
899.4668, 8.392090
899.9489, 7.484375
900.4310, 6.148926
900.9131, 4.176758
901.3953, 2.674805
901.8774, 2.494141
902.3595, 3.637207
902.8416, 6.076172
903.3237, 11.60986
903.8058, 15.32520
904.2880, 17.22217
904.7701, 17.52588
905.2522, 15.24561
905.7343, 12.11230
906.2164, 9.578125
906.6985, 7.973633
907.1807, 8.882324
907.6628, 15.78906
908.1449, 21.89209
908.6270, 21.30420
909.1091, 19.35254
909.5912, 23.61328
910.0734, 32.16406
910.5555, 36.08789
911.0376, 31.30615
911.5197, 26.54980
912.0018, 31.05908
912.4839, 40.86719
912.9661, 47.78906
913.4482, 52.30664
913.9303, 57.60742
914.4124, 64.62939
914.8945, 73.79395
915.3766, 86.23438
915.8588, 99.65723
916.3409, 106.7471
916.8230, 107.1099
917.3051, 104.4404
917.7872, 96.97217
918.2693, 93.02637
918.7515, 97.64209
919.2336, 106.5166
919.7157, 112.4399
920.1978, 114.7153
920.6799, 121.0371
921.1620, 131.7324
921.6442, 146.0874
922.1263, 166.0776
922.6084, 187.6997
923.0905, 209.2998
923.5726, 230.2422
924.0547, 249.0742
924.5369, 264.3735
925.0190, 281.9585
925.5011, 310.2549
925.9832, 334.8818
926.4653, 342.5967
926.9474, 342.7896
927.4296, 349.0215
927.9117, 362.8911
928.3938, 378.7363
928.8759, 395.9917
929.3580, 407.0977
929.8401, 400.6343
930.3223, 383.3203
930.8044, 365.9995
931.2865, 350.1958
931.7686, 336.3887
932.2507, 324.7949
932.7328, 315.4509
933.2150, 309.4954
933.6971, 305.8083
934.1792, 297.9424
934.6613, 286.0295
935.1434, 279.6084
935.6255, 280.5608
936.1077, 285.4358
936.5898, 292.7732
937.0719, 301.3228
937.5540, 307.4990
938.0361, 309.8220
938.5182, 322.4426
939.0004, 348.0581
939.4825, 375.8943
939.9646, 402.8103
940.4467, 431.6445
940.9288, 467.7012
941.4109, 508.5593
941.8931, 542.9019
942.3752, 572.2708
942.8573, 591.6028
943.3394, 598.3457
943.8215, 597.1296
944.3036, 591.3936
944.7858, 578.4297
945.2679, 552.3040
945.7500, 513.5806
946.2321, 473.6357
946.7142, 434.7065
947.1964, 399.2493
947.6785, 370.2053
948.1606, 344.1497
948.6427, 316.0542
949.1248, 287.6948
949.6069, 263.8313
950.0891, 246.1812
950.5712, 233.3296
951.0533, 227.3137
951.5354, 223.4231
952.0175, 211.1692
952.4996, 194.4380
952.9818, 186.0403
953.4639, 187.0095
953.9460, 186.7771
954.4281, 178.4644
954.9102, 167.5474
955.3923, 163.9668
955.8745, 166.8936
956.3566, 169.6313
956.8387, 172.2563
957.3208, 170.0879
957.8029, 161.0386
958.2850, 150.3306
958.7672, 142.4124
959.2493, 137.0945
959.7314, 134.4155
960.2135, 136.8152
960.6956, 131.9182
961.1777, 113.4607
961.6599, 99.82153
962.1420, 101.0564
962.6241, 108.4651
963.1062, 112.0330
963.5883, 111.7383
964.0704, 109.8081
964.5526, 105.0520
965.0347, 100.4551
965.5168, 96.44531
965.9989, 92.45776
966.4810, 88.91772
966.9631, 84.90771
967.4453, 79.01587
967.9274, 71.03467
968.4095, 62.07812
968.8916, 52.47974
969.3737, 41.96631
969.8558, 28.21826
970.3380, 15.28711
970.8201, 6.432617
971.3022, 1.900635
971.7843, 2.203369
972.2664, 7.909668
972.7485, 12.33203
973.2307, 10.21069
973.7128, 5.561279
974.1949, 0.5297850
974.6770, 3.615234
975.1591, 5.638916
975.6412, 5.098633
976.1234, 0.7873540
976.6055, 8.431396
977.0876, 17.61499
977.5698, 18.67480
978.0519, 16.13672
978.5340, 21.15503
979.0161, 32.00977
979.4982, 40.38818
979.9803, 44.01758
980.4625, 44.37085
980.9446, 42.24854
981.4267, 38.88232
981.9088, 38.16748
982.3909, 39.35229
982.8730, 32.73608
983.3552, 17.47144
983.8373, 9.689697
984.3194, 16.38379
984.8015, 25.60645
985.2836, 24.49585
985.7657, 15.38452
986.2479, 9.481201
986.7300, 7.103027
987.2121, 7.057373
987.6942, 10.87207
988.1763, 12.04761
988.6584, 6.225098
989.1406, 1.585449
989.6227, 4.503662
990.1048, 2.568115
990.5869, 1.229248
991.0690, 2.317627
991.5511, 0.4240720
992.0333, 8.478516
992.5154, 15.53613
992.9975, 15.87451
993.4796, 12.15015
993.9617, 8.409180
994.4438, 4.762695
994.9260, 0.1601560
995.4081, 12.82910
995.8902, 17.93164
996.3723, 5.001221
996.8544, 9.409424
997.3365, 14.04346
997.8187, 11.98218
998.3008, 9.963379
998.7829, 9.012939
999.2650, 8.178223
999.7471, 7.382324
1000.229, 6.372803
1000.711, 2.919189
1001.193, 0.8859860
1001.676, 5.714111
1002.158, 14.87500
1002.640, 21.60034
1003.122, 23.86890
1003.604, 23.43652
1004.086, 19.77124
1004.568, 15.37036
1005.050, 11.02148
1005.533, 7.921143
1006.015, 7.234619
1006.497, 9.308350
1006.979, 16.15723
1007.461, 29.57837
1007.943, 38.36401
1008.425, 24.47021
1008.907, 6.664551
1009.389, 12.96753
1009.872, 33.46240
1010.354, 46.11694
1010.836, 47.90698
1011.318, 47.87134
1011.800, 51.11963
1012.282, 55.48999
1012.764, 58.53003
1013.246, 60.63916
1013.729, 63.36841
1014.211, 65.97388
1014.693, 65.21826
1015.175, 60.65942
1015.657, 55.35840
1016.139, 51.39771
1016.621, 48.15234
1017.103, 44.10449
1017.585, 39.83154
1018.068, 38.34595
1018.550, 39.48999
1019.032, 40.27295
1019.514, 39.81958
1019.996, 40.52734
1020.478, 44.85181
1020.960, 49.76660
1021.442, 47.12476
1021.924, 37.31323
1022.407, 30.63013
1022.889, 27.62842
1023.371, 23.77368
1023.853, 17.43286
1024.335, 10.97949
1024.817, 6.344727
1025.299, 3.505371
1025.781, 2.244629
1026.264, 2.395996
1026.746, 6.216797
1027.228, 15.10254
1027.710, 21.35693
1028.192, 22.02271
1028.674, 20.33667
1029.156, 19.52075
1029.638, 18.81836
1030.120, 13.82422
1030.603, 0.6105960
1031.085, 1.296631
1031.567, 13.32910
1032.049, 27.38574
1032.531, 36.15527
1033.013, 39.96338
1033.495, 38.32275
1033.977, 32.38550
1034.459, 26.45557
1034.942, 18.92212
1035.424, 15.05981
1035.906, 16.60229
1036.388, 18.96143
1036.870, 21.52246
1037.352, 23.23657
1037.834, 22.46191
1038.316, 19.77539
1038.799, 18.54443
1039.281, 17.43140
1039.763, 20.39893
1040.245, 33.57568
1040.727, 42.99268
1041.209, 43.87573
1041.691, 39.31934
1042.173, 29.55713
1042.656, 16.25244
1043.138, 8.321533
1043.620, 8.776855
1044.102, 9.188232
1044.584, 9.068848
1045.066, 8.815430
1045.548, 9.186768
1046.030, 9.017822
1046.512, 6.695557
1046.995, 2.639160
1047.477, 0.7775880
1047.959, 2.946289
1048.441, 4.249512
1048.923, 6.107910
1049.405, 5.480957
1049.887, 1.225098
1050.369, 9.090820
1050.851, 12.78735
1051.334, 13.18750
1051.816, 15.11377
1052.298, 20.69263
1052.780, 24.03613
1053.262, 21.98853
1053.744, 18.43164
1054.226, 14.42480
1054.708, 11.81079
1055.191, 12.34595
1055.673, 15.49805
1056.155, 18.22412
1056.637, 19.23877
1057.119, 21.94214
1057.601, 30.02612
1058.083, 36.72852
1058.565, 39.49707
1059.047, 38.61279
1059.530, 32.49731
1060.012, 23.61255
1060.494, 17.46704
1060.976, 16.35815
1061.458, 15.72656
1061.940, 12.50073
1062.422, 11.12915
1062.904, 15.96997
1063.386, 22.14941
1063.869, 24.80225
1064.351, 24.53760
1064.833, 24.22876
1065.315, 24.67920
1065.797, 24.72803
1066.279, 23.21533
1066.761, 22.75220
1067.243, 25.48828
1067.726, 28.28662
1068.208, 28.41333
1068.690, 26.18066
1069.172, 22.09326
1069.654, 16.14185
1070.136, 11.39697
1070.618, 8.295166
1071.100, 7.928223
1071.583, 13.33911
1072.065, 20.35083
1072.547, 25.55396
1073.029, 28.46460
1073.511, 28.99976
1073.993, 27.49170
1074.475, 25.59766
1074.957, 24.18286
1075.439, 22.08545
1075.922, 15.15405
1076.404, 10.52051
1076.886, 17.07593
1077.368, 29.64941
1077.850, 38.51660
1078.332, 41.88013
1078.814, 43.09229
1079.296, 40.81592
1079.779, 40.63257
1080.261, 47.77124
1080.743, 55.65430
1081.225, 60.25098
1081.707, 61.17017
1082.189, 55.92383
1082.671, 45.86572
1083.153, 42.08398
1083.635, 51.95947
1084.118, 63.04199
1084.600, 71.43677
1085.082, 77.19556
1085.564, 79.87500
1086.046, 80.23462
1086.528, 77.51709
1087.010, 73.07080
1087.492, 72.86206
1087.974, 80.38672
1088.457, 88.22925
1088.939, 89.82300
1089.421, 94.96680
1089.903, 115.5481
1090.385, 138.4014
1090.867, 146.8875
1091.349, 143.9224
1091.831, 146.4131
1092.314, 161.0403
1092.796, 171.8352
1093.278, 169.0459
1093.760, 165.5916
1094.242, 166.5352
1094.724, 171.1750
1095.206, 180.4043
1095.688, 192.1355
1096.171, 202.1982
1096.653, 209.9690
1097.135, 214.1338
1097.617, 213.4900
1098.099, 210.2637
1098.581, 207.6775
1099.063, 200.6736
1099.545, 179.5796
1100.027, 153.2705
1100.510, 141.3335
1100.992, 146.7717
1101.474, 143.9758
1101.956, 120.2642
1102.438, 97.59033
1102.920, 78.48682
1103.402, 65.58911
1103.884, 62.35181
1104.366, 65.19922
1104.849, 71.74927
1105.331, 80.86279
1105.813, 82.77271
1106.295, 68.11816
1106.777, 58.75806
1107.259, 65.86279
1107.741, 69.46411
1108.223, 55.54492
1108.706, 36.68164
1109.188, 25.89185
1109.670, 22.38477
1110.152, 20.24512
1110.634, 21.26978
1111.116, 18.70483
1111.598, 5.703125
1112.080, 2.286133
1112.563, 4.352783
1113.045, 12.96680
1113.527, 12.31494
1114.009, 6.316162
1114.491, 5.837158
1114.973, 12.96606
1115.455, 16.87427
1115.937, 17.49023
1116.419, 14.74292
1116.901, 3.385010
1117.384, 3.725830
1117.866, 4.740723
1118.348, 18.99951
1118.830, 21.37939
1119.312, 11.31812
1119.794, 9.554199
1120.276, 21.82471
1120.758, 26.63965
1121.241, 17.89771
1121.723, 10.57593
1122.205, 13.14575
1122.687, 16.99243
1123.169, 10.87573
1123.651, 2.699463
1124.133, 8.816650
1124.615, 5.871582
1125.098, 2.405518
1125.580, 1.900635
1126.062, 4.295166
1126.544, 3.484131
1127.026, 2.537842
1127.508, 4.611816
1127.990, 7.299072
1128.472, 3.602783
1128.954, 6.730713
1129.437, 12.95410
1129.919, 15.11548
1130.401, 12.08643
1130.883, 3.116943
1131.365, 3.972656
1131.847, 4.059570
1132.329, 2.609863
1132.811, 8.677490
1133.293, 19.82568
1133.776, 23.97412
1134.258, 21.92041
1134.740, 21.25684
1135.222, 22.86426
1135.704, 26.14526
1136.186, 30.82056
1136.668, 35.34546
1137.150, 38.44019
1137.633, 39.83228
1138.115, 37.97144
1138.597, 34.16113
1139.079, 32.76147
1139.561, 33.27783
1140.043, 32.87646
1140.525, 30.72583
1141.007, 25.97070
1141.490, 17.42749
1141.972, 10.97046
1142.454, 15.55957
1142.936, 25.49487
1143.418, 33.68433
1143.900, 39.02417
1144.382, 39.34131
1144.864, 35.09961
1145.346, 28.25146
1145.828, 19.68555
1146.311, 11.33594
1146.793, 1.634033
1147.275, 3.680908
1147.757, 3.391113
1148.239, 15.75928
1148.721, 27.69849
1149.203, 37.09351
1149.685, 41.35327
1150.168, 40.38452
1150.650, 37.54785
1151.132, 33.34277
1151.614, 29.71045
1152.096, 28.14917
1152.578, 26.85229
1153.060, 23.80859
1153.542, 20.84668
1154.025, 20.64941
1154.507, 22.48218
1154.989, 23.29980
1155.471, 22.34424
1155.953, 21.15259
1156.435, 18.53882
1156.917, 17.89746
1157.399, 21.88794
1157.881, 26.64966
1158.364, 29.07764
1158.846, 30.75977
1159.328, 35.83423
1159.810, 44.57983
1160.292, 46.73169
1160.774, 38.34863
1161.256, 30.43213
1161.738, 22.81738
1162.220, 16.80835
1162.703, 13.29883
1163.185, 10.98193
1163.667, 8.178711
1164.149, 5.844482
1164.631, 7.349609
1165.113, 13.32812
1165.595, 19.54468
1166.077, 26.46338
1166.560, 31.71875
1167.042, 34.89941
1167.524, 35.63086
1168.006, 33.19751
1168.488, 30.05884
1168.970, 30.16626
1169.452, 32.56982
1169.934, 32.15186
1170.417, 29.58789
1170.899, 28.42139
1171.381, 28.93726
1171.863, 30.47729
1172.345, 32.84155
1172.827, 35.89575
1173.309, 40.18311
1173.791, 43.33862
1174.273, 41.30981
1174.755, 36.98145
1175.238, 36.99829
1175.720, 40.46216
1176.202, 42.40234
1176.684, 42.24805
1177.166, 42.40356
1177.648, 43.92310
1178.130, 42.85474
1178.612, 33.53442
1179.095, 22.56567
1179.577, 14.87866
1180.059, 10.69946
1180.541, 11.64453
1181.023, 15.65430
1181.505, 19.34058
1181.987, 21.71362
1182.469, 22.64990
1182.952, 20.70874
1183.434, 20.56714
1183.916, 26.22095
1184.398, 31.35303
1184.880, 31.69312
1185.362, 30.49023
1185.844, 30.46802
1186.326, 31.57715
1186.808, 32.86792
1187.291, 34.50879
1187.773, 35.76929
1188.255, 34.77490
1188.737, 37.58179
1189.219, 50.87573
1189.701, 58.59448
1190.183, 51.73975
1190.665, 38.68628
1191.147, 26.11914
1191.630, 15.70068
1192.112, 16.25220
1192.594, 31.84326
1193.076, 37.83081
1193.558, 31.36621
1194.040, 27.53638
1194.522, 30.24121
1195.004, 33.71973
1195.487, 34.58105
1195.969, 33.85327
1196.451, 33.20239
1196.933, 31.93091
1197.415, 26.17725
1197.897, 17.17773
1198.379, 11.94263
1198.861, 10.81592
1199.344, 12.01880
1199.826, 14.94580
1200.308, 19.87988
1200.790, 27.37671
1201.272, 34.56006
1201.754, 38.56372
1202.236, 39.68555
1202.718, 36.64966
1203.200, 31.99268
1203.682, 29.70825
1204.165, 29.78711
1204.647, 30.53979
1205.129, 31.28052
1205.611, 33.49707
1206.093, 39.10059
1206.575, 43.15430
1207.057, 43.11914
1207.539, 40.62842
1208.022, 33.65601
1208.504, 27.18677
1208.986, 28.61133
1209.468, 35.61230
1209.950, 38.63330
1210.432, 35.67358
1210.914, 32.77563
1211.396, 30.05737
1211.879, 27.90137
1212.361, 26.20752
1212.843, 25.27075
1213.325, 24.76221
1213.807, 25.86157
1214.289, 30.52344
1214.771, 37.78589
1215.253, 43.14331
1215.735, 46.47339
1216.218, 48.91284
1216.700, 50.67725
1217.182, 47.45435
1217.664, 37.90479
1218.146, 31.91919
1218.628, 35.51904
1219.110, 43.01514
1219.592, 47.43066
1220.074, 49.82373
1220.557, 52.03320
1221.039, 54.26050
1221.521, 58.46362
1222.003, 63.29565
1222.485, 63.97168
1222.967, 59.85596
1223.449, 54.88452
1223.931, 51.32715
1224.414, 46.29272
1224.896, 35.92163
1225.378, 25.17212
1225.860, 17.51147
1226.342, 11.72314
1226.824, 5.964600
1227.306, 1.202393
1227.788, 0.1130370
1228.271, 2.169434
1228.753, 5.169678
1229.235, 11.87158
1229.717, 12.97632
1230.199, 3.3447001E-02
1230.681, 8.676025
1231.163, 4.659668
1231.645, 2.231445
1232.127, 4.915771
1232.609, 5.874512
1233.092, 9.974121
1233.574, 17.11426
1234.056, 24.55591
1234.538, 32.73926
1235.020, 36.76660
1235.502, 35.98315
1235.984, 32.10815
1236.466, 25.50903
1236.949, 22.29419
1237.431, 27.78345
1237.913, 35.84302
1238.395, 36.16431
1238.877, 31.80835
1239.359, 30.13696
1239.841, 29.80762
1240.323, 26.70190
1240.806, 21.67651
1241.288, 19.61743
1241.770, 21.45215
1242.252, 22.27148
1242.734, 18.83301
1243.216, 15.19629
1243.698, 13.02368
1244.180, 12.71509
1244.662, 17.04419
1245.145, 21.20386
1245.627, 19.77319
1246.109, 14.44434
1246.591, 9.190186
1247.073, 4.312012
1247.555, 1.603760
1248.037, 2.039551
1248.519, 3.135742
1249.001, 6.456543
1249.484, 6.581543
1249.966, 2.6860000E-03
1250.448, 6.141113
1250.930, 6.156494
1251.412, 2.233398
1251.894, 1.833496
1252.376, 5.888916
1252.858, 8.253662
1253.341, 9.186279
1253.823, 11.00928
1254.305, 13.94263
1254.787, 17.71021
1255.269, 22.04175
1255.751, 27.11353
1256.233, 33.38013
1256.715, 35.66406
1257.198, 28.84058
1257.680, 21.79272
1258.162, 25.21387
1258.644, 32.52759
1259.126, 34.81763
1259.608, 34.12378
1260.090, 37.76416
1260.572, 45.96802
1261.054, 49.02734
1261.536, 40.34424
1262.019, 35.27026
1262.501, 40.76758
1262.983, 44.48755
1263.465, 39.71655
1263.947, 35.84009
1264.429, 40.39478
1264.911, 46.70532
1265.393, 44.28442
1265.876, 35.23926
1266.358, 31.79980
1266.840, 31.56299
1267.322, 27.61890
1267.804, 18.25122
1268.286, 12.16333
1268.768, 11.66504
1269.250, 14.27441
1269.733, 18.76855
1270.215, 22.00366
1270.697, 19.10547
1271.179, 14.94556
1271.661, 17.79370
1272.143, 22.77710
1272.625, 22.69727
1273.107, 19.50415
1273.589, 16.28223
1274.072, 14.43359
1274.554, 17.45435
1275.036, 27.82617
1275.518, 31.76343
1276.000, 19.20996
1276.482, 7.841797
1276.964, 1.574707
1277.446, 0.6274410
1277.929, 0.4594730
1278.411, 3.316895
1278.893, 14.42798
1279.375, 28.08569
1279.857, 29.67236
1280.339, 15.22290
1280.821, 8.340088
1281.303, 5.828857
1281.786, 3.374268
1282.268, 0.0000000E+00
##END=



