##NAMES=Edwindavisite
##RRUFFID=R230005
##IDEAL CHEMISTRY=Cu^2+^((C_2_)^6+^O_4_)(N^3-^H_3_)
##LOCALITY=125' Level, Rowley mine, Maricopa County, Arizona, USA
##OWNER=RRUFF
##SOURCE=Joe Marty
##DESCRIPTION=Radiating clusters of bladed or prismatic grass-green crystals, associated with blue ammineite. Type sample
##STATUS=The identification of this mineral is confirmed by single-crystal X-ray diffraction and chemical analysis.
##URL=rruff.info/R230005
89.55957, 0.0000000E+00
90.04169, 2.435623
90.52380, 4.590668
91.00592, 6.412216
91.48804, 8.534927
91.97015, 10.63084
92.45227, 13.42165
92.93439, 17.51408
93.41650, 18.46288
93.89862, 16.60881
94.38074, 13.65587
94.86285, 9.663635
95.34497, 7.236893
95.82709, 5.793381
96.30920, 4.407333
96.79132, 3.205231
97.27344, 2.373276
97.75555, 1.836075
98.23766, 1.348221
98.71978, 1.021149
99.20190, 0.6863100
99.68401, 0.1989140
100.1661, 0.2402800
100.6482, 0.4923860
101.1304, 0.5341030
101.6125, 0.2393650
102.0946, 0.2076420
102.5767, 0.3987270
103.0588, 1.058945
103.5409, 2.652222
104.0231, 4.777176
104.5052, 6.733688
104.9873, 8.557999
105.4694, 10.02534
105.9515, 11.17178
106.4336, 12.15475
106.9158, 12.82518
107.3979, 13.01544
107.8800, 12.67450
108.3621, 11.99620
108.8442, 10.90338
109.3263, 9.569962
109.8085, 8.261871
110.2906, 7.147873
110.7727, 6.262314
111.2548, 6.109482
111.7369, 7.299133
112.2190, 7.836273
112.7012, 6.977142
113.1833, 5.174675
113.6654, 3.625160
114.1475, 3.531273
114.6296, 5.402115
115.1117, 6.546509
115.5939, 6.623398
116.0760, 6.972275
116.5581, 6.833427
117.0402, 6.120201
117.5223, 5.610283
118.0044, 6.095230
118.4866, 8.292625
118.9687, 9.133095
119.4508, 7.385033
119.9329, 4.818092
120.4150, 3.259033
120.8971, 3.256989
121.3793, 4.043213
121.8614, 4.480179
122.3435, 4.622917
122.8256, 4.648048
123.3077, 4.593338
123.7898, 4.457474
124.2720, 4.223457
124.7541, 3.825638
125.2362, 3.386444
125.7183, 3.067764
126.2004, 2.895226
126.6825, 2.735542
127.1647, 2.423271
127.6468, 1.911385
128.1289, 1.562080
128.6110, 1.708740
129.0931, 1.949760
129.5752, 2.008461
130.0574, 1.792412
130.5395, 1.410423
131.0216, 1.094231
131.5037, 0.9593050
131.9858, 0.6777650
132.4679, 2.6649000E-02
132.9501, 0.8114240
133.4322, 1.292603
133.9143, 1.253441
134.3964, 0.7802050
134.8785, 0.3760600
135.3606, 0.2121960
135.8427, 6.0699001E-02
136.3249, 0.7893300
136.8070, 1.710526
137.2891, 2.225044
137.7712, 1.857147
138.2533, 0.6130520
138.7354, 0.4489060
139.2176, 1.745651
139.6997, 2.525085
140.1818, 1.970589
140.6639, 0.2878570
141.1460, 1.181625
141.6281, 1.049141
142.1103, 0.6970520
142.5924, 1.615021
143.0745, 1.164650
143.5566, 2.8953999E-02
144.0387, 1.269051
144.5208, 2.784782
145.0030, 3.960556
145.4851, 3.965332
145.9672, 3.122025
146.4493, 2.312820
146.9314, 1.839111
147.4135, 2.150879
147.8957, 2.610054
148.3778, 3.008492
148.8599, 3.881927
149.3420, 5.835243
149.8241, 8.623657
150.3062, 11.18946
150.7884, 12.57780
151.2705, 12.72239
151.7526, 12.94826
152.2347, 13.06792
152.7168, 13.52873
153.1989, 14.83914
153.6811, 16.88821
154.1632, 18.93983
154.6453, 19.95059
155.1274, 19.27766
155.6095, 19.25554
156.0916, 20.51379
156.5738, 21.91151
157.0559, 22.68963
157.5380, 22.66556
158.0201, 22.20309
158.5022, 21.90954
158.9843, 21.60632
159.4665, 21.86224
159.9486, 22.96545
160.4307, 24.44616
160.9128, 26.03393
161.3949, 27.64678
161.8770, 29.00446
162.3592, 29.31742
162.8413, 27.65354
163.3234, 26.45143
163.8055, 26.33228
164.2876, 26.92575
164.7697, 27.67820
165.2519, 28.44530
165.7340, 29.06129
166.2161, 29.10328
166.6982, 28.36315
167.1803, 27.53574
167.6624, 26.75461
168.1445, 26.08567
168.6267, 25.94524
169.1088, 26.99566
169.5909, 28.39539
170.0730, 28.68526
170.5551, 27.49860
171.0372, 25.71102
171.5194, 23.87532
172.0015, 21.94036
172.4836, 20.50204
172.9657, 20.21307
173.4478, 20.42197
173.9299, 20.60981
174.4121, 20.67092
174.8942, 20.58804
175.3763, 20.31018
175.8584, 19.78304
176.3405, 19.23617
176.8226, 18.44879
177.3048, 17.75162
177.7869, 17.60847
178.2690, 18.32713
178.7511, 19.53408
179.2332, 20.00031
179.7153, 18.91151
180.1975, 18.23463
180.6796, 18.87233
181.1617, 19.99002
181.6438, 20.56321
182.1259, 19.98221
182.6080, 18.39690
183.0902, 16.72486
183.5723, 14.06809
184.0544, 12.30431
184.5365, 12.23737
185.0186, 13.24637
185.5007, 14.33812
185.9829, 14.89349
186.4650, 14.93732
186.9471, 14.73540
187.4292, 14.31386
187.9113, 13.65860
188.3934, 12.61650
188.8756, 11.30796
189.3577, 9.966530
189.8398, 8.695446
190.3219, 7.507072
190.8040, 6.910412
191.2861, 7.399372
191.7683, 7.998081
192.2504, 8.215809
192.7325, 8.066250
193.2146, 7.818413
193.6967, 7.698528
194.1788, 7.689861
194.6610, 7.525047
195.1431, 7.028656
195.6252, 6.460011
196.1073, 5.976593
196.5894, 5.558514
197.0715, 5.197605
197.5536, 5.005840
198.0358, 5.007957
198.5179, 5.101273
199.0000, 5.215439
199.4821, 5.297417
199.9642, 5.318810
200.4464, 5.343624
200.9285, 5.260155
201.4106, 4.700310
201.8927, 3.983044
202.3748, 3.664623
202.8569, 4.222458
203.3391, 5.186455
203.8212, 5.562912
204.3033, 5.137569
204.7854, 4.574455
205.2675, 4.048161
205.7496, 3.643566
206.2318, 3.543285
206.7139, 3.991283
207.1960, 4.774319
207.6781, 5.086349
208.1602, 4.539639
208.6423, 4.088406
209.1245, 4.054077
209.6066, 4.323952
210.0887, 4.756199
210.5708, 5.328346
211.0529, 5.975964
211.5350, 6.303940
212.0172, 6.201191
212.4993, 5.862804
212.9814, 4.880993
213.4635, 3.750347
213.9456, 3.380390
214.4277, 4.559128
214.9099, 7.065342
215.3920, 8.307808
215.8741, 6.797230
216.3562, 5.430119
216.8383, 4.608566
217.3204, 4.356548
217.8026, 4.710110
218.2847, 5.776978
218.7668, 7.472370
219.2489, 8.228001
219.7310, 6.943092
220.2131, 5.935165
220.6953, 6.005222
221.1774, 6.835308
221.6595, 7.711823
222.1416, 8.174908
222.6237, 8.235962
223.1058, 8.024872
223.5880, 7.167110
224.0701, 6.468197
224.5522, 6.220448
225.0343, 6.359127
225.5164, 6.704712
225.9985, 7.156219
226.4807, 7.711678
226.9628, 8.322754
227.4449, 9.220879
227.9270, 9.947426
228.4091, 10.21198
228.8912, 10.10283
229.3733, 9.897144
229.8555, 9.701984
230.3376, 9.595997
230.8197, 9.863884
231.3018, 10.79329
231.7839, 11.68860
232.2660, 12.15842
232.7482, 12.26053
233.2303, 12.25938
233.7124, 12.19153
234.1945, 12.20041
234.6766, 12.64851
235.1587, 13.95853
235.6409, 15.16509
236.1230, 15.42095
236.6051, 14.85384
237.0872, 14.57646
237.5693, 15.38889
238.0514, 16.70589
238.5336, 17.31628
239.0157, 16.98299
239.4978, 16.28153
239.9799, 15.51159
240.4620, 14.68373
240.9441, 14.03778
241.4263, 13.62352
241.9084, 13.49912
242.3905, 13.86754
242.8726, 15.01469
243.3547, 15.90424
243.8368, 15.30435
244.3190, 13.18083
244.8011, 11.44714
245.2832, 10.91123
245.7653, 10.97699
246.2474, 11.11495
246.7295, 11.26485
247.2117, 11.46249
247.6938, 11.94038
248.1759, 12.75505
248.6580, 12.91603
249.1401, 11.45894
249.6222, 9.733372
250.1044, 8.706520
250.5865, 8.495399
251.0686, 8.603096
251.5507, 8.642574
252.0328, 8.635235
252.5149, 8.334141
252.9971, 7.148361
253.4792, 6.060944
253.9613, 5.744400
254.4434, 6.202602
254.9255, 6.835800
255.4076, 7.107235
255.8898, 7.008747
256.3719, 6.617550
256.8540, 5.488590
257.3361, 4.406498
257.8182, 3.737038
258.3003, 3.479206
258.7824, 3.410000
259.2646, 3.349377
259.7467, 3.304386
260.2288, 3.209946
260.7109, 2.897625
261.1930, 2.687935
261.6751, 2.833042
262.1573, 3.225353
262.6394, 3.514729
263.1215, 3.347771
263.6036, 2.677120
264.0857, 2.152275
264.5678, 1.892071
265.0500, 1.685356
265.5321, 1.505245
266.0142, 1.325832
266.4963, 1.095707
266.9784, 0.7324830
267.4605, 0.2385860
267.9427, 0.1012650
268.4248, 1.071911
268.9069, 1.669617
269.3890, 1.151867
269.8711, 1.6326999E-02
270.3532, 0.8991050
270.8354, 0.8363990
271.3175, 8.1223004E-02
271.7996, 0.8043140
272.2817, 1.085678
272.7638, 1.439205
273.2459, 2.262241
273.7281, 3.147282
274.2102, 3.374352
274.6923, 2.464653
275.1744, 0.7427860
275.6565, 0.1488230
276.1386, 0.9280430
276.6208, 1.644871
277.1029, 1.572254
277.5850, 1.076698
278.0671, 0.5768170
278.5492, 0.2578960
279.0313, 5.6141000E-02
279.5135, 0.1742250
279.9956, 0.4192350
280.4777, 0.5708390
280.9598, 0.6345940
281.4419, 0.6024670
281.9240, 0.4282490
282.4062, 9.7842999E-02
282.8883, 0.3012540
283.3704, 0.5935360
283.8525, 0.8218420
284.3346, 0.8535880
284.8167, 0.3188670
285.2989, 0.2039110
285.7810, 1.4427000E-02
286.2631, 1.092892
286.7452, 2.246868
287.2273, 2.223221
287.7094, 8.4766001E-02
288.1916, 1.063091
288.6737, 0.3308870
289.1558, 2.225590
289.6379, 3.435837
290.1200, 3.799759
290.6021, 3.449215
291.0843, 2.433624
291.5664, 0.4211690
292.0485, 0.2810170
292.5306, 1.539650
293.0127, 3.482487
293.4948, 4.064278
293.9770, 3.322933
294.4591, 2.194740
294.9412, 1.467728
295.4233, 1.174324
295.9054, 1.046223
296.3875, 1.047108
296.8697, 1.024532
297.3518, 1.079227
297.8339, 1.216595
298.3160, 1.412773
298.7981, 1.684635
299.2802, 2.004616
299.7624, 2.010448
300.2445, 1.104858
300.7266, 0.4583970
301.2087, 0.7759400
301.6908, 1.649956
302.1729, 2.263363
302.6551, 2.156322
303.1372, 1.587555
303.6193, 1.481770
304.1014, 2.373165
304.5835, 3.043991
305.0656, 3.241146
305.5477, 3.146160
306.0298, 2.993801
306.5120, 2.871731
306.9941, 2.720966
307.4762, 2.414799
307.9583, 1.740784
308.4404, 1.289574
308.9225, 1.242329
309.4047, 1.348949
309.8868, 1.317177
310.3689, 1.088722
310.8510, 0.9067080
311.3331, 1.135197
311.8152, 2.057728
312.2974, 2.487225
312.7795, 1.740440
313.2616, 1.018078
313.7437, 1.457409
314.2258, 2.994389
314.7079, 4.386703
315.1901, 4.370686
315.6722, 2.720371
316.1543, 1.989067
316.6364, 2.966534
317.1185, 3.969460
317.6006, 4.013912
318.0828, 3.331146
318.5649, 2.809586
319.0470, 3.085896
319.5291, 4.064434
320.0112, 4.704338
320.4933, 4.996044
320.9755, 5.035713
321.4576, 4.670795
321.9397, 4.082943
322.4218, 3.581425
322.9039, 3.319229
323.3860, 3.252228
323.8682, 3.251213
324.3503, 3.308041
324.8324, 3.441357
325.3145, 3.716305
325.7966, 4.042397
326.2787, 4.349537
326.7609, 4.607761
327.2430, 4.786156
327.7251, 4.857922
328.2072, 4.928516
328.6893, 4.568977
329.1714, 3.156612
329.6536, 1.778114
330.1357, 1.409935
330.6178, 2.085377
331.0999, 2.998131
331.5820, 3.300510
332.0641, 2.870811
332.5463, 2.495689
333.0284, 2.341293
333.5105, 2.063709
333.9926, 1.361645
334.4747, 0.3805200
334.9568, 0.5088270
335.4390, 1.066395
335.9211, 1.283676
336.4032, 0.9415050
336.8853, 0.6699030
337.3674, 2.037571
337.8495, 2.772690
338.3317, 3.031948
338.8138, 3.107788
339.2959, 3.159084
339.7780, 3.135086
340.2601, 2.867828
340.7422, 1.906635
341.2244, 1.298553
341.7065, 1.283321
342.1886, 1.511013
342.6707, 1.661201
343.1528, 1.648350
343.6349, 1.617783
344.1171, 1.784161
344.5992, 2.285416
345.0813, 2.678490
345.5634, 3.325539
346.0455, 3.498962
346.5276, 2.355194
347.0098, 0.2378460
347.4919, 1.406025
347.9740, 1.141697
348.4561, 1.170029
348.9382, 2.688084
349.4203, 3.080013
349.9025, 2.989574
350.3846, 2.220253
350.8667, 1.144634
351.3488, 0.4173740
351.8309, 0.4786340
352.3130, 1.054161
352.7952, 0.9651450
353.2773, 0.9289590
353.7594, 1.732796
354.2415, 1.6799999E-02
354.7236, 2.394192
355.2057, 3.632927
355.6879, 3.101162
356.1700, 1.655479
356.6521, 0.5315060
357.1342, 0.4502720
357.6163, 0.5730550
358.0984, 1.286369
358.5806, 3.117737
359.0627, 3.608829
359.5448, 2.813480
360.0269, 1.783752
360.5090, 1.554180
360.9911, 2.157692
361.4733, 2.499287
361.9554, 2.450775
362.4375, 2.259926
362.9196, 1.863354
363.4017, 1.411804
363.8839, 1.200035
364.3660, 1.466396
364.8481, 2.016373
365.3302, 2.254398
365.8123, 2.038364
366.2944, 1.830612
366.7766, 1.546726
367.2587, 1.402248
367.7408, 1.771988
368.2229, 2.839417
368.7050, 3.922516
369.1871, 3.944748
369.6692, 2.800613
370.1513, 2.070248
370.6335, 2.528427
371.1156, 3.130737
371.5977, 3.106220
372.0798, 2.461674
372.5619, 1.723827
373.0440, 1.156357
373.5262, 0.7741700
374.0083, 0.6724210
374.4904, 0.9333040
374.9725, 1.332172
375.4546, 1.900490
375.9367, 2.487621
376.4189, 2.729820
376.9010, 2.350582
377.3831, 1.709278
377.8652, 1.182812
378.3473, 0.7587430
378.8294, 0.5766750
379.3116, 0.7486840
379.7937, 1.219955
380.2758, 1.941772
380.7579, 3.080685
381.2400, 4.001453
381.7221, 4.196888
382.2043, 3.830853
382.6864, 3.293430
383.1685, 2.497238
383.6506, 1.947941
384.1327, 2.796898
384.6148, 5.032452
385.0970, 6.196739
385.5791, 4.642876
386.0612, 2.186134
386.5433, 1.099194
387.0254, 1.610832
387.5075, 2.506195
387.9897, 2.942722
388.4718, 2.927132
388.9539, 2.791790
389.4360, 2.398354
389.9181, 2.033100
390.4002, 1.882072
390.8824, 1.909218
391.3645, 1.912823
391.8466, 1.765877
392.3287, 1.548779
392.8108, 1.356094
393.2929, 1.283413
393.7751, 1.089836
394.2572, 0.5385740
394.7393, 4.9816001E-02
395.2214, 5.0732002E-02
395.7035, 0.3097500
396.1856, 1.016323
396.6678, 2.020878
397.1499, 3.459076
397.6320, 4.335270
398.1141, 4.448105
398.5962, 4.281536
399.0783, 3.996666
399.5605, 3.614162
400.0426, 3.101509
400.5247, 2.423038
401.0068, 1.631237
401.4889, 0.9634780
401.9710, 0.2920230
402.4532, 5.5865999E-02
402.9353, 0.2441520
403.4174, 0.7186240
403.8995, 0.8051260
404.3816, 0.3902780
404.8637, 5.7346001E-02
405.3459, 0.1986540
405.8280, 1.725555
406.3101, 2.548931
406.7922, 1.740437
407.2743, 0.9206810
407.7564, 0.7817080
408.2386, 1.227482
408.7207, 1.833122
409.2028, 2.377857
409.6849, 2.816650
410.1670, 2.868210
410.6491, 2.265549
411.1313, 1.672501
411.6134, 1.444351
412.0955, 1.468575
412.5776, 1.419041
413.0597, 1.217628
413.5418, 1.000755
414.0240, 0.8554730
414.5061, 0.7670520
414.9882, 1.039455
415.4703, 2.334408
415.9524, 3.499660
416.4345, 3.375893
416.9167, 2.146484
417.3988, 0.9918860
417.8809, 0.5249440
418.3630, 0.5532570
418.8451, 0.7693630
419.3272, 1.222240
419.8094, 1.557827
420.2915, 1.417908
420.7736, 1.041832
421.2557, 0.9527210
421.7378, 1.476128
422.2199, 1.881123
422.7021, 1.439529
423.1842, 0.4231220
423.6663, 0.1895940
424.1484, 6.0999999E-04
424.6305, 0.5079080
425.1126, 0.5139540
425.5948, 8.2061999E-02
426.0769, 0.3083950
426.5590, 0.2284090
427.0411, 1.069603
427.5232, 1.953777
428.0053, 2.789719
428.4875, 3.228256
428.9695, 2.907082
429.4517, 1.907345
429.9338, 1.394360
430.4159, 1.881153
430.8980, 2.157177
431.3801, 1.661839
431.8622, 0.8122940
432.3444, 0.2697110
432.8265, 0.2696720
433.3086, 0.4982950
433.7907, 0.3926510
434.2728, 0.3433340
434.7549, 0.7103230
435.2371, 0.4416770
435.7192, 9.1530003E-02
436.2013, 4.4124998E-02
436.6834, 2.9564001E-02
437.1655, 0.1732900
437.6476, 0.3138120
438.1298, 0.4309580
438.6119, 0.3529930
439.0940, 0.1195340
439.5761, 0.4903830
440.0582, 0.6887050
440.5403, 0.7333600
441.0225, 0.5280420
441.5046, 5.6522001E-02
441.9867, 0.2935450
442.4688, 0.1422650
442.9509, 1.459103
443.4330, 2.276356
443.9152, 2.271194
444.3973, 1.898312
444.8794, 1.125134
445.3615, 0.1920890
445.8436, 0.1514590
446.3257, 1.050991
446.8079, 2.738029
447.2900, 2.779327
447.7721, 0.9413070
448.2542, 0.5856780
448.7363, 0.6894570
449.2184, 6.2877998E-02
449.7006, 0.7502860
450.1827, 1.364109
450.6648, 1.841152
451.1469, 2.086441
451.6290, 2.182430
452.1111, 2.316086
452.5933, 2.526554
453.0754, 2.652100
453.5575, 2.481541
454.0396, 1.999058
454.5217, 1.737953
455.0038, 1.676067
455.4860, 1.864086
455.9681, 2.567474
456.4502, 3.550266
456.9323, 4.232079
457.4144, 4.318470
457.8965, 4.010044
458.3787, 3.769619
458.8608, 3.664955
459.3429, 3.526737
459.8250, 3.398853
460.3071, 3.180267
460.7892, 2.678200
461.2714, 1.983799
461.7535, 1.511379
462.2356, 1.645390
462.7177, 2.341763
463.1998, 3.008289
463.6819, 3.706009
464.1641, 4.271427
464.6462, 4.629025
465.1283, 4.869099
465.6104, 5.183689
466.0925, 5.633270
466.5746, 5.855312
467.0568, 5.280766
467.5389, 3.842426
468.0210, 2.353180
468.5031, 0.3636090
468.9852, 1.009438
469.4673, 0.8153230
469.9495, 0.5098530
470.4316, 1.700531
470.9137, 2.072147
471.3958, 2.067856
471.8779, 2.453419
472.3600, 3.254498
472.8422, 3.710499
473.3243, 3.354958
473.8064, 2.594585
474.2885, 2.048862
474.7706, 1.692299
475.2527, 1.644745
475.7349, 2.247669
476.2170, 3.060909
476.6991, 3.391903
477.1812, 3.161648
477.6633, 2.949516
478.1454, 3.299835
478.6276, 4.152653
479.1097, 4.473644
479.5918, 3.684689
480.0739, 3.116100
480.5560, 3.346931
481.0381, 4.000187
481.5203, 4.540913
482.0024, 4.823353
482.4845, 4.947357
482.9666, 5.018887
483.4487, 4.936073
483.9308, 5.101986
484.4130, 6.293892
484.8951, 6.998753
485.3772, 5.946533
485.8593, 3.974331
486.3414, 2.908005
486.8235, 3.860580
487.3057, 5.944767
487.7878, 7.049652
488.2699, 6.928989
488.7520, 6.625008
489.2341, 5.950195
489.7162, 5.468742
490.1984, 5.732658
490.6805, 6.678921
491.1626, 7.532402
491.6447, 7.602882
492.1268, 7.227730
492.6089, 7.262714
493.0910, 7.799759
493.5732, 8.625603
494.0553, 9.751808
494.5374, 11.01412
495.0195, 12.13653
495.5016, 13.24885
495.9837, 13.90471
496.4659, 13.36570
496.9480, 12.40735
497.4301, 12.38617
497.9122, 13.60060
498.3943, 15.25235
498.8764, 16.58266
499.3586, 17.56777
499.8407, 18.65603
500.3228, 20.01597
500.8049, 21.33825
501.2870, 22.44565
501.7691, 23.46749
502.2513, 24.63637
502.7334, 26.03355
503.2155, 27.53771
503.6976, 28.87502
504.1797, 29.79713
504.6618, 31.33070
505.1440, 33.74838
505.6261, 36.50971
506.1082, 39.49184
506.5903, 42.62060
507.0724, 45.83982
507.5545, 49.07557
508.0367, 52.26220
508.5188, 55.26629
509.0009, 58.05965
509.4830, 60.78840
509.9651, 63.42175
510.4472, 66.05939
510.9294, 69.16392
511.4115, 72.63972
511.8936, 75.11248
512.3757, 75.77499
512.8578, 75.15308
513.3400, 73.79344
513.8221, 71.73697
514.3042, 69.55530
514.7863, 67.73371
515.2684, 65.89395
515.7505, 63.02464
516.2327, 58.83426
516.7148, 54.58239
517.1969, 50.21305
517.6790, 46.12103
518.1611, 42.98336
518.6432, 40.72237
519.1254, 38.30080
519.6075, 34.70916
520.0896, 30.11751
520.5717, 26.76191
521.0538, 25.82004
521.5359, 24.75341
522.0180, 22.85148
522.5001, 20.89412
522.9822, 19.94933
523.4644, 20.12658
523.9465, 20.19786
524.4286, 18.55670
524.9107, 15.23586
525.3928, 12.73994
525.8749, 11.33442
526.3571, 10.32370
526.8392, 9.371777
527.3213, 8.573933
527.8034, 8.047314
528.2855, 7.833454
528.7676, 7.725471
529.2498, 7.646206
529.7319, 7.551525
530.2140, 7.257633
530.6961, 6.738743
531.1782, 6.174335
531.6603, 5.681976
532.1425, 5.275616
532.6246, 5.080772
533.1067, 5.366066
533.5888, 5.583817
534.0709, 5.226231
534.5530, 4.677486
535.0352, 4.818672
535.5173, 5.932419
535.9994, 7.139355
536.4815, 7.062645
536.9636, 5.173988
537.4457, 4.115997
537.9279, 4.373272
538.4100, 4.945351
538.8921, 5.660767
539.3742, 6.285610
539.8563, 6.726288
540.3384, 6.989826
540.8206, 7.067852
541.3027, 6.858345
541.7848, 6.324833
542.2669, 6.016281
542.7490, 6.187664
543.2311, 6.383057
543.7133, 6.247421
544.1954, 5.887146
544.6775, 5.599861
545.1596, 5.521931
545.6417, 5.352356
546.1238, 4.733112
546.6060, 3.824177
547.0881, 3.397278
547.5702, 3.809635
548.0523, 4.469810
548.5344, 4.557087
549.0165, 3.932442
549.4987, 3.209698
549.9808, 1.959785
550.4629, 1.022224
550.9450, 0.9456330
551.4271, 1.533745
551.9092, 2.463428
552.3914, 3.590042
552.8735, 4.613445
553.3556, 4.894867
553.8377, 4.211037
554.3198, 3.429569
554.8019, 2.071106
555.2841, 1.104286
555.7662, 1.149456
556.2483, 1.917015
556.7304, 2.867458
557.2125, 3.796597
557.6946, 4.299938
558.1768, 3.461376
558.6589, 1.343201
559.1410, 3.0823000E-02
559.6231, 0.2948420
560.1052, 1.155319
560.5873, 1.714821
561.0695, 1.991104
561.5516, 1.898003
562.0337, 1.009232
562.5158, 0.1184840
562.9979, 0.2943150
563.4800, 0.2615620
563.9622, 0.2240790
564.4443, 1.197369
564.9264, 2.151150
565.4085, 2.174046
565.8906, 0.6956600
566.3727, 0.1173520
566.8549, 1.342827
567.3370, 2.399323
567.8191, 2.319153
568.3012, 1.533035
568.7833, 0.8006780
569.2654, 0.4494250
569.7476, 0.3915820
570.2297, 0.6593250
570.7118, 1.304161
571.1939, 1.301781
571.6760, 4.3781001E-02
572.1581, 1.239101
572.6403, 1.118206
573.1224, 6.2710002E-02
573.6045, 1.039024
574.0866, 2.215256
574.5687, 3.037464
575.0508, 2.936710
575.5330, 2.233936
576.0151, 1.790871
576.4972, 1.849072
576.9793, 2.041332
577.4614, 1.966118
577.9435, 1.644001
578.4257, 1.357758
578.9078, 0.7512700
579.3899, 0.5821530
579.8720, 1.539082
580.3541, 2.881775
580.8362, 3.702637
581.3184, 3.720715
581.8005, 3.238644
582.2826, 2.469727
582.7647, 1.403309
583.2468, 0.7643130
583.7289, 0.6381000
584.2111, 0.8107150
584.6932, 1.668507
585.1753, 2.556782
585.6574, 2.458626
586.1395, 0.9781040
586.6216, 0.4180790
587.1038, 0.6159550
587.5859, 2.9190000E-02
588.0680, 0.5730090
588.5501, 1.092171
589.0322, 1.457809
589.5143, 1.593437
589.9965, 1.536915
590.4786, 1.480675
590.9607, 1.413944
591.4428, 1.361439
591.9249, 1.395073
592.4070, 1.415543
592.8892, 1.197556
593.3713, 0.8127140
593.8534, 0.6009520
594.3355, 0.9071120
594.8176, 1.497837
595.2997, 1.201530
595.7819, 0.6335870
596.2640, 1.661396
596.7461, 0.6856380
597.2282, 0.8563080
597.7103, 2.300724
598.1924, 3.504623
598.6746, 3.996059
599.1567, 3.019028
599.6388, 1.524719
600.1209, 0.7861330
600.6030, 0.7129100
601.0851, 0.5204510
601.5673, 0.1831400
602.0494, 0.9049570
602.5315, 0.7839320
603.0136, 0.5792080
603.4957, 1.407692
603.9778, 1.183285
604.4600, 0.9457630
604.9421, 1.372231
605.4242, 2.123951
605.9063, 2.452988
606.3884, 2.066044
606.8705, 1.526966
607.3527, 1.847279
607.8348, 3.188454
608.3169, 3.789879
608.7990, 3.100483
609.2811, 2.399902
609.7632, 2.352734
610.2454, 2.700920
610.7275, 3.082565
611.2096, 3.470974
611.6917, 3.720528
612.1738, 3.918625
612.6559, 3.896175
613.1381, 2.846272
613.6202, 0.6832890
614.1023, 0.8802150
614.5844, 0.3611760
615.0665, 1.775978
615.5486, 2.839363
616.0308, 1.308170
616.5129, 0.7580180
616.9950, 2.464561
617.4771, 4.484779
617.9592, 5.332863
618.4413, 4.957138
618.9235, 3.991348
619.4056, 2.729053
619.8877, 1.406334
620.3698, 0.6572270
620.8519, 0.5077740
621.3340, 0.6879770
621.8162, 1.507133
622.2983, 2.316668
622.7804, 2.497864
623.2625, 2.129616
623.7446, 1.706444
624.2267, 1.309641
624.7089, 0.9547820
625.1910, 0.5513150
625.6731, 0.2084060
626.1552, 0.2625120
626.6373, 0.8160190
627.1194, 1.430016
627.6016, 1.530893
628.0837, 1.036650
628.5658, 0.9262310
629.0479, 1.873098
629.5300, 2.420528
630.0121, 1.860798
630.4943, 0.9625400
630.9764, 0.5759050
631.4585, 0.7839410
631.9406, 1.041077
632.4227, 0.8355870
632.9048, 0.3250770
633.3870, 0.1235640
633.8691, 0.5446010
634.3512, 0.4151920
634.8333, 0.8540670
635.3154, 2.479527
635.7975, 2.792130
636.2797, 1.483080
636.7618, 0.6939620
637.2439, 1.216629
637.7260, 1.957611
638.2081, 2.263556
638.6902, 2.160791
639.1724, 1.743876
639.6545, 1.071739
640.1366, 0.4948770
640.6187, 0.5663380
641.1008, 1.396442
641.5829, 2.116400
642.0651, 2.923187
642.5472, 3.314121
643.0293, 2.557886
643.5114, 1.476244
643.9935, 1.500027
644.4756, 3.203842
644.9578, 4.558502
645.4398, 3.766766
645.9219, 1.952616
646.4041, 1.152620
646.8862, 1.533773
647.3683, 2.256123
647.8504, 2.907967
648.3325, 3.345020
648.8146, 3.074614
649.2968, 1.038223
649.7789, 6.0658999E-02
650.2610, 1.014626
650.7431, 2.150848
651.2252, 2.394581
651.7073, 1.988211
652.1895, 1.780659
652.6716, 2.195072
653.1537, 2.806353
653.6358, 2.947536
654.1179, 2.637661
654.6000, 2.477438
655.0822, 2.541872
655.5643, 2.638584
656.0464, 2.684134
656.5285, 2.674706
657.0106, 2.603655
657.4927, 2.330944
657.9749, 2.223724
658.4570, 2.705351
658.9391, 3.188244
659.4212, 2.883322
659.9033, 1.888611
660.3854, 1.081490
660.8676, 1.091436
661.3497, 1.574984
661.8318, 1.724148
662.3139, 1.442432
662.7960, 1.186079
663.2781, 0.9194450
663.7603, 0.8031580
664.2424, 1.041761
664.7245, 1.498384
665.2066, 1.811419
665.6887, 1.855274
666.1708, 1.825626
666.6530, 1.684971
667.1351, 1.489895
667.6172, 1.593563
668.0993, 2.006037
668.5814, 2.154314
669.0635, 1.514095
669.5457, 0.2874130
670.0278, 0.3988130
670.5099, 0.3136560
670.9920, 5.4175999E-02
671.4741, 0.4919050
671.9562, 0.9710030
672.4384, 1.280478
672.9205, 1.475239
673.4026, 1.727869
673.8847, 2.237869
674.3668, 2.646351
674.8489, 2.332756
675.3311, 1.486834
675.8132, 1.065617
676.2953, 1.322309
676.7774, 1.544931
677.2595, 0.9758240
677.7416, 0.2008190
678.2238, 0.4144670
678.7059, 1.432020
679.1880, 2.648762
679.6701, 2.365971
680.1522, 1.714437
680.6343, 1.582268
681.1165, 1.961229
681.5986, 2.411222
682.0807, 2.695602
682.5628, 2.807642
683.0449, 2.616587
683.5270, 2.119385
684.0092, 1.973642
684.4913, 2.465181
684.9734, 2.963131
685.4555, 2.912582
685.9376, 2.422140
686.4197, 2.055470
686.9019, 1.730061
687.3840, 1.665110
687.8661, 2.249825
688.3482, 2.907700
688.8303, 2.885096
689.3124, 2.307039
689.7946, 2.049376
690.2767, 2.763985
690.7588, 3.888596
691.2409, 3.972551
691.7230, 2.828005
692.2051, 1.809851
692.6873, 1.074549
693.1694, 0.5816860
693.6515, 0.4230480
694.1336, 0.5298750
694.6157, 0.8072190
695.0978, 1.483805
695.5800, 1.867233
696.0621, 1.420507
696.5442, 0.6270240
697.0263, 0.1635170
697.5084, 0.7643490
697.9905, 0.6145900
698.4727, 0.7444630
698.9548, 2.658689
699.4369, 3.336285
699.9190, 2.313747
700.4011, 1.720697
700.8832, 2.098061
701.3654, 2.465076
701.8475, 2.214067
702.3296, 1.626726
702.8117, 1.239174
703.2938, 1.203255
703.7759, 1.249004
704.2581, 1.195206
704.7402, 1.141645
705.2223, 1.284094
705.7044, 1.592825
706.1865, 1.842916
706.6686, 1.917891
707.1508, 1.798130
707.6329, 1.312479
708.1150, 8.4996998E-02
708.5971, 0.2694400
709.0792, 1.224638
709.5613, 2.489891
710.0435, 2.503428
710.5256, 1.877357
711.0077, 1.532486
711.4898, 1.690022
711.9719, 1.928110
712.4540, 1.968927
712.9362, 1.932781
713.4183, 2.039717
713.9004, 2.257170
714.3825, 2.289108
714.8646, 1.988962
715.3467, 1.635191
715.8289, 1.889183
716.3110, 2.992840
716.7931, 3.581081
717.2752, 3.233723
717.7573, 2.909037
718.2394, 2.970705
718.7216, 3.134106
719.2037, 2.921181
719.6858, 2.273260
720.1679, 1.831562
720.6500, 2.290195
721.1321, 2.987946
721.6143, 3.065559
722.0964, 2.573824
722.5785, 1.686264
723.0606, 0.4209630
723.5427, 0.6268630
724.0248, 0.6244660
724.5070, 0.4989470
724.9891, 1.454403
725.4712, 2.373560
725.9533, 2.927706
726.4354, 2.816204
726.9175, 2.504602
727.3997, 2.474543
727.8818, 2.682943
728.3639, 2.766415
728.8460, 2.446920
729.3281, 1.993315
729.8102, 1.634335
730.2924, 1.378222
730.7745, 1.266579
731.2566, 1.309162
731.7387, 1.467806
732.2208, 1.752577
732.7029, 2.110367
733.1851, 2.146212
733.6672, 1.475157
734.1493, 1.151896
734.6314, 1.517691
735.1135, 2.015600
735.5956, 2.362820
736.0778, 2.542257
736.5599, 2.589743
737.0420, 2.385187
737.5241, 2.204659
738.0062, 2.447470
738.4883, 2.830519
738.9705, 2.583216
739.4526, 1.716003
739.9347, 1.356491
740.4168, 2.336098
740.8989, 3.968624
741.3810, 4.385897
741.8632, 2.881002
742.3453, 1.976524
742.8274, 2.109203
743.3095, 2.401194
743.7916, 2.685797
744.2737, 2.858000
744.7559, 2.720802
745.2380, 2.199490
745.7201, 1.720396
746.2022, 1.473471
746.6843, 1.446043
747.1664, 1.856392
747.6486, 2.509802
748.1307, 2.634245
748.6128, 1.912897
749.0949, 0.8691390
749.5770, 0.1494310
750.0591, 0.2649610
750.5413, 5.6989999E-03
751.0234, 1.545204
751.5055, 2.737394
751.9876, 3.065561
752.4697, 2.891954
752.9518, 2.255901
753.4340, 1.261629
753.9161, 0.6789110
754.3982, 0.8191640
754.8803, 1.402706
755.3624, 2.759254
755.8445, 4.266066
756.3267, 4.638647
756.8088, 3.704853
757.2909, 2.577883
757.7730, 2.148697
758.2551, 2.212961
758.7372, 1.998848
759.2194, 1.387094
759.7015, 1.035593
760.1836, 1.192768
760.6657, 1.422966
761.1478, 1.408680
761.6299, 1.245846
762.1121, 1.128864
762.5942, 1.036350
763.0763, 1.089708
763.5584, 1.177050
764.0405, 1.550003
764.5226, 2.923830
765.0048, 4.796013
765.4869, 5.788229
765.9690, 5.250650
766.4511, 3.984959
766.9332, 3.028040
767.4153, 2.364029
767.8975, 2.123661
768.3795, 2.438557
768.8616, 2.599510
769.3438, 2.213709
769.8259, 1.629461
770.3080, 1.441404
770.7901, 1.746346
771.2722, 1.662804
771.7543, 0.4548590
772.2365, 0.3289050
772.7186, 0.5295280
773.2007, 1.776812
773.6828, 1.747877
774.1649, 0.4820270
774.6470, 0.6233630
775.1292, 0.5707240
775.6113, 0.1725230
776.0934, 0.8454530
776.5755, 1.416660
777.0576, 1.570515
777.5397, 1.173187
778.0219, 0.9178030
778.5040, 1.482489
778.9861, 2.552240
779.4682, 2.754963
779.9503, 0.8242070
780.4324, 5.5851001E-02
780.9146, 1.583040
781.3967, 3.017967
781.8788, 3.192354
782.3609, 2.534176
782.8430, 1.605339
783.3251, 0.5290340
783.8073, 0.1389850
784.2894, 0.4034920
784.7715, 1.372066
785.2536, 1.443035
785.7357, 0.7944790
786.2178, 0.5679860
786.7000, 1.202955
787.1821, 2.091700
787.6642, 2.508053
788.1463, 2.451954
788.6284, 2.031738
789.1105, 0.7945080
789.5927, 0.1405560
790.0748, 0.8775390
790.5569, 1.923326
791.0390, 2.467632
791.5211, 2.585018
792.0032, 2.734289
792.4854, 3.196312
792.9675, 3.460711
793.4496, 3.135609
793.9317, 2.573874
794.4138, 2.024446
794.8959, 1.623060
795.3781, 1.686197
795.8602, 2.416914
796.3423, 3.383362
796.8244, 3.861277
797.3065, 3.877295
797.7886, 3.950096
798.2708, 4.159655
798.7529, 4.163734
799.2350, 3.692873
799.7171, 3.047432
800.1992, 2.789989
800.6813, 3.087458
801.1635, 2.974188
801.6456, 1.964621
802.1277, 1.125082
802.6098, 0.8596480
803.0919, 0.9179530
803.5740, 1.000345
804.0562, 1.095503
804.5383, 1.454870
805.0204, 2.531467
805.5025, 3.514437
805.9846, 3.176653
806.4667, 1.970026
806.9489, 1.123375
807.4310, 0.8477130
807.9131, 1.034718
808.3952, 1.726248
808.8773, 2.659389
809.3594, 3.155603
809.8416, 3.192884
810.3237, 2.840744
810.8058, 1.661678
811.2879, 0.6945990
811.7700, 0.4431780
812.2521, 0.6159440
812.7343, 0.9833450
813.2164, 1.557541
813.6985, 1.785961
814.1806, 0.9057660
814.6627, 0.2133540
815.1448, 0.9462320
815.6270, 2.311726
816.1091, 3.049509
816.5912, 2.928602
817.0733, 2.471094
817.5554, 2.016945
818.0375, 1.617723
818.5197, 1.386913
819.0018, 1.323015
819.4839, 1.478954
819.9660, 1.971493
820.4481, 2.160782
820.9302, 1.499573
821.4124, 0.2974830
821.8945, 0.5497150
822.3766, 1.093107
822.8587, 1.157255
823.3408, 0.4696080
823.8229, 0.3633650
824.3051, 1.279676
824.7872, 2.107817
825.2693, 2.660004
825.7514, 2.900810
826.2335, 2.860403
826.7156, 2.492456
827.1978, 1.906736
827.6799, 0.7971690
828.1620, 0.3479210
828.6441, 0.1317410
829.1262, 1.533289
829.6083, 2.966881
830.0905, 2.808201
830.5726, 1.587391
831.0547, 0.4268820
831.5368, 0.7772540
832.0189, 0.8314650
832.5010, 0.9020650
832.9832, 2.469530
833.4653, 2.587711
833.9474, 1.868652
834.4295, 1.791092
834.9116, 2.622206
835.3937, 2.946856
835.8759, 2.181293
836.3580, 1.424294
836.8401, 1.201862
837.3222, 1.221468
837.8043, 1.080908
838.2864, 0.7505530
838.7686, 0.5454960
839.2507, 0.6609040
839.7328, 0.9625020
840.2149, 1.515501
840.6970, 2.091198
841.1791, 1.949286
841.6613, 1.044876
842.1434, 0.2043760
842.6255, 9.2891999E-02
843.1076, 5.3316001E-02
843.5897, 0.4634420
844.0718, 1.175095
844.5540, 1.969975
845.0361, 3.048241
845.5182, 3.778166
846.0003, 3.873344
846.4824, 3.498957
846.9645, 2.615763
847.4467, 1.189501
847.9288, 0.6314390
848.4109, 2.139822
848.8930, 3.232210
849.3751, 2.450680
849.8572, 1.297688
850.3394, 1.405228
850.8215, 2.577837
851.3036, 3.562860
851.7857, 3.787010
852.2678, 3.522310
852.7499, 2.856615
853.2321, 1.981642
853.7142, 1.175665
854.1963, 0.5274580
854.6784, 0.4967080
855.1605, 1.319454
855.6426, 2.398296
856.1248, 2.935484
856.6069, 2.936771
857.0890, 2.642582
857.5711, 1.821650
858.0532, 1.420891
858.5353, 1.973200
859.0175, 2.654219
859.4996, 2.753435
859.9817, 2.366810
860.4638, 1.890991
860.9459, 1.251062
861.4280, 0.6778030
861.9102, 1.4399000E-02
862.3923, 0.3838980
862.8744, 0.2026770
863.3565, 0.3871770
863.8386, 1.236971
864.3207, 2.278349
864.8029, 2.883793
865.2850, 2.115473
865.7671, 0.9654850
866.2492, 0.9885790
866.7313, 1.780632
867.2134, 2.023539
867.6956, 1.451923
868.1777, 0.8586920
868.6598, 0.8959050
869.1419, 1.358957
869.6240, 1.677502
870.1061, 1.836300
870.5883, 2.007591
871.0704, 2.311314
871.5525, 2.319117
872.0346, 1.625282
872.5167, 0.6425040
872.9988, 9.4709001E-02
873.4810, 3.3505999E-02
873.9631, 0.1938720
874.4452, 0.8767300
874.9273, 1.399740
875.4094, 1.576630
875.8915, 1.501762
876.3737, 1.063354
876.8558, 0.4352760
877.3379, 0.2866150
877.8200, 1.179775
878.3021, 2.030584
878.7842, 1.935810
879.2664, 1.410484
879.7485, 1.028469
880.2306, 0.8173430
880.7127, 0.5995390
881.1948, 0.3509880
881.6769, 0.3376750
882.1591, 1.070189
882.6412, 2.217346
883.1233, 2.052305
883.6054, 0.5541950
884.0875, 0.2596890
884.5696, 2.077984
885.0518, 3.851570
885.5339, 3.723610
886.0160, 2.152477
886.4981, 1.038492
886.9802, 0.3620320
887.4623, 0.1740260
887.9445, 0.7435530
888.4266, 1.488554
888.9087, 2.629339
889.3908, 3.529699
889.8729, 3.210720
890.3550, 1.674036
890.8372, 0.8721900
891.3193, 1.939322
891.8014, 3.150518
892.2834, 3.824808
892.7656, 4.095379
893.2477, 3.974651
893.7298, 3.606676
894.2119, 3.352324
894.6940, 3.397846
895.1761, 3.480337
895.6583, 3.062389
896.1404, 2.582905
896.6225, 3.163410
897.1046, 4.625286
897.5867, 5.797554
898.0688, 6.279428
898.5510, 6.421314
899.0331, 6.555614
899.5152, 6.689590
899.9973, 6.850044
900.4794, 7.020130
900.9615, 7.311226
901.4437, 7.776245
901.9258, 8.256607
902.4079, 8.640186
902.8900, 8.981297
903.3721, 9.411200
903.8542, 9.974483
904.3364, 10.48042
904.8185, 11.17857
905.3006, 11.51430
905.7827, 11.49957
906.2648, 10.99528
906.7469, 9.577211
907.2291, 7.482933
907.7112, 5.806553
908.1933, 5.000126
908.6754, 4.442225
909.1575, 3.891592
909.6396, 3.404463
910.1218, 3.044382
910.6039, 2.793337
911.0860, 2.592251
911.5681, 2.392714
912.0502, 2.187267
912.5323, 1.983927
913.0145, 1.838402
913.4966, 1.730980
913.9787, 1.760633
914.4608, 2.594002
914.9429, 4.288933
915.4250, 5.559261
915.9072, 5.438705
916.3893, 4.443840
916.8714, 3.786711
917.3535, 3.493811
917.8356, 3.295670
918.3177, 3.227016
918.7999, 3.115866
919.2820, 2.863981
919.7641, 2.603638
920.2462, 2.495350
920.7283, 2.554798
921.2104, 2.470024
921.6926, 1.879620
922.1747, 1.659304
922.6568, 2.148542
923.1389, 2.709669
923.6210, 3.191036
924.1031, 3.447075
924.5853, 3.142902
925.0674, 2.179558
925.5495, 1.478363
926.0316, 1.552458
926.5137, 1.761042
926.9958, 1.700321
927.4780, 1.572489
927.9601, 1.779951
928.4422, 2.197004
928.9243, 2.169666
929.4064, 1.280077
929.8885, 0.3851870
930.3707, 0.4734020
930.8528, 1.097616
931.3349, 1.635717
931.8170, 1.969805
932.2991, 1.753500
932.7813, 0.9181000
933.2634, 1.4017000E-02
933.7455, 0.4863620
934.2276, 0.5601250
934.7097, 1.9535000E-02
935.1918, 1.253180
935.6740, 2.294250
936.1561, 3.051741
936.6382, 3.292902
937.1203, 2.799347
937.6024, 2.021904
938.0845, 1.704012
938.5667, 1.894165
939.0488, 1.946157
939.5309, 1.827087
940.0130, 1.632799
940.4951, 1.283083
940.9772, 0.9723380
941.4594, 0.8559650
941.9415, 0.8904000
942.4236, 0.9817960
942.9057, 1.197382
943.3878, 1.280743
943.8699, 0.8646430
944.3521, 0.7020440
944.8342, 1.550856
945.3163, 2.544535
945.7984, 2.472450
946.2805, 1.475307
946.7626, 1.017719
947.2448, 2.101934
947.7269, 3.001415
948.2090, 2.339180
948.6911, 1.230515
949.1732, 0.8443430
949.6553, 0.9911860
950.1375, 1.005394
950.6196, 0.6964260
951.1017, 0.4114510
951.5838, 0.4055210
952.0659, 0.6243930
952.5480, 1.160898
953.0302, 1.824863
953.5123, 1.976543
953.9944, 1.618134
954.4765, 1.461828
954.9586, 1.904701
955.4407, 2.483686
955.9229, 2.471819
956.4050, 1.967409
956.8871, 1.398891
957.3692, 0.7834220
957.8513, 0.9035320
958.3334, 2.124584
958.8156, 3.139446
959.2977, 2.811127
959.7798, 1.640850
960.2619, 1.207932
960.7440, 1.882021
961.2261, 1.822895
961.7083, 0.3994120
962.1904, 0.3546260
962.6725, 0.8494280
963.1546, 2.415148
963.6367, 2.471521
964.1188, 1.175568
964.6010, 0.5095500
965.0831, 1.180655
965.5652, 1.369425
966.0473, 0.4893680
966.5294, 0.3496860
967.0115, 0.5753780
967.4937, 0.4630430
967.9758, 0.4795000
968.4579, 0.6564330
968.9400, 0.4332470
969.4221, 0.8274060
969.9042, 1.900909
970.3864, 2.366756
970.8685, 2.355232
971.3506, 1.746361
971.8327, 0.8220180
972.3148, 6.3826002E-02
972.7969, 0.3837810
973.2791, 0.4418720
973.7612, 0.1635130
974.2433, 0.9706840
974.7254, 1.607494
975.2075, 2.103003
975.6896, 2.561092
976.1718, 2.950724
976.6539, 3.084574
977.1360, 2.856920
977.6181, 2.472868
978.1002, 2.097673
978.5823, 1.783817
979.0645, 1.562593
979.5466, 1.473675
980.0287, 1.692606
980.5108, 2.231453
980.9929, 2.784647
981.4750, 3.106203
981.9572, 3.216677
982.4393, 3.112652
982.9214, 2.836479
983.4035, 2.935774
983.8856, 3.451622
984.3677, 3.217815
984.8499, 1.691605
985.3320, 0.2625580
985.8141, 0.4215090
986.2962, 1.719185
986.7783, 2.126627
987.2604, 1.393112
987.7426, 1.103474
988.2247, 1.473190
988.7068, 1.968040
989.1889, 2.398207
989.6710, 2.791437
990.1531, 3.289181
990.6353, 3.864582
991.1174, 3.600294
991.5995, 1.806103
992.0816, 0.4558910
992.5637, 0.1732650
993.0458, 0.4149230
993.5280, 0.3570400
994.0101, 3.4124002E-02
994.4922, 0.5990180
994.9743, 1.583275
995.4564, 2.294849
995.9385, 2.548378
996.4207, 2.731453
996.9028, 2.950811
997.3849, 3.093124
997.8670, 2.924084
998.3491, 2.678627
998.8312, 2.925230
999.3134, 3.829475
999.7955, 4.228359
1000.278, 3.436464
1000.760, 2.485779
1001.242, 1.484549
1001.724, 0.8308910
1002.206, 1.192514
1002.688, 2.163090
1003.170, 2.609594
1003.652, 2.134653
1004.135, 1.791725
1004.617, 2.552559
1005.099, 3.301365
1005.581, 2.756729
1006.063, 1.873568
1006.545, 2.262337
1007.027, 3.641851
1007.509, 4.490555
1007.991, 4.090696
1008.474, 3.448416
1008.956, 3.447401
1009.438, 3.727425
1009.920, 3.901947
1010.402, 3.959274
1010.884, 4.003073
1011.366, 3.978266
1011.848, 3.493397
1012.331, 2.264486
1012.813, 0.8974690
1013.295, 5.5496000E-02
1013.777, 0.4776950
1014.259, 0.2734990
1014.741, 1.826399
1015.223, 2.690767
1015.705, 2.574560
1016.187, 2.307411
1016.669, 2.554049
1017.152, 3.059769
1017.634, 3.462555
1018.116, 3.728844
1018.598, 3.661928
1019.080, 3.272425
1019.562, 2.653217
1020.044, 1.811371
1020.526, 1.187876
1021.009, 1.118099
1021.491, 1.404749
1021.973, 1.523672
1022.455, 1.488813
1022.937, 1.813112
1023.419, 2.560528
1023.901, 2.968817
1024.383, 2.717878
1024.865, 2.243597
1025.348, 1.936123
1025.830, 1.788101
1026.312, 1.803282
1026.794, 2.020601
1027.276, 2.421162
1027.758, 3.118130
1028.240, 3.219002
1028.722, 2.147640
1029.205, 1.035093
1029.687, 1.147057
1030.169, 2.175161
1030.651, 2.478811
1031.133, 1.846310
1031.615, 1.368889
1032.097, 1.013161
1032.579, 0.8898960
1033.062, 1.055136
1033.544, 1.485336
1034.026, 2.388453
1034.508, 3.566122
1034.990, 3.458237
1035.472, 0.8131370
1035.954, 0.1543640
1036.436, 2.089045
1036.918, 3.676405
1037.401, 2.601818
1037.883, 0.6529940
1038.365, 0.2755510
1038.847, 0.2566990
1039.329, 3.3473998E-02
1039.811, 0.5730550
1040.293, 1.084316
1040.775, 1.495182
1041.257, 1.804682
1041.740, 2.022715
1042.222, 2.134592
1042.704, 2.066244
1043.186, 1.845758
1043.668, 1.740023
1044.150, 1.695072
1044.632, 1.865774
1045.114, 2.596243
1045.597, 3.148153
1046.079, 3.135992
1046.561, 2.836468
1047.043, 2.469479
1047.525, 2.079920
1048.007, 1.886694
1048.489, 2.143955
1048.971, 2.199057
1049.453, 1.729586
1049.936, 1.301069
1050.418, 1.168213
1050.900, 1.206352
1051.382, 1.342453
1051.864, 1.553568
1052.346, 1.656189
1052.828, 1.443983
1053.310, 1.437731
1053.792, 2.283501
1054.275, 2.796879
1054.757, 1.764706
1055.239, 0.3961750
1055.721, 0.2349340
1056.203, 1.217463
1056.685, 1.968145
1057.167, 2.116631
1057.649, 2.096582
1058.132, 1.748537
1058.614, 1.597435
1059.096, 2.303438
1059.578, 3.127577
1060.060, 3.073992
1060.542, 2.266562
1061.024, 1.695852
1061.506, 1.769333
1061.989, 1.740828
1062.471, 1.263351
1062.953, 0.6886750
1063.435, 0.1178590
1063.917, 0.6703930
1064.399, 0.1384700
1064.881, 1.193865
1065.363, 2.010908
1065.845, 1.748838
1066.328, 1.601097
1066.810, 2.255808
1067.292, 2.955076
1067.774, 3.398239
1068.256, 3.519228
1068.738, 3.122862
1069.220, 2.362612
1069.702, 1.670591
1070.184, 1.122408
1070.667, 0.9185520
1071.149, 1.700335
1071.631, 2.183033
1072.113, 1.174593
1072.595, 0.1486360
1073.077, 0.4708230
1073.559, 9.4774000E-02
1074.041, 0.9445150
1074.524, 1.962761
1075.006, 2.366440
1075.488, 1.309975
1075.970, 0.2939150
1076.452, 7.1819000E-02
1076.934, 0.4378780
1077.416, 1.593521
1077.898, 3.038729
1078.380, 3.613544
1078.863, 2.986685
1079.345, 2.236506
1079.827, 1.586561
1080.309, 1.269533
1080.791, 1.857401
1081.273, 2.466578
1081.755, 2.015251
1082.237, 0.9866810
1082.719, 0.5646380
1083.202, 1.007093
1083.684, 1.402369
1084.166, 1.263344
1084.648, 1.109701
1085.130, 1.046305
1085.612, 1.212254
1086.094, 2.124228
1086.576, 3.179775
1087.058, 3.136528
1087.541, 1.899149
1088.023, 1.146271
1088.505, 2.171421
1088.987, 2.878801
1089.469, 1.673317
1089.951, 0.5366270
1090.433, 1.392546
1090.915, 3.064159
1091.398, 3.715149
1091.880, 3.185280
1092.362, 2.457916
1092.844, 1.646288
1093.326, 1.082039
1093.808, 0.7600980
1094.290, 0.8632620
1094.772, 2.050344
1095.255, 3.338474
1095.737, 3.298792
1096.219, 2.109278
1096.701, 1.362909
1097.183, 1.630680
1097.665, 1.897602
1098.147, 1.681677
1098.629, 1.591244
1099.111, 2.163269
1099.594, 2.829784
1100.076, 2.899929
1100.558, 2.549986
1101.040, 2.534409
1101.522, 3.102495
1102.004, 3.382921
1102.486, 2.746321
1102.968, 2.395147
1103.450, 3.256927
1103.933, 4.146124
1104.415, 3.887768
1104.897, 2.958689
1105.379, 2.511967
1105.861, 2.721134
1106.343, 3.025146
1106.825, 3.903257
1107.307, 4.068544
1107.790, 2.392179
1108.272, 0.7752780
1108.754, 0.5393960
1109.236, 1.063265
1109.718, 1.406473
1110.200, 1.522505
1110.682, 1.289865
1111.164, 0.2703380
1111.646, 0.4411580
1112.129, 0.9334390
1112.611, 0.8685050
1113.093, 0.4988290
1113.575, 2.100594
1114.057, 2.635166
1114.539, 2.223377
1115.021, 1.935207
1115.503, 1.725822
1115.985, 1.741917
1116.468, 2.079590
1116.950, 2.466404
1117.432, 3.101179
1117.914, 3.418850
1118.396, 2.637617
1118.878, 1.218248
1119.360, 0.7975010
1119.842, 1.806822
1120.325, 2.154514
1120.807, 1.215902
1121.289, 0.7504960
1121.771, 1.429310
1122.253, 2.159346
1122.735, 2.008482
1123.217, 1.525110
1123.699, 1.934103
1124.182, 3.300810
1124.664, 3.550257
1125.146, 2.283415
1125.628, 1.633047
1126.110, 2.061152
1126.592, 2.558569
1127.074, 2.569645
1127.556, 2.571220
1128.038, 3.323072
1128.521, 4.557262
1129.003, 4.536816
1129.485, 3.164389
1129.967, 2.006155
1130.449, 1.179331
1130.931, 0.3482950
1131.413, 0.6372450
1131.895, 0.8231750
1132.377, 0.8942790
1132.860, 3.453218
1133.342, 3.986492
1133.824, 2.734411
1134.306, 1.971670
1134.788, 1.742212
1135.270, 1.726461
1135.752, 1.839592
1136.234, 1.978983
1136.717, 2.084114
1137.199, 2.131687
1137.681, 2.045237
1138.163, 1.888847
1138.645, 1.853439
1139.127, 1.922680
1139.609, 2.030399
1140.091, 2.175373
1140.573, 2.496702
1141.056, 3.029518
1141.538, 3.331640
1142.020, 2.937717
1142.502, 2.137407
1142.984, 1.019926
1143.466, 5.4449998E-03
1143.948, 6.9830000E-02
1144.430, 0.9294610
1144.912, 1.710344
1145.395, 2.158682
1145.877, 2.372158
1146.359, 2.381105
1146.841, 2.281584
1147.323, 2.148075
1147.805, 1.965172
1148.287, 1.583464
1148.769, 1.216393
1149.252, 1.261606
1149.734, 1.646837
1150.216, 1.965921
1150.698, 2.073647
1151.180, 2.123852
1151.662, 2.087505
1152.144, 2.157454
1152.626, 2.848818
1153.109, 3.343847
1153.591, 2.330454
1154.073, 0.7635670
1154.555, 0.7037220
1155.037, 2.386240
1155.519, 3.665634
1156.001, 4.000389
1156.483, 3.786074
1156.965, 2.710375
1157.448, 1.563673
1157.930, 0.5181670
1158.412, 0.2086240
1158.894, 0.2612090
1159.376, 0.2301620
1159.858, 0.6195600
1160.340, 0.9248140
1160.822, 1.054382
1161.304, 0.7959670
1161.787, 0.8016660
1162.269, 1.424877
1162.751, 2.055882
1163.233, 2.265972
1163.715, 2.256262
1164.197, 2.456076
1164.679, 2.876129
1165.161, 2.654013
1165.644, 1.467094
1166.126, 0.8822500
1166.608, 1.175154
1167.090, 1.671900
1167.572, 2.102936
1168.054, 2.652498
1168.536, 3.670322
1169.018, 4.683649
1169.500, 3.717867
1169.983, 0.8780630
1170.465, 6.8657003E-02
1170.947, 0.9926620
1171.429, 2.083395
1171.911, 2.722746
1172.393, 2.549225
1172.875, 1.270063
1173.357, 0.1215500
1173.839, 6.6497996E-02
1174.322, 0.8505760
1174.804, 1.090979
1175.286, 0.8991850
1175.768, 1.184002
1176.250, 1.796389
1176.732, 1.496586
1177.214, 2.9320000E-03
1177.696, 1.068409
1178.179, 0.3232120
1178.661, 0.8445220
1179.143, 0.9341580
1179.625, 0.5802120
1180.107, 0.3702980
1180.589, 0.4158520
1181.071, 1.025787
1181.553, 1.996212
1182.036, 2.439892
1182.518, 1.949522
1183.000, 1.648634
1183.482, 2.518408
1183.964, 3.251150
1184.446, 2.970676
1184.928, 2.299818
1185.410, 1.628759
1185.892, 1.186632
1186.375, 1.437506
1186.857, 2.374355
1187.339, 2.901964
1187.821, 2.529175
1188.303, 2.248575
1188.785, 2.223070
1189.267, 2.164591
1189.749, 1.848810
1190.231, 1.763262
1190.714, 2.440432
1191.196, 3.446476
1191.678, 3.516676
1192.160, 2.472153
1192.642, 1.983435
1193.124, 2.267920
1193.606, 2.210526
1194.088, 1.506151
1194.571, 1.009008
1195.053, 1.173733
1195.535, 1.586800
1196.017, 1.792522
1196.499, 1.808884
1196.981, 1.626215
1197.463, 1.285480
1197.945, 1.213404
1198.427, 1.391644
1198.910, 1.395807
1199.392, 1.165537
1199.874, 1.264946
1200.356, 2.053356
1200.838, 2.944120
1201.320, 3.112286
1201.802, 2.987789
1202.284, 3.401236
1202.766, 3.961279
1203.249, 3.864964
1203.731, 3.267036
1204.213, 2.800549
1204.695, 2.614574
1205.177, 2.400309
1205.659, 1.936661
1206.141, 1.546938
1206.623, 1.357277
1207.105, 1.406178
1207.588, 1.943424
1208.070, 2.562653
1208.552, 2.786032
1209.034, 2.705029
1209.516, 2.692255
1209.998, 2.820869
1210.480, 2.862461
1210.962, 2.683899
1211.445, 2.564558
1211.927, 2.898226
1212.409, 2.831652
1212.891, 1.571459
1213.373, 0.2098310
1213.855, 7.2180003E-02
1214.337, 0.5216520
1214.819, 1.281771
1215.302, 2.352205
1215.784, 2.719471
1216.266, 2.299322
1216.748, 1.405748
1217.230, 1.0050000E-03
1217.712, 0.7381060
1218.194, 7.8285001E-02
1218.676, 0.9757670
1219.158, 1.122185
1219.641, 0.7789310
1220.123, 1.147366
1220.605, 2.034235
1221.087, 2.991240
1221.569, 3.798880
1222.051, 3.590776
1222.533, 2.388641
1223.015, 1.545048
1223.497, 1.829058
1223.980, 2.254278
1224.462, 1.690647
1224.944, 1.097113
1225.426, 1.544994
1225.908, 2.363743
1226.390, 2.905855
1226.872, 3.104673
1227.354, 2.983904
1227.837, 2.554968
1228.319, 1.911600
1228.801, 0.6069160
1229.283, 3.7468001E-02
1229.765, 1.189548
1230.247, 2.350801
1230.729, 3.239744
1231.211, 3.423040
1231.693, 2.257912
1232.176, 0.6883430
1232.658, 0.6813830
1233.140, 2.246214
1233.622, 2.863632
1234.104, 2.200956
1234.586, 2.177006
1235.068, 3.136034
1235.550, 3.467331
1236.032, 2.516924
1236.515, 1.670937
1236.997, 2.089968
1237.479, 3.049618
1237.961, 3.144325
1238.443, 2.710852
1238.925, 3.222759
1239.407, 4.191053
1239.889, 3.927485
1240.372, 2.518496
1240.854, 0.9375550
1241.336, 0.3778650
1241.818, 0.7747020
1242.300, 0.4962920
1242.782, 1.846527
1243.264, 1.743053
1243.746, 1.410742
1244.229, 2.118160
1244.711, 3.030548
1245.193, 2.939463
1245.675, 2.227350
1246.157, 2.199825
1246.639, 3.107868
1247.121, 3.281275
1247.603, 1.373945
1248.085, 0.4630990
1248.568, 1.872185
1249.050, 2.690100
1249.532, 1.269110
1250.014, 1.8937999E-02
1250.496, 1.273491
1250.978, 3.619864
1251.460, 3.651857
1251.942, 1.666924
1252.424, 0.6842160
1252.907, 0.7043740
1253.389, 1.120199
1253.871, 1.815046
1254.353, 2.036190
1254.835, 1.536039
1255.317, 0.9785480
1255.799, 0.8707390
1256.281, 0.9627740
1256.764, 0.8724270
1257.246, 0.8066060
1257.728, 1.152969
1258.210, 1.710434
1258.692, 2.120029
1259.174, 2.439880
1259.656, 3.018324
1260.138, 3.881315
1260.620, 4.455313
1261.103, 4.543482
1261.585, 4.250734
1262.067, 3.143145
1262.549, 2.264191
1263.031, 2.098021
1263.513, 2.196735
1263.995, 2.686983
1264.477, 3.055622
1264.959, 2.411316
1265.442, 0.8116300
1265.924, 0.6711640
1266.406, 2.425617
1266.888, 3.151707
1267.370, 2.541039
1267.852, 2.027700
1268.334, 2.028387
1268.816, 2.240211
1269.299, 2.483429
1269.781, 2.602177
1270.263, 2.244865
1270.745, 1.732323
1271.227, 1.756220
1271.709, 2.112562
1272.191, 2.506830
1272.673, 2.844366
1273.156, 3.105270
1273.638, 3.204609
1274.120, 2.758375
1274.602, 1.459116
1275.084, 0.3803270
1275.566, 0.1236110
1276.048, 7.6994002E-02
1276.530, 0.1156010
1277.012, 9.9238999E-02
1277.495, 0.5860100
1277.977, 1.492958
1278.459, 2.013008
1278.941, 2.215088
1279.423, 2.455711
1279.905, 2.819832
1280.387, 2.699055
1280.869, 1.701771
1281.351, 1.466469
1281.834, 2.028496
1282.316, 2.178574
1282.798, 1.355015
1283.280, 0.3901390
1283.762, 3.2230001E-03
1284.244, 0.0000000E+00
##END=



