##NAMES=Ferroselite
##RRUFFID=R070461
##IDEAL CHEMISTRY=FeSe_2_
##LOCALITY=Virgin No. 3 mine, Paradox Valley, Uravan District,  Montrose County, Colorado, USA
##OWNER=RRUFF
##SOURCE=Michael Scott
##DESCRIPTION=Yellowish silver metallic prismatic crystals. Used in the Lavina et al (2018) study
##STATUS=The identification of this mineral is confirmed by single-crystal X-ray diffraction and chemical analysis.
##URL=rruff.info/R070461
##MEASURED CHEMISTRY=Fe_1.00_Se_2.00_
155.6296, 0.0000000E+00
156.1117, 1.802734
156.5939, 0.8564450
157.0760, 31.09229
157.5581, 72.65332
158.0402, 97.03125
158.5223, 73.96777
159.0044, 103.7114
159.4866, 228.3252
159.9687, 375.9736
160.4508, 495.4351
160.9329, 551.9067
161.4150, 553.8174
161.8971, 551.3945
162.3793, 537.5542
162.8614, 533.3032
163.3435, 547.6133
163.8256, 564.8901
164.3077, 574.6118
164.7898, 574.2007
165.2720, 567.2075
165.7541, 559.7495
166.2362, 558.0688
166.7183, 547.7505
167.2004, 522.0698
167.6825, 492.9712
168.1647, 472.7520
168.6468, 464.3218
169.1289, 459.4209
169.6110, 443.8350
170.0931, 412.3228
170.5752, 379.0000
171.0574, 334.2739
171.5395, 293.4951
172.0216, 273.8662
172.5037, 278.4824
172.9858, 291.6489
173.4679, 286.7661
173.9501, 236.7710
174.4322, 215.0034
174.9143, 232.8687
175.3964, 270.3604
175.8785, 308.8203
176.3606, 343.5195
176.8428, 386.6167
177.3249, 460.1226
177.8070, 574.5796
178.2891, 663.1401
178.7712, 715.6016
179.2533, 746.2466
179.7355, 764.6240
180.2176, 767.9385
180.6997, 754.5615
181.1818, 723.9937
181.6639, 669.0859
182.1460, 608.4912
182.6282, 536.4175
183.1103, 461.8735
183.5924, 392.2925
184.0745, 330.6655
184.5566, 273.6836
185.0387, 216.6572
185.5209, 153.7080
186.0030, 108.5176
186.4851, 93.02197
186.9672, 89.01514
187.4493, 79.92188
187.9314, 62.41846
188.4136, 44.17969
188.8957, 35.33936
189.3778, 39.63721
189.8599, 41.09570
190.3420, 37.48730
190.8241, 31.84912
191.3063, 25.76074
191.7884, 24.87451
192.2705, 29.59619
192.7526, 34.51074
193.2347, 49.22559
193.7168, 54.54004
194.1990, 42.97021
194.6811, 28.01172
195.1632, 22.63525
195.6453, 28.55615
196.1274, 35.40430
196.6095, 33.65625
197.0917, 22.29248
197.5738, 7.609375
198.0559, 15.48242
198.5380, 39.42383
199.0201, 58.27148
199.5022, 70.28613
199.9844, 72.93945
200.4665, 63.50586
200.9486, 40.70264
201.4307, 15.13770
201.9128, 31.61328
202.3949, 73.19775
202.8771, 71.72070
203.3592, 34.07031
203.8413, 1.051270
204.3234, 7.275391
204.8055, 51.62988
205.2876, 79.33545
205.7698, 83.21777
206.2519, 77.59668
206.7340, 69.35352
207.2161, 59.33398
207.6982, 50.12695
208.1803, 43.38770
208.6625, 39.31250
209.1446, 36.03906
209.6267, 19.14746
210.1088, 14.62939
210.5909, 51.05664
211.0730, 119.4155
211.5552, 172.8135
212.0373, 181.3340
212.5194, 156.0698
213.0015, 150.9883
213.4836, 178.0972
213.9657, 212.4468
214.4479, 245.8906
214.9300, 278.0112
215.4121, 307.3970
215.8942, 333.8135
216.3763, 356.3931
216.8584, 373.8306
217.3406, 392.5166
217.8227, 399.0190
218.3048, 381.1558
218.7869, 346.6704
219.2690, 313.9678
219.7511, 289.8608
220.2333, 272.8804
220.7154, 260.0146
221.1975, 251.7134
221.6796, 245.2192
222.1617, 244.3892
222.6438, 244.2690
223.1260, 233.4746
223.6081, 206.2632
224.0902, 172.5981
224.5723, 151.9409
225.0544, 148.3877
225.5365, 140.7524
226.0187, 125.2773
226.5008, 102.5942
226.9829, 68.29395
227.4650, 19.28125
227.9471, 26.19287
228.4292, 37.85938
228.9114, 8.124023
229.3935, 14.83984
229.8756, 17.98389
230.3577, 14.37012
230.8398, 19.57861
231.3219, 36.49854
231.8041, 54.80664
232.2862, 62.03174
232.7683, 55.48486
233.2504, 55.77637
233.7325, 69.77588
234.2146, 86.91602
234.6968, 100.0977
235.1789, 108.0835
235.6610, 110.1724
236.1431, 105.0845
236.6252, 92.18164
237.1073, 78.03662
237.5895, 58.52197
238.0716, 41.29150
238.5537, 31.95850
239.0358, 29.85010
239.5179, 29.04590
240.0000, 23.31982
240.4822, 14.88672
240.9643, 26.74219
241.4464, 84.97119
241.9285, 133.9014
242.4106, 147.7441
242.8927, 133.7637
243.3749, 109.3008
243.8570, 80.81299
244.3391, 52.75439
244.8212, 47.04883
245.3033, 87.87158
245.7854, 118.3721
246.2676, 125.9819
246.7497, 114.9165
247.2318, 86.46240
247.7139, 39.00195
248.1960, 12.84961
248.6781, 33.54053
249.1603, 0.2607420
249.6424, 31.30029
250.1245, 62.09082
250.6066, 86.05811
251.0887, 95.02295
251.5708, 86.76416
252.0530, 69.25244
252.5351, 53.99365
253.0172, 36.84375
253.4993, 32.90820
253.9814, 50.19287
254.4635, 74.55127
254.9457, 99.95312
255.4278, 122.8540
255.9099, 135.5771
256.3920, 131.4385
256.8741, 105.1963
257.3562, 88.47852
257.8383, 85.86035
258.3205, 86.84473
258.8026, 90.24902
259.2847, 94.95996
259.7668, 95.84131
260.2489, 86.45264
260.7310, 66.48096
261.2132, 49.82129
261.6953, 23.35840
262.1774, 13.73047
262.6595, 47.02295
263.1416, 100.5093
263.6237, 133.0610
264.1059, 118.8184
264.5880, 68.08984
265.0701, 30.22705
265.5522, 4.764648
266.0343, 4.982422
266.5164, 15.21533
266.9986, 45.48145
267.4807, 62.39990
267.9628, 56.64746
268.4449, 39.27734
268.9270, 33.10498
269.4091, 44.77783
269.8913, 55.21777
270.3734, 65.89746
270.8555, 73.00049
271.3376, 71.86621
271.8197, 62.20850
272.3018, 49.71191
272.7840, 39.57080
273.2661, 29.04395
273.7482, 31.31250
274.2303, 63.16797
274.7124, 94.27246
275.1945, 112.0591
275.6767, 115.9951
276.1588, 110.5366
276.6409, 94.70459
277.1230, 69.08057
277.6051, 58.29004
278.0872, 71.98535
278.5694, 90.13428
279.0515, 108.4668
279.5336, 125.8037
280.0157, 139.0840
280.4978, 146.2671
280.9799, 147.2642
281.4621, 141.9355
281.9442, 126.6147
282.4263, 113.4971
282.9084, 108.1885
283.3905, 107.1494
283.8727, 106.9307
284.3548, 106.5884
284.8369, 106.2520
285.3190, 106.7812
285.8011, 106.7363
286.2832, 102.4507
286.7654, 92.41260
287.2475, 80.79199
287.7296, 68.54492
288.2117, 54.93652
288.6938, 48.98486
289.1759, 66.11816
289.6581, 100.2412
290.1402, 114.9048
290.6223, 94.42822
291.1044, 65.70605
291.5865, 56.01416
292.0686, 63.02441
292.5508, 69.31348
293.0329, 67.44141
293.5150, 60.37695
293.9971, 50.62939
294.4792, 36.93457
294.9613, 29.27783
295.4435, 41.67871
295.9256, 68.09082
296.4077, 83.28223
296.8898, 73.97754
297.3719, 60.02979
297.8540, 59.25195
298.3362, 69.82959
298.8183, 77.99268
299.3004, 75.39453
299.7825, 64.82617
300.2646, 57.12109
300.7467, 48.87646
301.2289, 47.64258
301.7110, 65.25977
302.1931, 90.49902
302.6752, 99.35889
303.1573, 81.89941
303.6394, 54.58447
304.1216, 48.65576
304.6037, 80.58203
305.0858, 94.54297
305.5679, 72.20361
306.0500, 37.05811
306.5321, 8.902344
307.0143, 4.552734
307.4964, 3.214355
307.9785, 15.71680
308.4606, 57.30078
308.9427, 83.51953
309.4248, 93.82520
309.9070, 92.58594
310.3891, 75.87598
310.8712, 48.89893
311.3533, 22.03955
311.8354, 1.593750
312.3175, 12.06787
312.7997, 15.56641
313.2818, 9.423340
313.7639, 22.60840
314.2460, 7.180176
314.7281, 17.56738
315.2102, 29.21143
315.6924, 19.55176
316.1745, 1.035156
316.6566, 13.44922
317.1387, 11.39941
317.6208, 17.00781
318.1029, 41.00342
318.5851, 65.40430
319.0672, 81.79590
319.5493, 88.28662
320.0314, 85.01123
320.5135, 65.00732
320.9956, 28.35840
321.4778, 15.27686
321.9599, 44.35889
322.4420, 76.56641
322.9241, 94.10010
323.4062, 100.1499
323.8883, 99.87891
324.3705, 94.07422
324.8526, 86.63525
325.3347, 88.85400
325.8168, 104.2490
326.2989, 113.6851
326.7810, 104.4414
327.2632, 86.92236
327.7453, 70.83594
328.2274, 56.42578
328.7095, 47.72021
329.1916, 53.60107
329.6737, 70.23438
330.1559, 75.00098
330.6380, 56.88770
331.1201, 33.46289
331.6022, 27.49512
332.0843, 38.44629
332.5664, 48.96191
333.0486, 51.88330
333.5307, 52.29590
334.0128, 60.70605
334.4949, 78.14307
334.9770, 86.87305
335.4591, 68.88037
335.9413, 25.89893
336.4234, 4.090332
336.9055, 19.06689
337.3876, 23.93115
337.8697, 16.13525
338.3518, 3.8573999E-02
338.8340, 15.39355
339.3161, 25.76221
339.7982, 31.48828
340.2803, 33.45215
340.7624, 20.82178
341.2445, 19.25586
341.7267, 41.38574
342.2088, 68.16797
342.6909, 81.35547
343.1730, 77.77783
343.6551, 68.10693
344.1372, 65.31982
344.6194, 72.13232
345.1015, 71.63672
345.5836, 52.97119
346.0657, 38.13232
346.5478, 34.60596
347.0299, 41.58008
347.5121, 57.21729
347.9942, 82.43311
348.4763, 112.2832
348.9584, 127.4980
349.4405, 122.5239
349.9226, 112.6865
350.4048, 95.94336
350.8869, 79.81348
351.3690, 72.82861
351.8511, 77.36377
352.3332, 84.68457
352.8153, 85.84082
353.2975, 80.91553
353.7796, 71.76904
354.2617, 51.81543
354.7438, 36.18164
355.2259, 38.85547
355.7080, 56.15918
356.1902, 70.73047
356.6723, 71.74805
357.1544, 65.77930
357.6365, 64.33301
358.1186, 68.19434
358.6007, 72.13721
359.0829, 73.35059
359.5650, 72.13770
360.0471, 70.03174
360.5292, 68.05908
361.0113, 63.76025
361.4934, 49.66260
361.9756, 32.27490
362.4577, 31.56494
362.9398, 57.23193
363.4219, 87.59277
363.9040, 85.45020
364.3861, 32.25537
364.8683, 3.231445
365.3504, 23.39941
365.8325, 54.59375
366.3146, 67.19141
366.7967, 60.60059
367.2788, 49.26221
367.7610, 45.16602
368.2431, 45.52344
368.7252, 51.49854
369.2073, 73.59717
369.6894, 89.23682
370.1715, 92.10205
370.6537, 86.42334
371.1358, 76.38867
371.6179, 62.28809
372.1000, 48.25732
372.5821, 40.77295
373.0642, 42.27295
373.5464, 45.61133
374.0285, 55.25537
374.5106, 62.34766
374.9927, 62.32715
375.4748, 55.74902
375.9569, 46.17676
376.4391, 33.60889
376.9212, 20.07715
377.4033, 15.70557
377.8854, 26.43359
378.3675, 31.02148
378.8496, 4.533203
379.3318, 30.10205
379.8139, 40.88770
380.2960, 12.63184
380.7781, 20.68945
381.2602, 27.55762
381.7423, 14.19824
382.2245, 9.163574
382.7066, 22.63672
383.1887, 42.13086
383.6708, 52.31201
384.1529, 53.77295
384.6350, 48.17578
385.1172, 25.42285
385.5993, 2.746582
386.0814, 2.560547
386.5635, 8.696777
387.0456, 23.17383
387.5277, 31.58105
388.0099, 35.47363
388.4920, 46.06250
388.9741, 77.87988
389.4562, 97.86963
389.9383, 92.36865
390.4204, 75.70703
390.9026, 63.02881
391.3847, 59.15674
391.8668, 61.07129
392.3489, 66.12109
392.8310, 77.22559
393.3131, 80.15430
393.7953, 64.23633
394.2774, 50.06348
394.7595, 46.39893
395.2416, 50.84131
395.7237, 56.02051
396.2058, 56.71094
396.6880, 55.74072
397.1701, 64.71240
397.6522, 89.18311
398.1343, 103.6777
398.6164, 88.87402
399.0985, 65.77441
399.5807, 53.79834
400.0628, 55.68848
400.5449, 60.18896
401.0270, 58.65332
401.5091, 54.30127
401.9912, 55.90967
402.4734, 65.32959
402.9555, 77.84619
403.4376, 93.60742
403.9197, 110.2959
404.4018, 112.1743
404.8839, 82.10596
405.3661, 52.54590
405.8482, 42.65771
406.3303, 47.09521
406.8124, 53.38184
407.2945, 56.57910
407.7766, 56.73047
408.2588, 53.53223
408.7409, 42.06543
409.2230, 36.87549
409.7051, 39.53809
410.1872, 46.87158
410.6693, 60.58301
411.1515, 77.83447
411.6336, 91.21143
412.1157, 95.27734
412.5978, 90.38916
413.0799, 76.78223
413.5620, 38.55176
414.0442, 18.89453
414.5263, 41.15479
415.0084, 77.14795
415.4905, 99.94629
415.9726, 102.6665
416.4547, 95.02002
416.9369, 83.59033
417.4190, 69.01953
417.9011, 57.34717
418.3832, 50.71338
418.8653, 44.42529
419.3474, 29.15723
419.8296, 10.20947
420.3117, 5.000977
420.7938, 35.35303
421.2759, 66.54736
421.7580, 62.46729
422.2401, 32.17773
422.7223, 16.77197
423.2044, 37.73828
423.6865, 71.48926
424.1686, 68.67188
424.6507, 0.2954100
425.1328, 35.39795
425.6150, 0.2324220
426.0971, 48.31738
426.5792, 68.17285
427.0613, 58.27539
427.5434, 37.10840
428.0255, 16.08252
428.5077, 2.351074
428.9898, 1.614258
429.4719, 56.75879
429.9540, 91.90967
430.4361, 80.52539
430.9182, 53.83008
431.4004, 42.89941
431.8825, 54.23047
432.3646, 68.80908
432.8467, 63.67432
433.3288, 40.89941
433.8109, 29.66113
434.2931, 37.92773
434.7752, 46.55518
435.2573, 37.36621
435.7394, 20.01709
436.2215, 15.38770
436.7036, 37.70459
437.1858, 61.71533
437.6679, 65.01807
438.1500, 55.54834
438.6321, 55.86426
439.1142, 75.52930
439.5963, 99.72412
440.0785, 104.4019
440.5606, 83.43896
441.0427, 67.53125
441.5248, 58.13525
442.0069, 53.46631
442.4890, 55.20850
442.9712, 60.85303
443.4533, 64.41748
443.9354, 62.17139
444.4175, 55.74365
444.8996, 48.35791
445.3817, 31.83350
445.8639, 30.57324
446.3460, 68.86816
446.8281, 104.5610
447.3102, 100.0518
447.7923, 58.52441
448.2744, 18.97705
448.7566, 15.48291
449.2387, 38.62891
449.7208, 53.46240
450.2029, 59.69043
450.6850, 58.27588
451.1671, 42.64990
451.6493, 22.47168
452.1314, 12.78223
452.6135, 17.67920
453.0956, 24.64551
453.5777, 30.22510
454.0598, 32.54785
454.5420, 24.67969
455.0241, 5.350098
455.5062, 10.57422
455.9883, 8.278320
456.4704, 12.69189
456.9525, 28.56934
457.4347, 38.07422
457.9168, 44.77246
458.3989, 49.01221
458.8810, 53.39551
459.3631, 64.28564
459.8452, 84.09326
460.3274, 100.1465
460.8095, 95.40088
461.2916, 63.91455
461.7737, 41.53369
462.2558, 27.03711
462.7379, 24.68457
463.2200, 47.62842
463.7021, 82.45557
464.1843, 101.7051
464.6664, 91.02930
465.1485, 68.87305
465.6306, 14.75098
466.1127, 65.10303
466.5948, 92.55029
467.0770, 98.93896
467.5591, 20.99561
468.0412, 52.11084
468.5233, 39.61768
469.0054, 25.40479
469.4875, 72.07031
469.9697, 6.755859
470.4518, 52.60596
470.9339, 54.18213
471.4160, 76.12305
471.8981, 54.18750
472.3802, 45.89404
472.8624, 81.63184
473.3445, 93.09863
473.8266, 66.38135
474.3087, 90.03125
474.7908, 23.88574
475.2729, 36.66797
475.7551, 83.54297
476.2372, 59.38525
476.7193, 84.18604
477.2014, 90.43701
477.6835, 12.13623
478.1656, 81.06982
478.6478, 86.42920
479.1299, 26.50879
479.6120, 90.60889
480.0941, 39.83740
480.5762, 30.16211
481.0583, 51.43115
481.5405, 40.58301
482.0226, 80.55176
482.5047, 71.69385
482.9868, 57.15283
483.4689, 63.12891
483.9510, 15.16602
484.4332, 67.48096
484.9153, 51.41406
485.3974, 69.44238
485.8795, 78.27197
486.3616, 88.28906
486.8438, 94.69287
487.3259, 104.1577
487.8080, 114.7114
488.2901, 116.5898
488.7722, 99.02441
489.2543, 68.43506
489.7365, 52.98340
490.2186, 57.65137
490.7007, 64.21484
491.1828, 73.14258
491.6649, 77.55322
492.1470, 68.35205
492.6292, 0.9799800
493.1113, 50.57471
493.5934, 77.92188
494.0755, 84.21777
494.5576, 6.406738
495.0397, 37.21143
495.5219, 24.49902
496.0040, 10.00586
496.4861, 56.11084
496.9682, 9.444824
497.4503, 35.69873
497.9324, 36.65234
498.4146, 57.83252
498.8967, 35.25195
499.3788, 26.16699
499.8609, 60.89209
500.3430, 71.36035
500.8251, 43.71191
501.3073, 66.18359
501.7894, 0.8920900
502.2715, 10.61426
502.7536, 56.02686
503.2357, 30.58545
503.7178, 4.871094
504.2000, 15.68408
504.6821, 52.59473
505.1642, 83.30371
505.6463, 85.05762
506.1284, 70.60938
506.6105, 57.98828
507.0927, 48.60010
507.5748, 46.28760
508.0569, 55.35010
508.5390, 69.79395
509.0211, 70.29199
509.5032, 45.74902
509.9854, 28.25781
510.4675, 26.56738
510.9496, 28.46436
511.4317, 21.93945
511.9138, 9.287109
512.3959, 3.503418
512.8781, 15.51904
513.3602, 37.31641
513.8423, 36.99072
514.3244, 0.9775390
514.8065, 18.21484
515.2886, 15.24854
515.7708, 51.95703
516.2529, 49.23145
516.7350, 9.872070
517.2171, 18.99951
517.6992, 0.6259770
518.1813, 32.68115
518.6635, 35.44824
519.1456, 10.97559
519.6277, 8.219727
520.1098, 5.493652
520.5919, 8.464355
521.0740, 12.93408
521.5562, 2.628418
522.0383, 6.123535
522.5204, 20.39111
523.0025, 26.72656
523.4846, 8.823242
523.9667, 23.06445
524.4489, 44.04443
524.9310, 39.92920
525.4131, 23.11963
525.8952, 19.88721
526.3773, 33.61328
526.8594, 38.63623
527.3416, 22.14453
527.8237, 8.071777
528.3058, 16.91162
528.7879, 43.09473
529.2700, 62.23828
529.7521, 61.58984
530.2343, 56.30518
530.7164, 59.58984
531.1985, 67.91943
531.6806, 70.99561
532.1627, 65.37744
532.6448, 57.48389
533.1270, 55.99658
533.6091, 63.04688
534.0912, 63.15088
534.5733, 46.98242
535.0554, 35.03027
535.5375, 37.93213
536.0197, 46.93115
536.5018, 46.86182
536.9839, 33.25293
537.4660, 23.79297
537.9481, 47.13477
538.4302, 97.44385
538.9124, 122.0200
539.3945, 111.4360
539.8766, 92.29150
540.3587, 78.33252
540.8408, 67.90186
541.3229, 56.36426
541.8051, 42.41406
542.2872, 29.77686
542.7693, 19.62939
543.2514, 11.75879
543.7335, 3.551270
544.2156, 3.852051
544.6978, 1.479004
545.1799, 20.11328
545.6620, 55.15088
546.1441, 70.05176
546.6262, 52.61377
547.1083, 36.39502
547.5905, 23.67041
548.0726, 15.70459
548.5547, 15.02295
549.0368, 20.69775
549.5189, 27.37256
550.0010, 32.55615
550.4832, 36.28516
550.9653, 39.45703
551.4474, 42.01904
551.9295, 43.21387
552.4116, 41.76904
552.8937, 41.07031
553.3759, 48.13916
553.8580, 68.74854
554.3401, 74.63672
554.8222, 51.61670
555.3043, 27.77295
555.7864, 13.47119
556.2686, 8.433105
556.7507, 12.51855
557.2328, 25.61865
557.7149, 39.94482
558.1970, 41.27734
558.6791, 28.77246
559.1613, 28.98730
559.6434, 51.82812
560.1255, 72.58252
560.6076, 74.08057
561.0897, 63.83350
561.5718, 53.61475
562.0540, 44.37891
562.5361, 36.84180
563.0182, 33.49951
563.5003, 31.17871
563.9824, 20.90381
564.4645, 3.910156
564.9467, 1.936523
565.4288, 19.83740
565.9109, 62.00977
566.3930, 85.77686
566.8751, 84.42188
567.3572, 75.25732
567.8394, 53.15576
568.3215, 30.40918
568.8036, 13.78320
569.2857, 4.273926
569.7678, 2.417480
570.2499, 12.93408
570.7321, 25.73242
571.2142, 25.24316
571.6963, 13.96484
572.1784, 13.01025
572.6605, 30.50439
573.1426, 54.22852
573.6248, 66.16064
574.1069, 65.10352
574.5890, 57.22803
575.0711, 32.65479
575.5532, 12.45850
576.0353, 1.192383
576.5175, 5.639160
576.9996, 5.013672
577.4817, 30.82764
577.9638, 61.86230
578.4459, 93.36914
578.9280, 122.4731
579.4102, 122.4072
579.8923, 83.09033
580.3744, 44.80957
580.8565, 22.56348
581.3386, 18.02686
581.8207, 34.11328
582.3029, 80.18604
582.7850, 106.0244
583.2671, 83.95654
583.7492, 45.95752
584.2313, 11.61768
584.7134, 13.67676
585.1956, 18.82812
585.6777, 2.912109
586.1598, 36.17480
586.6419, 48.00146
587.1240, 32.09814
587.6061, 20.04297
588.0883, 10.50977
588.5704, 8.900879
589.0525, 24.87451
589.5346, 48.24365
590.0167, 62.59424
590.4988, 63.08984
590.9810, 55.53516
591.4631, 33.79297
591.9452, 10.00439
592.4273, 10.96387
592.9094, 38.68750
593.3915, 66.01465
593.8737, 71.90771
594.3558, 60.71680
594.8379, 54.43652
595.3200, 60.58984
595.8021, 58.84180
596.2842, 34.34277
596.7664, 13.54541
597.2485, 18.41455
597.7306, 43.18799
598.2127, 63.75732
598.6948, 64.85791
599.1769, 60.43555
599.6591, 72.18213
600.1412, 95.34131
600.6233, 105.5098
601.1054, 95.55518
601.5875, 78.03125
602.0696, 63.33301
602.5518, 51.85547
603.0339, 47.91211
603.5160, 58.68457
603.9981, 66.38281
604.4802, 66.26318
604.9623, 62.37598
605.4445, 58.38916
605.9266, 54.84766
606.4087, 50.31592
606.8908, 43.81152
607.3729, 1.262695
607.8550, 50.08789
608.3372, 79.18945
608.8193, 87.23682
609.3014, 11.17480
609.7835, 43.72168
610.2656, 32.74316
610.7477, 19.98145
611.2299, 67.81592
611.7120, 3.989258
612.1941, 50.86328
612.6762, 53.54785
613.1583, 76.45654
613.6404, 55.57080
614.1226, 48.18018
614.6047, 84.63135
615.0868, 96.82422
615.5689, 70.89795
616.0510, 95.09033
616.5331, 29.73389
617.0153, 42.95801
617.4974, 90.08691
617.9795, 66.35889
618.4616, 55.67480
618.9437, 65.64111
619.4258, 67.77197
619.9080, 51.72119
620.3901, 35.99854
620.8722, 34.97949
621.3543, 41.50586
621.8364, 40.61279
622.3185, 27.77393
622.8007, 13.45459
623.2828, 12.18262
623.7649, 22.78613
624.2470, 29.61816
624.7291, 32.69482
625.2112, 32.57520
625.6934, 29.88672
626.1755, 24.53516
626.6576, 13.33154
627.1397, 6.325195
627.6218, 12.54004
628.1039, 15.13135
628.5861, 45.57031
629.0682, 54.98682
629.5503, 48.72363
630.0324, 41.70361
630.5145, 38.75439
630.9966, 36.19092
631.4788, 27.70410
631.9609, 12.71387
632.4430, 15.49316
632.9251, 48.42285
633.4072, 72.76221
633.8893, 65.14404
634.3715, 42.51904
634.8536, 25.44873
635.3357, 14.59521
635.8178, 7.651855
636.2999, 5.555664
636.7820, 5.633301
637.2642, 4.923340
637.7463, 4.596680
638.2284, 8.133301
638.7105, 16.93652
639.1926, 27.92725
639.6747, 38.63818
640.1569, 49.61475
640.6390, 47.50977
641.1211, 22.75879
641.6032, 3.668945
642.0853, 8.402832
642.5674, 21.27100
643.0496, 24.22461
643.5317, 16.16211
644.0138, 11.64990
644.4959, 24.00586
644.9780, 35.21729
645.4601, 24.05029
645.9423, 0.1420900
646.4244, 12.21680
646.9065, 2.519043
647.3886, 15.97705
647.8707, 24.20264
648.3528, 21.53125
648.8350, 32.72803
649.3171, 70.03418
649.7992, 94.38330
650.2813, 79.14111
650.7634, 48.22266
651.2455, 30.14258
651.7277, 26.66504
652.2098, 29.59521
652.6919, 40.90674
653.1740, 53.85059
653.6561, 64.32422
654.1382, 72.28174
654.6204, 78.82520
655.1025, 84.65527
655.5846, 86.81934
656.0667, 83.53955
656.5488, 75.05664
657.0309, 62.72168
657.5131, 44.82422
657.9952, 27.77148
658.4773, 10.78564
658.9594, 1.699219
659.4415, 2.877441
659.9236, 7.991211
660.4058, 17.63379
660.8879, 20.67676
661.3700, 24.36816
661.8521, 34.15576
662.3342, 47.25781
662.8163, 60.19580
663.2985, 71.42041
663.7806, 78.12402
664.2627, 76.37598
664.7448, 67.55029
665.2269, 57.57031
665.7090, 45.37549
666.1912, 40.82471
666.6733, 52.53076
667.1554, 66.91699
667.6375, 65.99121
668.1196, 49.98389
668.6017, 36.26465
669.0839, 22.61621
669.5660, 15.46924
670.0481, 22.54883
670.5302, 34.90039
671.0123, 40.65820
671.4944, 39.12402
671.9766, 39.36914
672.4587, 52.46191
672.9408, 71.05029
673.4229, 75.17969
673.9050, 64.81396
674.3871, 53.60693
674.8693, 45.01270
675.3514, 36.45850
675.8335, 22.81494
676.3156, 4.731934
676.7977, 2.097656
677.2798, 32.98828
677.7620, 54.17773
678.2441, 48.26123
678.7262, 36.07910
679.2083, 38.70947
679.6904, 53.24170
680.1725, 59.78955
680.6547, 44.42529
681.1368, 20.85840
681.6189, 4.243652
682.1010, 4.509277
682.5831, 2.425781
683.0652, 27.83838
683.5474, 50.76465
684.0295, 52.66309
684.5116, 39.67432
684.9937, 40.22314
685.4758, 78.72705
685.9579, 91.40674
686.4401, 51.28467
686.9222, 8.843750
687.4043, 10.49170
687.8864, 9.823730
688.3685, 2.096191
688.8506, 25.93506
689.3328, 46.96533
689.8149, 49.24902
690.2970, 42.66699
690.7791, 47.96094
691.2612, 64.17285
691.7433, 70.08691
692.2255, 52.75244
692.7076, 25.02637
693.1897, 15.98486
693.6718, 29.62354
694.1539, 32.24023
694.6360, 13.62988
695.1182, 1.015137
695.6003, 10.18555
696.0824, 29.49658
696.5645, 45.05713
697.0466, 54.19678
697.5287, 59.75977
698.0109, 61.99902
698.4930, 61.47852
698.9751, 54.08594
699.4572, 45.06104
699.9393, 49.79932
700.4214, 71.88623
700.9036, 90.26611
701.3857, 76.26758
701.8678, 35.80469
702.3499, 14.75049
702.8320, 16.22656
703.3141, 23.13037
703.7963, 33.79883
704.2784, 42.25879
704.7605, 42.29053
705.2426, 33.40674
705.7247, 26.95459
706.2068, 17.09033
706.6890, 17.52441
707.1711, 50.35742
707.6532, 84.13916
708.1353, 78.32129
708.6174, 37.46484
709.0995, 5.187500
709.5817, 12.66357
710.0638, 36.60840
710.5459, 42.00342
711.0280, 31.71045
711.5101, 17.06738
711.9922, 0.6718750
712.4744, 10.29883
712.9565, 0.7260740
713.4386, 21.66748
713.9207, 30.18457
714.4028, 9.125488
714.8849, 2.839844
715.3671, 26.29199
715.8492, 50.11279
716.3313, 56.79688
716.8134, 54.63623
717.2955, 63.70557
717.7776, 94.00244
718.2598, 113.0630
718.7419, 87.43701
719.2240, 49.25488
719.7061, 41.74268
720.1882, 58.57520
720.6703, 67.98975
721.1525, 56.43311
721.6346, 35.55908
722.1167, 20.85449
722.5988, 12.31494
723.0809, 7.950684
723.5630, 9.522949
724.0452, 9.790527
724.5273, 4.707031
725.0094, 1.517090
725.4915, 4.185059
725.9736, 3.443848
726.4557, 1.546875
726.9379, 20.76465
727.4200, 32.43115
727.9021, 19.23193
728.3842, 4.6875000E-02
728.8663, 6.167480
729.3484, 3.167969
729.8306, 21.50684
730.3127, 50.52490
730.7948, 76.42529
731.2769, 73.06934
731.7590, 47.35596
732.2411, 27.75488
732.7233, 19.19189
733.2054, 20.98340
733.6875, 34.63135
734.1696, 55.66211
734.6517, 68.53174
735.1339, 67.87500
735.6160, 71.09082
736.0981, 86.87939
736.5802, 97.58350
737.0623, 93.74707
737.5444, 80.51855
738.0266, 65.28857
738.5087, 48.49805
738.9908, 33.99854
739.4729, 23.94189
739.9550, 16.26025
740.4371, 5.472168
740.9193, 3.041992
741.4014, 7.300293
741.8835, 40.18457
742.3656, 74.18994
742.8477, 86.52637
743.3298, 80.86670
743.8120, 69.88281
744.2941, 52.84570
744.7762, 41.58057
745.2583, 39.47363
745.7404, 43.07129
746.2225, 51.32324
746.7047, 62.96387
747.1868, 63.94824
747.6689, 36.47217
748.1510, 23.33301
748.6331, 51.24658
749.1152, 75.01074
749.5974, 51.76367
750.0795, 1.543457
750.5616, 34.69238
751.0437, 26.70459
751.5258, 6.756836
752.0079, 11.32715
752.4901, 23.56543
752.9722, 17.01074
753.4543, 2.513672
753.9364, 9.001953
754.4185, 10.15576
754.9006, 40.03418
755.3828, 61.60156
755.8649, 74.78027
756.3470, 66.90869
756.8291, 29.28223
757.3112, 2.510742
757.7933, 4.034180
758.2755, 19.90674
758.7576, 36.52441
759.2397, 54.46729
759.7218, 60.19385
760.2039, 36.63037
760.6860, 22.57080
761.1682, 37.59717
761.6503, 58.76953
762.1324, 65.31445
762.6145, 58.00488
763.0966, 49.01611
763.5787, 43.21387
764.0609, 39.57520
764.5430, 39.63525
765.0251, 40.32568
765.5072, 31.05176
765.9893, 14.22754
766.4714, 11.34424
766.9536, 35.50244
767.4357, 68.78857
767.9178, 76.48535
768.3999, 55.64160
768.8820, 47.33350
769.3641, 56.40088
769.8463, 64.72021
770.3284, 64.81006
770.8105, 61.19434
771.2926, 57.55225
771.7747, 53.74365
772.2568, 49.28027
772.7390, 38.38037
773.2211, 33.88232
773.7032, 46.69385
774.1853, 62.53857
774.6674, 65.76562
775.1495, 58.13330
775.6317, 54.40137
776.1138, 64.64160
776.5959, 74.97070
777.0780, 68.66553
777.5601, 54.29688
778.0422, 47.33594
778.5244, 49.05078
779.0065, 56.20850
779.4886, 67.76074
779.9707, 77.03076
780.4528, 68.70264
780.9349, 41.48096
781.4171, 31.03516
781.8992, 44.15625
782.3813, 51.14014
782.8634, 32.00146
783.3455, 6.428223
783.8276, 2.595215
784.3098, 23.14941
784.7919, 39.49023
785.2740, 54.33740
785.7561, 61.38574
786.2382, 52.39746
786.7203, 39.85889
787.2025, 35.56689
787.6846, 37.95459
788.1667, 39.31445
788.6488, 35.85840
789.1309, 32.40918
789.6130, 32.16260
790.0952, 34.35400
790.5773, 35.99072
791.0594, 38.83740
791.5415, 52.38330
792.0236, 80.91943
792.5057, 109.4961
792.9879, 114.6230
793.4700, 99.65674
793.9521, 95.10400
794.4342, 103.2764
794.9163, 95.42920
795.3984, 49.21631
795.8806, 7.687500
796.3627, 24.61426
796.8448, 96.45898
797.3269, 126.8618
797.8090, 85.68066
798.2911, 49.60156
798.7733, 21.82227
799.2554, 5.151855
799.7375, 3.853516
800.2196, 13.88770
800.7017, 27.96240
801.1838, 48.55225
801.6660, 59.78271
802.1481, 40.80566
802.6302, 21.91748
803.1123, 34.37744
803.5944, 65.63672
804.0765, 90.46582
804.5587, 100.4678
805.0408, 97.47998
805.5229, 76.61084
806.0050, 48.12451
806.4871, 34.32568
806.9692, 34.08447
807.4514, 36.43750
807.9335, 38.52490
808.4156, 33.90137
808.8977, 19.10449
809.3798, 0.7568360
809.8619, 0.6718750
810.3441, 18.95312
810.8262, 37.26416
811.3083, 52.37451
811.7904, 66.60547
812.2725, 88.21094
812.7546, 106.9634
813.2368, 103.1133
813.7189, 71.87158
814.2010, 45.94775
814.6831, 21.50586
815.1652, 10.87793
815.6473, 28.64551
816.1295, 55.89990
816.6116, 73.89160
817.0937, 81.42969
817.5758, 87.17041
818.0579, 95.50928
818.5400, 102.5513
819.0222, 105.5742
819.5043, 104.9995
819.9864, 100.3853
820.4685, 92.63135
820.9506, 84.57422
821.4327, 77.64258
821.9149, 70.74072
822.3970, 62.24219
822.8791, 52.43262
823.3612, 41.54980
823.8433, 29.54639
824.3254, 24.92822
824.8076, 31.78271
825.2897, 40.59131
825.7718, 40.91016
826.2539, 33.83545
826.7360, 29.72705
827.2181, 29.43799
827.7003, 30.04346
828.1824, 30.13574
828.6645, 33.09180
829.1466, 41.48975
829.6287, 52.24268
830.1108, 58.43018
830.5930, 59.54443
831.0751, 55.99609
831.5572, 37.46484
832.0393, 25.68604
832.5214, 39.32666
833.0035, 61.90137
833.4856, 69.87451
833.9677, 62.02148
834.4498, 58.53662
834.9319, 77.47314
835.4141, 95.94727
835.8962, 87.63867
836.3783, 66.74365
836.8604, 58.53467
837.3425, 62.79297
837.8246, 63.14941
838.3068, 51.00391
838.7889, 32.01611
839.2710, 6.321777
839.7531, 20.20752
840.2352, 10.68604
840.7173, 35.92041
841.1995, 74.52295
841.6816, 90.93018
842.1637, 88.35938
842.6458, 66.33105
843.1279, 28.78369
843.6100, 10.98438
844.0922, 21.33105
844.5743, 28.03516
845.0564, 23.90869
845.5385, 20.18164
846.0206, 22.58252
846.5027, 30.87598
846.9849, 45.00732
847.4670, 68.15234
847.9491, 86.23779
848.4312, 101.0176
848.9133, 106.8662
849.3954, 96.60938
849.8776, 79.57568
850.3597, 67.12500
850.8418, 58.89453
851.3239, 43.48486
851.8060, 0.7817380
852.2881, 26.41895
852.7703, 10.33594
853.2524, 65.45703
853.7345, 82.60156
854.2166, 64.97803
854.6987, 40.81982
855.1808, 24.07129
855.6630, 19.09570
856.1451, 42.82959
856.6272, 76.74512
857.1093, 70.62402
857.5914, 34.29150
858.0735, 21.23486
858.5557, 44.73486
859.0378, 77.27637
859.5199, 97.64014
860.0020, 105.3521
860.4841, 94.09033
860.9662, 61.25684
861.4484, 46.72998
861.9305, 59.35693
862.4126, 68.20605
862.8947, 57.32129
863.3768, 34.49121
863.8589, 11.97168
864.3411, 12.82178
864.8232, 9.463379
865.3053, 55.80322
865.7874, 95.53027
866.2695, 69.48340
866.7516, 32.65332
867.2338, 24.42432
867.7159, 36.66602
868.1980, 40.90625
868.6801, 29.07910
869.1622, 20.58887
869.6443, 19.34570
870.1265, 22.98877
870.6086, 30.66064
871.0907, 42.20459
871.5728, 63.37842
872.0549, 92.23877
872.5370, 105.0498
873.0192, 75.41357
873.5013, 40.52246
873.9834, 28.09180
874.4655, 28.27344
874.9476, 29.97656
875.4297, 30.96582
875.9119, 30.50781
876.3940, 28.06885
876.8761, 27.21289
877.3582, 36.11865
877.8403, 47.88818
878.3224, 42.08105
878.8046, 23.88770
879.2867, 19.35547
879.7688, 35.44873
880.2509, 61.84277
880.7330, 93.17285
881.2151, 120.1304
881.6973, 108.9419
882.1794, 59.27344
882.6615, 37.39746
883.1436, 53.12109
883.6257, 71.53467
884.1078, 78.09229
884.5900, 72.36914
885.0721, 50.06299
885.5542, 9.759277
886.0363, 8.623535
886.5184, 4.608398
887.0005, 16.82617
887.4827, 20.42480
887.9648, 23.09912
888.4469, 33.12109
888.9290, 46.50732
889.4111, 48.88867
889.8932, 31.07129
890.3754, 24.35938
890.8575, 37.95850
891.3396, 53.09766
891.8217, 62.99561
892.3038, 70.77686
892.7859, 83.02197
893.2681, 98.28418
893.7502, 102.3608
894.2323, 79.29395
894.7144, 61.96680
895.1965, 74.32617
895.6786, 87.32129
896.1608, 71.10303
896.6429, 37.97510
897.1250, 16.03076
897.6071, 11.66943
898.0892, 12.54053
898.5714, 7.005859
899.0535, 4.249512
899.5356, 18.38330
900.0177, 39.54541
900.4998, 54.24365
900.9819, 59.14502
901.4641, 50.60742
901.9462, 24.64893
902.4283, 0.1435550
902.9104, 1.944824
903.3925, 21.45361
903.8746, 43.81396
904.3568, 66.34229
904.8389, 84.28320
905.3210, 95.59180
905.8031, 92.55664
906.2852, 64.60596
906.7673, 24.97070
907.2495, 7.709473
907.7316, 11.51270
908.2137, 25.64062
908.6958, 49.87744
909.1779, 60.45361
909.6600, 44.55908
910.1422, 14.33252
910.6243, 11.13184
911.1064, 32.26807
911.5885, 21.45801
912.0706, 32.00732
912.5527, 67.14648
913.0349, 67.38232
913.5170, 60.60254
913.9991, 66.83594
914.4812, 78.63281
914.9633, 76.95459
915.4454, 57.70166
915.9276, 39.75635
916.4097, 19.64941
916.8918, 6.873047
917.3739, 7.171875
917.8560, 13.11572
918.3381, 22.19922
918.8203, 32.15137
919.3024, 30.02441
919.7845, 0.1845700
920.2666, 15.21436
920.7487, 2.665039
921.2308, 13.88184
921.7130, 23.01367
922.1951, 26.92480
922.6772, 29.54150
923.1593, 31.95264
923.6414, 35.88281
924.1235, 47.55908
924.6057, 54.17383
925.0878, 47.51318
925.5699, 37.00781
926.0520, 26.71582
926.5341, 18.81055
927.0162, 15.93896
927.4984, 18.81592
927.9805, 25.49414
928.4626, 43.41797
928.9447, 55.43018
929.4268, 41.36914
929.9089, 19.86475
930.3911, 16.39062
930.8732, 28.25586
931.3553, 35.02734
931.8374, 27.11133
932.3195, 20.80713
932.8016, 36.99512
933.2838, 56.04932
933.7659, 49.58301
934.2480, 29.18701
934.7301, 20.13135
935.2122, 26.29199
935.6943, 34.59180
936.1765, 37.13916
936.6586, 36.96924
937.1407, 37.28271
937.6228, 38.06934
938.1049, 41.35254
938.5870, 45.22461
939.0692, 39.47070
939.5513, 21.98047
940.0334, 10.38281
940.5155, 24.11768
940.9976, 47.06250
941.4797, 38.49902
941.9619, 8.810547
942.4440, 9.833984
942.9261, 43.19189
943.4082, 66.69434
943.8903, 60.78564
944.3724, 46.73486
944.8546, 49.91309
945.3367, 63.48877
945.8188, 52.37744
946.3009, 18.11377
946.7830, 8.991699
947.2651, 34.21436
947.7473, 55.44873
948.2294, 48.84521
948.7115, 34.39307
949.1936, 50.40186
949.6757, 94.82422
950.1578, 101.6880
950.6400, 65.31348
951.1221, 33.16797
951.6042, 13.30762
952.0863, 10.93115
952.5684, 35.91846
953.0505, 70.87158
953.5327, 70.31592
954.0148, 25.45312
954.4969, 2.626953
954.9790, 7.879395
955.4611, 15.93262
955.9432, 20.73730
956.4254, 23.48926
956.9075, 23.02930
957.3896, 22.46436
957.8717, 35.20264
958.3538, 71.88770
958.8359, 90.98047
959.3181, 85.28271
959.8002, 75.59473
960.2823, 67.75439
960.7644, 60.13525
961.2465, 48.78369
961.7286, 35.02441
962.2108, 30.98926
962.6929, 43.80908
963.1750, 53.09814
963.6571, 61.59229
964.1392, 62.05273
964.6213, 43.66992
965.1035, 21.08398
965.5856, 14.42529
966.0677, 23.38867
966.5498, 26.19775
967.0319, 12.85645
967.5140, 8.362305
967.9962, 25.96484
968.4783, 38.98389
968.9604, 28.13135
969.4425, 10.04102
969.9246, 8.809082
970.4067, 24.44043
970.8889, 32.07959
971.3710, 23.25488
971.8531, 15.18652
972.3352, 7.597656
972.8173, 5.163086
973.2994, 14.06250
973.7816, 28.72803
974.2637, 40.13037
974.7458, 47.20508
975.2279, 52.08398
975.7100, 54.63086
976.1921, 55.64746
976.6743, 60.64746
977.1564, 59.01904
977.6385, 32.63135
978.1206, 4.243164
978.6027, 18.19336
979.0848, 2.755371
979.5670, 17.45264
980.0491, 53.00684
980.5312, 69.84912
981.0133, 33.00146
981.4954, 9.204590
981.9775, 10.62256
982.4597, 15.68506
982.9418, 30.48730
983.4239, 24.10889
983.9060, 17.61914
984.3881, 15.43994
984.8702, 17.54248
985.3524, 27.09082
985.8345, 38.40820
986.3166, 45.36719
986.7987, 49.28955
987.2808, 57.11182
987.7629, 73.39307
988.2451, 78.71045
988.7272, 53.11133
989.2093, 29.41455
989.6914, 32.13330
990.1735, 41.33447
990.6556, 28.77197
991.1378, 2.583008
991.6199, 1.522949
992.1020, 33.90088
992.5841, 60.21875
993.0662, 47.83936
993.5483, 30.35596
994.0305, 30.28516
994.5126, 35.26318
994.9947, 29.37646
995.4768, 13.84131
995.9589, 0.5693360
996.4410, 7.050781
996.9232, 10.48828
997.4053, 9.638184
997.8874, 5.710938
998.3695, 5.076660
998.8516, 15.51758
999.3337, 14.38916
999.8159, 4.402344
1000.298, 0.3051760
1000.780, 8.341309
1001.262, 18.20264
1001.744, 29.48242
1002.226, 35.36084
1002.709, 22.68604
1003.191, 7.324219
1003.673, 14.11377
1004.155, 38.43213
1004.637, 50.32959
1005.119, 36.15430
1005.601, 20.58350
1006.083, 5.916504
1006.565, 3.495117
1007.048, 36.02148
1007.530, 75.43213
1008.012, 83.34277
1008.494, 63.12988
1008.976, 47.50635
1009.458, 48.60449
1009.940, 51.45947
1010.422, 52.61572
1010.905, 49.88818
1011.387, 38.09424
1011.869, 24.19434
1012.351, 15.26904
1012.833, 12.45410
1013.315, 15.12207
1013.797, 24.93555
1014.279, 34.49854
1014.761, 36.83740
1015.244, 42.35400
1015.726, 68.24512
1016.208, 93.48242
1016.690, 84.89941
1017.172, 50.93018
1017.654, 36.87598
1018.136, 64.33838
1018.618, 84.24268
1019.101, 70.96094
1019.583, 54.20068
1020.065, 46.30225
1020.547, 47.05127
1021.029, 62.91602
1021.511, 86.72314
1021.993, 92.40234
1022.475, 67.88086
1022.957, 44.50830
1023.440, 30.61865
1023.922, 21.57959
1024.404, 9.408203
1024.886, 5.272461
1025.368, 30.35254
1025.850, 73.60107
1026.332, 95.30664
1026.814, 83.42236
1027.297, 65.58008
1027.779, 36.18945
1028.261, 16.74805
1028.743, 21.85010
1029.225, 35.72412
1029.707, 48.56104
1030.189, 57.36279
1030.671, 55.02832
1031.153, 36.01660
1031.636, 22.81641
1032.118, 23.84619
1032.600, 24.38916
1033.082, 13.41309
1033.564, 5.890137
1034.046, 19.02051
1034.528, 44.35059
1035.010, 60.22998
1035.493, 65.96143
1035.975, 59.35791
1036.457, 16.73828
1036.939, 6.202637
1037.421, 20.46191
1037.903, 50.84668
1038.385, 51.14062
1038.867, 32.86768
1039.349, 18.51855
1039.832, 7.677246
1040.314, 7.630859
1040.796, 27.07568
1041.278, 41.99365
1041.760, 45.37354
1042.242, 48.20312
1042.724, 59.65918
1043.206, 71.80762
1043.688, 68.81250
1044.171, 48.80029
1044.653, 35.51660
1045.135, 29.50098
1045.617, 29.05664
1046.099, 35.17627
1046.581, 45.12549
1047.063, 61.41357
1047.545, 75.66553
1048.028, 73.17773
1048.510, 54.34668
1048.992, 36.11084
1049.474, 14.83740
1049.956, 11.99707
1050.438, 37.89209
1050.920, 54.30469
1051.402, 36.66846
1051.885, 8.601563
1052.367, 3.073730
1052.849, 0.6049800
1053.331, 12.13623
1053.813, 32.95557
1054.295, 49.92969
1054.777, 61.71875
1055.259, 75.89600
1055.741, 95.79492
1056.224, 108.7437
1056.706, 100.2241
1057.188, 75.30127
1057.670, 44.20264
1058.152, 8.751953
1058.634, 3.814453
1059.116, 7.237305
1059.598, 23.31250
1060.080, 38.61035
1060.563, 48.39648
1061.045, 48.47363
1061.527, 42.08154
1062.009, 29.32715
1062.491, 16.03320
1062.973, 34.39355
1063.455, 75.37109
1063.937, 86.12402
1064.420, 57.86865
1064.902, 26.81592
1065.384, 15.41992
1065.866, 14.91211
1066.348, 13.79248
1066.830, 15.38184
1067.312, 31.12012
1067.794, 53.43701
1068.276, 63.04199
1068.759, 58.51611
1069.241, 48.03125
1069.723, 35.15820
1070.205, 25.97900
1070.687, 28.81299
1071.169, 35.76660
1071.651, 37.54785
1072.133, 37.67432
1072.615, 41.59521
1073.098, 48.85156
1073.580, 56.81982
1074.062, 64.54102
1074.544, 70.62061
1075.026, 72.59912
1075.508, 74.78467
1075.990, 89.14551
1076.472, 97.08594
1076.955, 69.41162
1077.437, 26.91553
1077.919, 9.524414
1078.401, 22.27393
1078.883, 36.57031
1079.365, 41.31543
1079.847, 48.30420
1080.329, 73.22266
1080.811, 88.55371
1081.294, 20.30518
1081.776, 69.69580
1082.258, 96.89746
1082.740, 103.0894
1083.222, 25.43555
1083.704, 56.07764
1084.186, 43.31738
1084.668, 28.82324
1085.151, 75.88721
1085.633, 10.48682
1086.115, 55.40771
1086.597, 56.26367
1087.079, 77.28613
1087.561, 54.63867
1088.043, 45.47900
1088.525, 80.00000
1089.007, 90.71924
1089.490, 63.12256
1089.972, 85.42139
1090.454, 18.42627
1090.936, 29.78564
1091.418, 74.93066
1091.900, 49.44287
1092.382, 72.53467
1092.864, 77.12158
1093.346, 2.373047
1093.829, 64.35449
1094.311, 67.84961
1094.793, 6.136719
1095.275, 67.85840
1095.757, 15.37891
1096.239, 3.749023
1096.721, 52.89355
1097.203, 42.21484
1097.686, 5.567383
1098.168, 12.42725
1098.650, 11.29248
1099.132, 9.764160
1099.614, 12.40381
1100.096, 3.982910
1100.578, 29.60645
1101.060, 63.20801
1101.542, 58.32959
1102.025, 33.97168
1102.507, 19.64697
1102.989, 13.35303
1103.471, 8.258789
1103.953, 3.239258
1104.435, 1.797363
1104.917, 7.342285
1105.399, 4.655762
1105.881, 22.31934
1106.364, 49.31006
1106.846, 59.95557
1107.328, 57.80664
1107.810, 38.53857
1108.292, 19.42236
1108.774, 32.76221
1109.256, 62.76025
1109.738, 71.74121
1110.221, 3.285156
1110.703, 30.08301
1111.185, 20.09961
1111.667, 8.346680
1112.149, 57.01562
1112.631, 5.652832
1113.113, 42.05615
1113.595, 45.70264
1114.078, 69.51807
1114.560, 49.66162
1115.042, 43.29053
1115.524, 80.60205
1116.006, 93.70215
1116.488, 68.58105
1116.970, 56.51758
1117.452, 56.97314
1117.934, 47.98193
1118.417, 49.66943
1118.899, 62.57764
1119.381, 61.16650
1119.863, 42.86523
1120.345, 34.75781
1120.827, 41.85498
1121.309, 51.63428
1121.791, 58.74268
1122.273, 57.67676
1122.756, 37.23779
1123.238, 11.09131
1123.720, 25.00342
1124.202, 65.13330
1124.684, 74.42139
1125.166, 55.70215
1125.648, 42.31543
1126.130, 42.85156
1126.613, 44.17578
1127.095, 37.34521
1127.577, 29.47510
1128.059, 28.03516
1128.541, 30.20898
1129.023, 36.64844
1129.505, 42.06689
1129.987, 35.54541
1130.469, 20.52783
1130.952, 10.96240
1131.434, 11.48926
1131.916, 12.80371
1132.398, 0.6552730
1132.880, 0.3481450
1133.362, 52.92627
1133.844, 100.8252
1134.326, 92.18115
1134.808, 56.11670
1135.291, 39.63721
1135.773, 44.91553
1136.255, 48.64404
1136.737, 46.72949
1137.219, 47.44287
1137.701, 55.33301
1138.183, 57.65381
1138.665, 46.49512
1139.148, 35.09814
1139.630, 33.50830
1140.112, 40.78564
1140.594, 59.51367
1141.076, 90.97754
1141.558, 76.69043
1142.040, 11.67627
1142.522, 16.10840
1143.005, 8.261230
1143.487, 36.81738
1143.969, 46.84082
1144.451, 48.74609
1144.933, 55.52881
1145.415, 59.76074
1145.897, 33.98096
1146.379, 3.303223
1146.861, 4.605469
1147.344, 44.13428
1147.826, 59.47168
1148.308, 42.89062
1148.790, 35.10059
1149.272, 60.83057
1149.754, 84.39990
1150.236, 74.24854
1150.718, 53.95215
1151.200, 37.77100
1151.683, 26.94531
1152.165, 24.95996
1152.647, 27.06445
1153.129, 20.82861
1153.611, 3.653809
1154.093, 4.187012
1154.575, 10.26904
1155.057, 21.91895
1155.540, 22.63867
1156.022, 24.62451
1156.504, 36.19043
1156.986, 45.33350
1157.468, 37.40820
1157.950, 21.40674
1158.432, 27.07910
1158.914, 62.27881
1159.396, 65.90771
1159.879, 30.91504
1160.361, 11.09912
1160.843, 18.63330
1161.325, 30.44141
1161.807, 33.90332
1162.289, 31.73193
1162.771, 24.53906
1163.253, 18.49072
1163.735, 34.72266
1164.218, 62.74414
1164.700, 69.72900
1165.182, 60.21533
1165.664, 61.12451
1166.146, 73.97314
1166.628, 74.25537
1167.110, 40.24854
1167.592, 10.72949
1168.075, 22.36230
1168.557, 44.02002
1169.039, 52.23877
1169.521, 53.21387
1170.003, 51.06787
1170.485, 49.30615
1170.967, 59.53711
1171.449, 83.80859
1171.932, 92.15967
1172.414, 60.79346
1172.896, 43.30273
1173.378, 56.37158
1173.860, 68.16748
1174.342, 65.53711
1174.824, 59.50635
1175.306, 61.99414
1175.788, 67.37891
1176.271, 56.33789
1176.753, 27.51025
1177.235, 18.76660
1177.717, 30.41895
1178.199, 48.12256
1178.681, 69.01904
1179.163, 81.47559
1179.645, 80.12256
1180.127, 68.21387
1180.610, 42.52197
1181.092, 21.07471
1181.574, 48.26074
1182.056, 89.86035
1182.538, 80.98047
1183.020, 42.20068
1183.502, 24.18994
1183.984, 30.59766
1184.467, 32.38965
1184.949, 17.01514
1185.431, 7.826660
1185.913, 19.92920
1186.395, 34.77930
1186.877, 45.07031
1187.359, 54.38037
1187.841, 69.93018
1188.323, 83.53027
1188.806, 81.04346
1189.288, 64.26416
1189.770, 47.98975
1190.252, 27.22217
1190.734, 25.68750
1191.216, 51.37598
1191.698, 62.68604
1192.180, 46.92188
1192.662, 27.24902
1193.145, 16.85693
1193.627, 22.05371
1194.109, 62.82520
1194.591, 116.6475
1195.073, 111.1743
1195.555, 68.58691
1196.037, 50.17236
1196.519, 54.18457
1197.002, 49.20752
1197.484, 30.14697
1197.966, 21.67871
1198.448, 40.32275
1198.930, 56.05273
1199.412, 40.56934
1199.894, 26.27686
1200.376, 39.18213
1200.859, 58.46924
1201.341, 61.15381
1201.823, 52.48975
1202.305, 45.14111
1202.787, 39.94727
1203.269, 32.87451
1203.751, 21.19971
1204.233, 13.59473
1204.715, 10.92139
1205.198, 13.25879
1205.680, 21.09619
1206.162, 34.73242
1206.644, 57.37061
1207.126, 78.38428
1207.608, 76.82715
1208.090, 60.75146
1208.572, 59.26758
1209.054, 68.07812
1209.537, 75.11768
1210.019, 78.32666
1210.501, 74.35938
1210.983, 63.97168
1211.465, 58.81348
1211.947, 69.54248
1212.429, 69.83691
1212.911, 23.29590
1213.394, 18.63477
1213.876, 13.74268
1214.358, 4.489746
1214.840, 0.3950200
1215.322, 14.86328
1215.804, 6.027344
1216.286, 27.37695
1216.768, 57.01416
1217.250, 90.13330
1217.733, 96.31201
1218.215, 65.33984
1218.697, 42.40283
1219.179, 41.11719
1219.661, 43.08936
1220.143, 35.80713
1220.625, 26.71777
1221.107, 29.60498
1221.589, 36.97412
1222.072, 22.62793
1222.554, 0.9809570
1223.036, 3.804688
1223.518, 12.20557
1224.000, 39.43896
1224.482, 71.12451
1224.964, 87.11475
1225.446, 76.08350
1225.929, 59.37549
1226.411, 36.13623
1226.893, 25.31201
1227.375, 49.71289
1227.857, 75.41064
1228.339, 77.35107
1228.821, 64.19238
1229.303, 44.83984
1229.786, 22.45459
1230.268, 19.71045
1230.750, 41.22705
1231.232, 57.25098
1231.714, 67.45361
1232.196, 69.66064
1232.678, 63.42188
1233.160, 55.68262
1233.642, 49.94385
1234.125, 47.62891
1234.607, 51.81934
1235.089, 57.51074
1235.571, 56.49268
1236.053, 53.07715
1236.535, 55.22314
1237.017, 58.29883
1237.499, 49.46533
1237.981, 33.31738
1238.464, 32.38184
1238.946, 55.04053
1239.428, 70.60986
1239.910, 65.43750
1240.392, 63.48877
1240.874, 70.01074
1241.356, 78.24805
1241.838, 89.78613
1242.321, 92.61377
1242.803, 67.32422
1243.285, 36.53760
1243.767, 25.29053
1244.249, 37.37207
1244.731, 56.52783
1245.213, 77.59229
1245.695, 68.13135
1246.177, 34.24023
1246.660, 20.18799
1247.142, 36.13428
1247.624, 49.70947
1248.106, 40.83838
1248.588, 35.22266
1249.070, 59.96973
1249.552, 83.02295
1250.034, 80.94385
1250.516, 71.19775
1250.999, 69.20947
1251.481, 71.30225
1251.963, 71.41553
1252.445, 68.55322
1252.927, 51.18701
1253.409, 12.04541
1253.891, 7.130371
1254.373, 4.536133
1254.856, 14.41260
1255.338, 48.53467
1255.820, 66.44629
1256.302, 51.50000
1256.784, 27.41064
1257.266, 16.51270
1257.748, 13.80469
1258.230, 14.95068
1258.713, 17.47510
1259.195, 16.83398
1259.677, 16.46680
1260.159, 21.61963
1260.641, 32.00732
1261.123, 48.47900
1261.605, 73.88623
1262.087, 76.69824
1262.569, 26.77539
1263.052, 4.375488
1263.534, 13.38477
1264.016, 36.42969
1264.498, 55.91748
1264.980, 65.76807
1265.462, 60.66895
1265.944, 48.63330
1266.426, 40.85547
1266.908, 38.12012
1267.391, 42.05859
1267.873, 56.37598
1268.355, 57.16748
1268.837, 46.38086
1269.319, 31.75342
1269.801, 17.58252
1270.283, 6.474121
1270.765, 0.1601560
1271.248, 0.0000000E+00
##END=



