##NAMES=Ferriallanite-(La)
##RRUFFID=R141069
##IDEAL CHEMISTRY=CaLa^3+^(Fe^3+^AlFe^2+^)(SiO_4_)(Si_2_O_7_)O(OH)
##LOCALITY=In den Dellen quarries, Niedermendig, Mendig, Laach lake volcanic complex, Eifel, Rhineland-Palatinate, Germany
##OWNER=RRUFF
##SOURCE=Ch. and H. Sch√§fer
##DESCRIPTION=Black tabular crystals embedded in matrix, associated with sanidine, magnetite and cancrinite.
##STATUS=The identification of this mineral has been confirmed only by single crystal X-ray diffraction.
##URL=rruff.info/R141069
159.5383, 0.0000000E+00
160.0205, 0.5793910
160.5026, 3.9196000E-02
160.9847, 0.1712720
161.4668, 0.9784700
161.9489, 3.193413
162.4310, 4.560024
162.9131, 4.532837
163.3953, 4.195042
163.8774, 4.188164
164.3595, 4.470970
164.8416, 4.673851
165.3237, 4.426170
165.8058, 3.993347
166.2880, 3.931553
166.7701, 4.511463
167.2522, 5.266125
167.7343, 5.642902
168.2164, 5.556110
168.6985, 5.355881
169.1807, 4.956726
169.6628, 4.633427
170.1449, 4.661385
170.6270, 5.362679
171.1091, 6.400158
171.5912, 6.899837
172.0734, 6.487309
172.5555, 6.136810
173.0376, 6.385998
173.5197, 6.895184
174.0018, 7.108360
174.4839, 6.570759
174.9661, 5.461502
175.4482, 5.031651
175.9303, 6.097000
176.4124, 7.011913
176.8945, 7.171082
177.3766, 6.863441
177.8588, 6.661957
178.3409, 6.996906
178.8230, 7.863628
179.3051, 8.602184
179.7872, 9.266735
180.2693, 9.795425
180.7515, 10.17573
181.2336, 10.40007
181.7157, 10.48724
182.1978, 10.43847
182.6799, 10.24409
183.1620, 9.875957
183.6441, 8.975235
184.1263, 8.203091
184.6084, 7.954582
185.0905, 8.186825
185.5726, 8.565826
186.0547, 8.854836
186.5368, 9.098076
187.0190, 9.121853
187.5011, 8.650642
187.9832, 8.188786
188.4653, 8.169319
188.9474, 8.611362
189.4296, 9.092632
189.9117, 9.175304
190.3938, 8.869934
190.8759, 8.688145
191.3580, 8.607265
191.8401, 8.706104
192.3223, 9.190289
192.8044, 10.16838
193.2865, 11.08200
193.7686, 11.29094
194.2507, 10.99684
194.7328, 10.69744
195.2150, 10.51123
195.6971, 10.41738
196.1792, 10.36150
196.6613, 10.30423
197.1434, 10.38326
197.6255, 10.88101
198.1077, 11.61772
198.5898, 12.11385
199.0719, 11.84578
199.5540, 11.01409
200.0361, 10.58727
200.5182, 10.67124
201.0004, 10.97489
201.4825, 11.65901
201.9646, 12.48128
202.4467, 12.79588
202.9288, 11.85581
203.4109, 9.775988
203.8930, 8.447735
204.3752, 8.491617
204.8573, 8.661108
205.3394, 8.566761
205.8215, 8.213337
206.3036, 7.917824
206.7857, 7.668629
207.2679, 7.402113
207.7500, 7.332125
208.2321, 7.780340
208.7142, 8.014502
209.1963, 7.492542
209.6784, 6.494261
210.1606, 5.772167
210.6427, 6.059992
211.1248, 7.509380
211.6069, 8.587112
212.0890, 9.220726
212.5711, 9.598682
213.0533, 9.768230
213.5354, 9.760023
214.0175, 9.542625
214.4996, 9.029572
214.9817, 8.149609
215.4638, 7.728769
215.9460, 7.965775
216.4281, 8.561985
216.9102, 9.263807
217.3923, 9.934750
217.8744, 10.51200
218.3565, 10.70533
218.8387, 10.43154
219.3208, 10.38224
219.8029, 10.73827
220.2850, 11.10263
220.7671, 11.17353
221.2492, 10.99033
221.7314, 10.89127
222.2135, 11.23321
222.6956, 12.05675
223.1777, 12.50326
223.6598, 12.30217
224.1419, 11.86601
224.6240, 11.51101
225.1062, 11.28975
225.5883, 11.10541
226.0704, 10.93390
226.5525, 10.79948
227.0346, 10.62896
227.5167, 10.35426
227.9989, 10.15402
228.4810, 10.22586
228.9631, 10.59195
229.4452, 10.96042
229.9273, 11.07563
230.4094, 11.01504
230.8916, 11.02992
231.3737, 11.17660
231.8558, 11.40929
232.3379, 11.79851
232.8200, 12.41206
233.3021, 12.75065
233.7843, 12.11702
234.2664, 11.04361
234.7485, 10.36095
235.2306, 10.43179
235.7127, 10.85321
236.1948, 10.99788
236.6770, 10.73444
237.1591, 10.76114
237.6412, 11.74297
238.1233, 13.12268
238.6054, 14.36462
239.0875, 15.40077
239.5697, 16.09603
240.0518, 16.04802
240.5339, 14.92515
241.0160, 14.10380
241.4981, 14.52783
241.9802, 15.32861
242.4624, 15.62276
242.9445, 15.01951
243.4266, 14.07672
243.9087, 13.85300
244.3908, 14.73757
244.8729, 15.26775
245.3550, 14.79539
245.8372, 13.95090
246.3193, 13.22964
246.8014, 12.79652
247.2835, 12.55433
247.7656, 12.31164
248.2477, 11.99609
248.7299, 11.86363
249.2120, 12.27381
249.6941, 12.68048
250.1762, 12.57423
250.6583, 11.81744
251.1404, 10.81752
251.6226, 10.31160
252.1047, 10.71803
252.5868, 10.66077
253.0689, 9.551529
253.5510, 8.315745
254.0331, 7.703501
254.5153, 7.865655
254.9974, 8.278800
255.4795, 8.068603
255.9616, 6.685104
256.4437, 5.892062
256.9258, 6.186108
257.4080, 6.625248
257.8901, 6.546402
258.3722, 5.860622
258.8543, 4.977622
259.3364, 4.413698
259.8185, 4.136318
260.3007, 4.329096
260.7828, 5.346350
261.2649, 6.443859
261.7470, 7.247123
262.2291, 7.683580
262.7112, 7.816493
263.1934, 7.690929
263.6755, 7.217690
264.1576, 6.788876
264.6397, 6.567195
265.1218, 6.246050
265.6039, 5.615491
266.0861, 4.704476
266.5682, 3.670189
267.0503, 2.603798
267.5324, 1.408987
268.0145, 0.9112970
268.4966, 1.779855
268.9788, 2.601700
269.4609, 2.635309
269.9430, 1.959578
270.4251, 1.092409
270.9072, 0.4468180
271.3893, 3.8991999E-02
271.8715, 0.4740310
272.3536, 1.445441
272.8357, 2.162794
273.3178, 2.118511
273.7999, 1.532507
274.2820, 1.032950
274.7642, 1.059839
275.2463, 1.558597
275.7284, 1.725217
276.2105, 1.580879
276.6926, 1.387459
277.1747, 0.9013850
277.6568, 0.2559470
278.1389, 0.2551600
278.6211, 0.4773170
279.1032, 0.4455570
279.5853, 0.2815080
280.0674, 0.1368740
280.5495, 0.5238820
281.0316, 0.5581450
281.5138, 9.1360003E-02
281.9959, 4.6801999E-02
282.4780, 0.2926750
282.9601, 8.2547002E-02
283.4422, 0.3056700
283.9243, 0.1144060
284.4065, 0.4584660
284.8886, 0.4381350
285.3707, 0.1166410
285.8528, 0.3188150
286.3349, 0.4555620
286.8170, 0.4194460
287.2992, 0.3966730
287.7813, 0.7850470
288.2634, 1.170604
288.7455, 1.726462
289.2276, 2.209070
289.7097, 2.207877
290.1919, 1.607807
290.6740, 0.9211670
291.1561, 1.066722
291.6382, 1.340357
292.1203, 1.888369
292.6024, 2.442289
293.0846, 2.940466
293.5667, 3.296911
294.0488, 3.508405
294.5309, 3.704359
295.0130, 4.071301
295.4951, 4.597634
295.9773, 4.819870
296.4594, 4.305248
296.9415, 3.702252
297.4236, 3.621357
297.9057, 4.076851
298.3878, 4.557089
298.8700, 4.660515
299.3521, 4.460099
299.8342, 4.553226
300.3163, 5.303782
300.7984, 6.105192
301.2805, 6.651215
301.7627, 6.966933
302.2448, 7.174549
302.7269, 7.348931
303.2090, 7.415772
303.6911, 7.191673
304.1732, 6.496098
304.6554, 5.824420
305.1375, 5.399812
305.6196, 5.192470
306.1017, 5.162782
306.5838, 5.347136
307.0659, 5.580238
307.5481, 5.500278
308.0302, 5.000303
308.5123, 4.764824
308.9944, 5.179149
309.4765, 5.886118
309.9586, 6.347246
310.4408, 6.436707
310.9229, 6.333369
311.4050, 6.162738
311.8871, 5.890715
312.3692, 5.831195
312.8513, 6.262468
313.3335, 6.865032
313.8156, 7.268941
314.2977, 7.422452
314.7798, 7.434138
315.2619, 7.335796
315.7440, 7.143316
316.2262, 7.097373
316.7083, 7.505536
317.1904, 7.841871
317.6725, 7.473941
318.1546, 6.454566
318.6367, 5.677466
319.1188, 5.833739
319.6010, 6.730699
320.0831, 7.280140
320.5652, 7.324304
321.0473, 7.208755
321.5294, 7.109054
322.0115, 6.985070
322.4937, 6.702804
322.9758, 6.133426
323.4579, 5.486279
323.9400, 5.317459
324.4221, 5.774876
324.9042, 6.154425
325.3864, 6.175073
325.8685, 5.996580
326.3506, 5.915908
326.8327, 6.032726
327.3148, 6.245279
327.7969, 6.352037
328.2791, 6.341962
328.7612, 6.200662
329.2433, 5.773265
329.7254, 5.320888
330.2075, 5.200207
330.6896, 5.469004
331.1718, 5.736017
331.6539, 5.572472
332.1360, 4.934962
332.6181, 4.431870
333.1002, 4.129804
333.5823, 3.888041
334.0645, 3.590342
334.5466, 3.260957
335.0287, 3.061706
335.5108, 3.129217
335.9929, 3.414916
336.4750, 3.597525
336.9572, 3.616765
337.4393, 3.597473
337.9214, 3.527642
338.4035, 3.396299
338.8856, 3.259066
339.3677, 3.175048
339.8499, 3.092818
340.3320, 2.864202
340.8141, 2.396924
341.2962, 2.095311
341.7783, 2.137763
342.2604, 2.346974
342.7426, 2.424804
343.2247, 2.288324
343.7068, 2.033679
344.1889, 1.725563
344.6710, 1.274061
345.1531, 1.284361
345.6353, 1.282325
346.1174, 1.545399
346.5995, 1.231895
347.0816, 1.679507
347.5637, 2.342705
348.0458, 2.198753
348.5280, 1.177347
349.0101, 1.226468
349.4922, 0.9537610
349.9743, 1.062337
350.4564, 0.9661050
350.9385, 0.9672090
351.4207, 1.109009
351.9028, 0.8990880
352.3849, 1.075387
352.8670, 1.459206
353.3491, 2.076972
353.8312, 2.271029
354.3134, 1.487426
354.7955, 0.8820230
355.2776, 1.233116
355.7597, 0.6157800
356.2418, 1.517242
356.7239, 1.631948
357.2061, 0.8855600
357.6882, 1.568549
358.1703, 1.140452
358.6524, 0.5943240
359.1345, 1.147641
359.6166, 1.458569
360.0987, 1.536584
360.5808, 1.377309
361.0630, 0.9567140
361.5451, 0.5458040
362.0272, 0.8658780
362.5093, 1.219156
362.9914, 0.9990890
363.4735, 0.4391220
363.9557, 0.6234940
364.4378, 0.5688780
364.9199, 0.3435640
365.4020, 0.3053110
365.8841, 1.145804
366.3662, 1.613861
366.8484, 1.111834
367.3305, 0.2779390
367.8126, 0.5584560
368.2947, 0.5138380
368.7768, 0.2680210
369.2589, 0.3398460
369.7411, 0.9001860
370.2232, 1.315519
370.7053, 1.546985
371.1874, 1.651441
371.6695, 1.655533
372.1516, 1.563309
372.6338, 1.348511
373.1159, 0.9275250
373.5980, 0.3192300
374.0801, 5.2340999E-02
374.5622, 7.3016003E-02
375.0443, 2.6172999E-02
375.5265, 0.2128310
376.0086, 0.4486560
376.4907, 0.7070450
376.9728, 1.001567
377.4549, 1.247238
377.9370, 1.199414
378.4192, 0.7051450
378.9013, 0.3589350
379.3834, 0.5350190
379.8655, 0.7951880
380.3476, 0.7250300
380.8297, 0.2479500
381.3119, 0.2157150
381.7940, 0.1305920
382.2761, 0.4879530
382.7582, 0.8311320
383.2403, 0.6900380
383.7224, 0.3576610
384.2046, 7.2580002E-02
384.6867, 0.5323900
385.1688, 0.4307620
385.6509, 0.6399740
386.1330, 0.2321310
386.6151, 4.9460001E-02
387.0973, 0.1914040
387.5794, 0.2118040
388.0615, 0.3763780
388.5436, 1.181522
389.0257, 1.618524
389.5078, 1.447256
389.9900, 1.126187
390.4721, 1.099158
390.9542, 1.315445
391.4363, 1.371369
391.9184, 1.090229
392.4005, 0.6427100
392.8827, 0.2411890
393.3648, 0.1212280
393.8469, 0.3859030
394.3290, 0.6244690
394.8111, 0.7230850
395.2932, 0.3966600
395.7754, 0.4347780
396.2575, 1.304200
396.7396, 1.863476
397.2217, 2.095179
397.7038, 2.068356
398.1859, 1.492328
398.6681, 0.9090670
399.1501, 0.7226800
399.6323, 0.8493960
400.1144, 0.9345380
400.5965, 0.7748200
401.0786, 0.4937590
401.5607, 0.4796880
402.0428, 0.9209810
402.5250, 1.249957
403.0071, 1.292543
403.4892, 1.217635
403.9713, 1.229091
404.4534, 1.361316
404.9355, 1.423341
405.4177, 1.170051
405.8998, 0.4961430
406.3819, 0.2595240
406.8640, 0.7542210
407.3461, 1.303318
407.8282, 1.564026
408.3104, 1.614338
408.7925, 1.718934
409.2746, 2.046917
409.7567, 2.509243
410.2388, 2.711575
410.7209, 2.281901
411.2031, 2.063479
411.6852, 2.307474
412.1673, 2.757784
412.6494, 3.197560
413.1315, 3.512240
413.6136, 3.628385
414.0958, 3.384876
414.5779, 2.663499
415.0600, 2.255000
415.5421, 2.398997
416.0242, 2.547768
416.5063, 2.411136
416.9885, 2.084877
417.4706, 1.856898
417.9527, 1.930836
418.4348, 2.238987
418.9169, 2.548068
419.3990, 2.919689
419.8812, 3.153945
420.3633, 3.057695
420.8454, 2.838588
421.3275, 2.635647
421.8096, 2.481452
422.2917, 2.468159
422.7739, 2.827256
423.2560, 3.509873
423.7381, 3.774292
424.2202, 3.345558
424.7023, 2.794003
425.1844, 2.552453
425.6666, 2.535411
426.1487, 2.468714
426.6308, 2.009221
427.1129, 1.540799
427.5950, 1.826987
428.0771, 2.913358
428.5593, 3.692977
429.0414, 3.300789
429.5235, 2.365371
430.0056, 2.361242
430.4877, 3.795723
430.9698, 5.015160
431.4520, 4.997424
431.9341, 4.200085
432.4162, 3.511314
432.8983, 3.149916
433.3804, 2.998072
433.8625, 2.943001
434.3447, 2.994504
434.8268, 3.098452
435.3089, 3.463386
435.7910, 3.683503
436.2731, 3.285627
436.7552, 2.462325
437.2374, 1.916205
437.7195, 2.075746
438.2016, 2.740112
438.6837, 3.174106
439.1658, 3.220250
439.6479, 3.235114
440.1301, 3.191598
440.6122, 3.175674
441.0943, 3.321423
441.5764, 3.619244
442.0585, 3.887417
442.5406, 3.925251
443.0227, 3.759821
443.5049, 3.407319
443.9870, 2.583162
444.4691, 1.933182
444.9512, 1.615040
445.4333, 1.578566
445.9154, 1.836330
446.3976, 2.422585
446.8797, 3.131529
447.3618, 3.439417
447.8439, 3.077386
448.3260, 2.806999
448.8081, 3.005249
449.2903, 3.213486
449.7724, 3.054281
450.2545, 2.553208
450.7366, 2.134490
451.2187, 2.170838
451.7008, 2.537399
452.1830, 2.886892
452.6651, 3.318341
453.1472, 3.541332
453.6293, 3.148073
454.1114, 2.478646
454.5935, 1.999972
455.0757, 1.789981
455.5578, 1.733723
456.0399, 1.787331
456.5220, 1.927155
457.0041, 2.051864
457.4862, 2.123674
457.9684, 2.187686
458.4505, 2.330016
458.9326, 2.556524
459.4147, 2.729610
459.8968, 2.794621
460.3789, 2.749111
460.8611, 2.578072
461.3432, 2.294939
461.8253, 1.918801
462.3074, 1.403172
462.7895, 0.8741930
463.2716, 0.8418130
463.7538, 1.715945
464.2359, 2.466760
464.7180, 3.063416
465.2001, 3.470510
465.6822, 3.550763
466.1643, 3.328948
466.6465, 3.011169
467.1286, 2.792796
467.6107, 2.664858
468.0928, 2.726154
468.5749, 3.398255
469.0570, 3.836815
469.5392, 3.607294
470.0213, 3.063277
470.5034, 2.780897
470.9855, 3.025492
471.4676, 3.479573
471.9497, 3.553962
472.4319, 3.145594
472.9140, 2.798619
473.3961, 2.492909
473.8782, 2.394598
474.3603, 2.747647
474.8424, 3.416078
475.3246, 3.899383
475.8067, 3.816322
476.2888, 3.382889
476.7709, 3.006513
477.2530, 2.676349
477.7351, 2.547914
478.2173, 2.930850
478.6994, 3.486494
479.1815, 3.643937
479.6636, 3.298613
480.1457, 2.977458
480.6278, 2.911978
481.1100, 3.033130
481.5920, 3.228145
482.0742, 3.521526
482.5563, 3.608488
483.0384, 3.137055
483.5205, 2.150063
484.0026, 1.582081
484.4847, 1.673929
484.9669, 1.893673
485.4490, 2.093005
485.9311, 2.260671
486.4132, 2.385098
486.8953, 2.457549
487.3774, 2.472542
487.8596, 2.432458
488.3417, 2.223584
488.8238, 2.226730
489.3059, 2.689710
489.7880, 3.114824
490.2701, 3.293745
490.7523, 3.249898
491.2344, 3.044096
491.7165, 2.692851
492.1986, 2.329365
492.6807, 2.437681
493.1628, 3.400665
493.6450, 3.881507
494.1271, 3.096805
494.6092, 2.100986
495.0913, 1.486595
495.5734, 1.323742
496.0555, 1.446855
496.5377, 2.000188
497.0198, 2.728922
497.5019, 2.810397
497.9840, 2.068154
498.4661, 1.437892
498.9482, 1.495184
499.4304, 1.977475
499.9125, 2.426032
500.3946, 2.974958
500.8767, 3.108577
501.3588, 2.127736
501.8409, 0.6745330
502.3231, 6.7699999E-03
502.8052, 0.3927940
503.2873, 0.9452870
503.7694, 0.7745920
504.2515, 0.1532120
504.7336, 0.6140390
505.2158, 0.4023560
505.6979, 4.2229998E-03
506.1800, 0.7226560
506.6621, 1.455763
507.1442, 1.637411
507.6263, 1.085776
508.1085, 0.2633960
508.5906, 0.1315320
509.0727, 3.9744999E-02
509.5548, 0.2745030
510.0369, 1.397906
510.5190, 2.152671
511.0012, 1.704012
511.4833, 0.6049110
511.9654, 3.1175001E-02
512.4475, 0.6885210
512.9296, 1.850383
513.4117, 2.124198
513.8939, 1.372039
514.3760, 0.8213720
514.8581, 0.9227400
515.3402, 1.119458
515.8223, 0.8565610
516.3044, 0.2181880
516.7866, 0.2161030
517.2687, 1.9412000E-02
517.7508, 0.4043380
518.2329, 0.5405000
518.7150, 0.3968700
519.1971, 0.1952350
519.6793, 2.6963999E-02
520.1614, 0.1223300
520.6435, 0.2759320
521.1256, 0.1577030
521.6077, 2.9858001E-02
522.0898, 0.1018300
522.5720, 0.2905120
523.0541, 4.7772001E-02
523.5362, 0.3495700
524.0183, 0.6354480
524.5004, 0.6747800
524.9825, 0.4937290
525.4647, 0.2100810
525.9468, 0.2545690
526.4289, 0.1405440
526.9110, 0.2218730
527.3931, 0.1579350
527.8752, 4.1324001E-02
528.3574, 9.1394998E-02
528.8395, 0.1955670
529.3216, 0.2257920
529.8037, 0.1926660
530.2858, 6.5102004E-02
530.7679, 0.2580270
531.2501, 0.5157970
531.7322, 0.5541270
532.2143, 0.4883770
532.6964, 0.4556480
533.1785, 0.4516200
533.6606, 0.3781690
534.1428, 0.1553290
534.6249, 0.1817620
535.1070, 0.2159780
535.5891, 0.9243280
536.0712, 1.292363
536.5533, 0.7899280
537.0355, 1.5264000E-02
537.5176, 0.5966960
537.9997, 0.1395580
538.4818, 0.2051970
538.9639, 0.1851390
539.4460, 0.7321550
539.9282, 0.5358180
540.4103, 7.6824002E-02
540.8924, 1.140165
541.3745, 1.318491
541.8566, 0.5777120
542.3387, 0.1299120
542.8209, 0.3457660
543.3029, 0.4223750
543.7850, 7.1214996E-02
544.2672, 3.1371001E-02
544.7493, 0.3877300
545.2314, 0.6423980
545.7135, 0.6642760
546.1956, 0.2613760
546.6777, 1.5608000E-02
547.1599, 0.6266380
547.6420, 1.099605
548.1241, 1.289244
548.6062, 0.6968070
549.0883, 0.1540540
549.5704, 0.2439050
550.0526, 0.7809970
550.5347, 1.748191
551.0168, 1.480582
551.4989, 0.5180130
551.9810, 6.1140000E-03
552.4631, 0.1843780
552.9453, 0.6165090
553.4274, 0.9411760
553.9095, 1.161676
554.3916, 1.259882
554.8737, 1.192217
555.3558, 1.067842
555.8380, 0.8550640
556.3201, 0.6235130
556.8022, 0.4563310
557.2843, 0.3790630
557.7664, 0.3803740
558.2485, 0.4710370
558.7307, 0.6547140
559.2128, 0.7505130
559.6949, 0.6708030
560.1770, 0.5973910
560.6591, 0.7188680
561.1412, 0.8572660
561.6234, 0.7155000
562.1055, 0.1638850
562.5876, 0.3641410
563.0697, 0.2795780
563.5518, 0.2417470
564.0339, 0.5013170
564.5161, 0.3643360
564.9982, 0.2034570
565.4803, 0.2845610
565.9624, 0.5548580
566.4445, 0.7784700
566.9266, 1.159683
567.4088, 1.278414
567.8909, 0.5480120
568.3730, 0.3235930
568.8551, 0.2386060
569.3372, 0.8732860
569.8193, 2.002094
570.3015, 2.204237
570.7836, 1.531190
571.2657, 1.048228
571.7478, 0.8381780
572.2299, 0.7064910
572.7120, 0.5924540
573.1942, 0.5678750
573.6763, 0.7602580
574.1584, 1.150438
574.6405, 1.477808
575.1226, 1.596069
575.6047, 1.524716
576.0869, 1.320660
576.5690, 0.9486530
577.0511, 0.5531510
577.5332, 7.8980001E-03
578.0153, 0.4018210
578.4974, 0.1399260
578.9796, 1.015672
579.4617, 1.933567
579.9438, 2.031455
580.4259, 1.758992
580.9080, 1.618913
581.3901, 1.639153
581.8723, 1.700187
582.3544, 1.737928
582.8365, 1.752012
583.3186, 1.736213
583.8007, 1.425414
584.2828, 1.454742
584.7650, 2.534343
585.2471, 3.357391
585.7292, 2.691965
586.2113, 0.9400210
586.6934, 0.4532560
587.1755, 0.5185280
587.6577, 0.2158020
588.1398, 0.5829520
588.6219, 0.5387080
589.1040, 0.3367880
589.5861, 0.1622550
590.0682, 0.5356150
590.5504, 0.2020890
591.0325, 0.6867060
591.5146, 1.143373
591.9967, 0.4058790
592.4788, 0.4946790
592.9609, 0.5782640
593.4431, 8.1215002E-02
593.9252, 0.3135160
594.4073, 0.3535630
594.8894, 0.2627540
595.3715, 0.4268410
595.8536, 1.023180
596.3358, 1.279691
596.8179, 0.8481590
597.3000, 0.5019650
597.7821, 0.6388480
598.2642, 1.071460
598.7463, 1.541537
599.2285, 1.948111
599.7106, 2.144389
600.1927, 1.724259
600.6748, 0.7416260
601.1569, 0.5766250
601.6390, 1.756393
602.1212, 2.725503
602.6033, 2.248164
603.0854, 1.094794
603.5675, 0.4656800
604.0496, 0.6419140
604.5317, 0.9799920
605.0139, 1.331784
605.4960, 1.576290
605.9781, 1.453944
606.4602, 0.9806170
606.9423, 0.5219490
607.4244, 0.3634080
607.9066, 0.5013120
608.3887, 0.7504290
608.8708, 1.391278
609.3529, 1.731596
609.8350, 1.553868
610.3171, 1.235073
610.7993, 0.9086260
611.2814, 0.6555650
611.7635, 0.6347500
612.2456, 1.018604
612.7277, 1.576627
613.2098, 1.781951
613.6920, 1.597462
614.1741, 1.529746
614.6562, 1.824713
615.1383, 2.111865
615.6204, 1.919090
616.1025, 1.339897
616.5847, 0.9492710
617.0668, 0.9303230
617.5489, 1.067113
618.0310, 1.287616
618.5131, 1.552192
618.9952, 1.814615
619.4774, 2.056516
619.9595, 2.200851
620.4416, 2.088038
620.9237, 1.715698
621.4058, 1.703190
621.8879, 2.484357
622.3701, 3.043664
622.8522, 3.202405
623.3343, 3.025380
623.8164, 2.330271
624.2985, 1.179326
624.7806, 0.4236330
625.2628, 1.132534
625.7448, 2.712509
626.2269, 3.493888
626.7090, 3.419407
627.1912, 3.207412
627.6733, 3.052508
628.1554, 3.031239
628.6375, 3.378576
629.1196, 4.204587
629.6017, 4.802242
630.0839, 4.969177
630.5660, 4.965801
631.0481, 4.804998
631.5302, 4.636049
632.0123, 4.771923
632.4944, 5.356106
632.9766, 6.192166
633.4587, 7.067356
633.9408, 8.125766
634.4229, 8.435692
634.9050, 7.189834
635.3871, 6.238505
635.8693, 6.569889
636.3514, 7.627216
636.8335, 8.523373
637.3156, 9.044476
637.7977, 9.376117
638.2798, 9.584037
638.7620, 9.710062
639.2441, 9.841900
639.7262, 9.987238
640.2083, 10.06238
640.6904, 9.965279
641.1725, 9.810462
641.6547, 9.988034
642.1368, 10.86014
642.6189, 11.53626
643.1010, 11.87795
643.5831, 12.14618
644.0652, 12.47383
644.5474, 12.85221
645.0295, 13.26832
645.5116, 13.72769
645.9937, 14.23246
646.4758, 14.86929
646.9579, 15.63601
647.4401, 16.23490
647.9222, 16.52593
648.4043, 16.83396
648.8864, 17.43260
649.3685, 18.21034
649.8506, 18.80300
650.3328, 18.98962
650.8149, 19.25946
651.2970, 20.09502
651.7791, 20.97112
652.2612, 21.08407
652.7433, 20.48986
653.2255, 20.07891
653.7076, 20.54616
654.1897, 21.62696
654.6718, 22.34736
655.1539, 22.62462
655.6360, 22.73357
656.1182, 22.34675
656.6003, 22.11334
657.0824, 22.50201
657.5645, 23.35587
658.0466, 24.16076
658.5287, 24.72374
659.0109, 25.16770
659.4930, 25.67488
659.9751, 26.15243
660.4572, 26.28319
660.9393, 25.98955
661.4214, 25.62528
661.9036, 25.50442
662.3857, 25.59890
662.8678, 25.60291
663.3499, 25.29241
663.8320, 25.19469
664.3141, 25.62899
664.7963, 26.08487
665.2784, 25.99450
665.7605, 25.53833
666.2426, 25.44934
666.7247, 26.31095
667.2068, 27.46987
667.6890, 27.66070
668.1711, 26.91420
668.6532, 26.43313
669.1353, 26.56531
669.6174, 26.83811
670.0995, 26.85159
670.5817, 26.60910
671.0638, 26.26564
671.5459, 25.63136
672.0280, 25.13309
672.5101, 25.05748
672.9922, 25.09727
673.4744, 24.91234
673.9565, 24.48051
674.4386, 23.94284
674.9207, 23.37668
675.4028, 22.84812
675.8849, 22.67499
676.3671, 22.99499
676.8492, 22.99708
677.3313, 22.37604
677.8134, 21.63174
678.2955, 20.97107
678.7776, 20.42967
679.2598, 20.25306
679.7419, 20.96282
680.2240, 21.43733
680.7061, 20.76555
681.1882, 19.50471
681.6703, 18.52264
682.1525, 17.97036
682.6346, 17.68564
683.1167, 17.53309
683.5988, 17.46613
684.0809, 17.10896
684.5630, 16.20386
685.0452, 15.57202
685.5273, 15.77131
686.0094, 15.89120
686.4915, 15.14695
686.9736, 13.83036
687.4557, 13.06255
687.9379, 13.57120
688.4200, 14.19491
688.9021, 13.79401
689.3842, 12.74973
689.8663, 11.94074
690.3484, 11.52669
690.8306, 11.36126
691.3127, 11.40876
691.7948, 11.56926
692.2769, 11.31189
692.7590, 10.16565
693.2411, 9.395841
693.7233, 9.233952
694.2054, 9.274166
694.6875, 9.398538
695.1696, 9.485624
695.6517, 9.327825
696.1339, 8.813933
696.6160, 8.166667
697.0981, 7.470563
697.5802, 6.789605
698.0623, 6.473385
698.5444, 6.561081
699.0266, 6.751251
699.5087, 6.879545
699.9908, 6.875937
700.4729, 6.463013
700.9550, 4.973692
701.4371, 4.105748
701.9193, 4.431393
702.4014, 4.872393
702.8835, 4.714470
703.3656, 4.158635
703.8477, 3.779238
704.3298, 3.844700
704.8120, 3.974334
705.2941, 3.568450
705.7762, 2.789468
706.2583, 2.502375
706.7404, 2.856860
707.2225, 3.221900
707.7046, 3.210171
708.1867, 2.979090
708.6688, 2.962626
709.1509, 3.401016
709.6331, 3.433560
710.1152, 2.553727
710.5973, 1.679536
711.0794, 1.408440
711.5615, 1.522856
712.0436, 1.578479
712.5258, 1.412586
713.0079, 1.192285
713.4900, 1.160977
713.9721, 1.258555
714.4542, 1.051798
714.9363, 0.4376410
715.4185, 0.1390610
715.9006, 0.6535510
716.3827, 1.496502
716.8648, 1.856527
717.3469, 1.689720
717.8290, 1.384070
718.3112, 0.6986890
718.7933, 0.1724620
719.2754, 0.1942800
719.7575, 0.4939490
720.2396, 0.6613660
720.7217, 0.5990270
721.2039, 0.5330300
721.6860, 0.8152850
722.1681, 1.244058
722.6502, 0.8402810
723.1323, 0.2798890
723.6144, 0.6503630
724.0966, 0.4916540
724.5787, 8.0104001E-02
725.0608, 0.3054720
725.5429, 0.1935740
726.0250, 0.1296040
726.5071, 0.1978970
726.9893, 0.2415140
727.4714, 0.1747920
727.9535, 7.1755998E-02
728.4356, 5.0789998E-03
728.9177, 3.2726999E-02
729.3998, 1.9910000E-02
729.8820, 0.1960790
730.3641, 0.3442260
730.8462, 0.1941490
731.3283, 0.1297710
731.8104, 0.1580480
732.2925, 0.3372910
732.7747, 0.3091330
733.2568, 0.2719330
733.7389, 0.1245270
734.2210, 3.1957999E-02
734.7031, 0.3673840
735.1852, 1.097693
735.6674, 0.6993830
736.1495, 1.0335000E-02
736.6316, 0.3114300
737.1137, 0.3026550
737.5958, 0.3271050
738.0779, 0.2513830
738.5601, 4.7786001E-02
739.0422, 0.3852120
739.5243, 0.5308040
740.0064, 0.8271500
740.4885, 0.2776690
740.9706, 0.2696940
741.4528, 0.3468060
741.9349, 0.1221490
742.4170, 8.0103002E-02
742.8991, 0.3384670
743.3812, 0.3177950
743.8633, 0.4404120
744.3455, 7.5874001E-02
744.8276, 0.1389210
745.3097, 0.2226860
745.7918, 0.1854010
746.2739, 0.2147850
746.7560, 0.1130080
747.2382, 0.1193200
747.7203, 0.1789060
748.2024, 6.4640000E-02
748.6845, 0.2317840
749.1666, 0.3155260
749.6487, 3.1690001E-02
750.1309, 0.4271640
750.6130, 0.3971020
751.0951, 8.8621996E-02
751.5772, 0.4525160
752.0593, 0.5637850
752.5414, 0.4351440
753.0236, 0.2204050
753.5057, 9.5105998E-02
753.9878, 0.3969670
754.4699, 0.3144950
754.9520, 0.1089390
755.4341, 0.5879660
755.9163, 0.2820260
756.3984, 0.5485530
756.8805, 0.3371880
757.3626, 0.1920530
757.8447, 0.2037480
758.3268, 0.2319780
758.8090, 0.1655350
759.2911, 5.4830998E-02
759.7732, 6.9565997E-02
760.2553, 0.3243250
760.7374, 0.5022390
761.2195, 0.6076720
761.7017, 0.6419680
762.1838, 0.5858940
762.6659, 0.4688770
763.1480, 0.3144030
763.6301, 0.1267800
764.1122, 1.7274000E-02
764.5944, 3.5395000E-02
765.0765, 1.2434000E-02
765.5586, 3.8316999E-02
766.0407, 4.0364001E-02
766.5228, 6.8219998E-03
767.0049, 0.1274370
767.4871, 0.1180220
767.9692, 0.3556290
768.4513, 1.332466
768.9334, 1.788487
769.4155, 1.240777
769.8976, 0.9594610
770.3798, 1.547745
770.8619, 2.235902
771.3440, 2.381466
771.8261, 2.049526
772.3082, 1.754877
772.7903, 1.681136
773.2725, 1.691403
773.7546, 1.809385
774.2367, 1.899583
774.7188, 1.630386
775.2009, 1.049520
775.6830, 0.6470560
776.1652, 0.7524360
776.6473, 1.207235
777.1294, 1.656863
777.6115, 2.104427
778.0936, 2.562531
778.5757, 3.165676
779.0579, 3.527959
779.5400, 3.216987
780.0221, 2.625674
780.5042, 2.466012
780.9863, 2.849558
781.4684, 3.002933
781.9506, 2.446887
782.4327, 1.980963
782.9148, 2.250675
783.3969, 2.883152
783.8790, 3.210697
784.3611, 3.071608
784.8433, 2.802892
785.3254, 2.726408
785.8075, 2.751339
786.2896, 2.453483
786.7717, 1.820414
787.2538, 1.918142
787.7360, 3.293209
788.2181, 4.587708
788.7002, 4.384228
789.1823, 2.914519
789.6644, 2.240314
790.1465, 3.066884
790.6286, 3.606630
791.1107, 3.454025
791.5928, 3.279255
792.0750, 3.555614
792.5571, 4.053512
793.0392, 4.372297
793.5213, 4.447677
794.0034, 4.254285
794.4855, 3.349636
794.9677, 2.273596
795.4498, 2.195015
795.9319, 3.047933
796.4140, 3.840911
796.8961, 4.108988
797.3782, 4.152383
797.8604, 4.394865
798.3425, 4.907190
798.8246, 5.123880
799.3067, 4.863358
799.7888, 4.609557
800.2709, 4.410807
800.7531, 4.301757
801.2352, 4.406843
801.7173, 4.683654
802.1994, 4.914948
802.6815, 4.944349
803.1636, 4.879758
803.6458, 4.671741
804.1279, 4.527773
804.6100, 4.850756
805.0921, 5.496661
805.5742, 5.841193
806.0563, 5.536072
806.5385, 5.059633
807.0206, 5.368186
807.5027, 6.364662
807.9848, 6.477289
808.4669, 5.453673
808.9490, 4.724242
809.4312, 5.016484
809.9133, 5.735363
810.3954, 5.977174
810.8775, 5.634664
811.3596, 5.531492
811.8417, 5.869956
812.3239, 6.120426
812.8060, 6.178264
813.2881, 6.102745
813.7702, 5.946401
814.2523, 5.697565
814.7344, 5.417314
815.2166, 5.067655
815.6987, 4.844796
816.1808, 5.049016
816.6629, 5.513687
817.1450, 5.886151
817.6271, 6.123873
818.1093, 6.295498
818.5914, 6.431755
819.0735, 6.572173
819.5556, 6.818866
820.0377, 7.213953
820.5198, 7.433931
821.0020, 7.403139
821.4841, 7.340171
821.9662, 7.367253
822.4483, 7.369924
822.9304, 7.152426
823.4125, 6.727772
823.8947, 6.518172
824.3768, 6.704299
824.8589, 7.003944
825.3410, 7.376715
825.8231, 7.756860
826.3052, 8.115085
826.7874, 8.411741
827.2695, 8.549558
827.7516, 8.465443
828.2337, 8.241609
828.7158, 7.860044
829.1979, 7.425279
829.6801, 7.508852
830.1622, 8.163618
830.6443, 8.564768
831.1264, 8.235854
831.6085, 7.637186
832.0906, 7.548641
832.5728, 8.067533
833.0549, 8.382641
833.5370, 8.317595
834.0191, 8.296706
834.5012, 8.438675
834.9833, 8.639075
835.4655, 8.837664
835.9476, 9.021677
836.4297, 9.166632
836.9118, 9.281672
837.3939, 9.332335
837.8760, 9.267388
838.3582, 9.150390
838.8403, 8.944122
839.3224, 8.753092
839.8045, 8.903501
840.2866, 9.551402
840.7687, 10.36004
841.2509, 10.98239
841.7330, 11.38103
842.2151, 11.16902
842.6972, 10.28759
843.1793, 9.737432
843.6614, 9.963565
844.1436, 10.40983
844.6257, 10.39160
845.1078, 9.926702
845.5899, 9.846413
846.0720, 10.66004
846.5541, 11.10700
847.0363, 10.73929
847.5184, 10.30310
848.0005, 10.20665
848.4826, 10.41373
848.9647, 10.83554
849.4468, 11.53874
849.9290, 12.05363
850.4111, 12.04156
850.8932, 11.78877
851.3753, 11.49335
851.8574, 11.21769
852.3395, 11.05005
852.8217, 11.01674
853.3038, 11.07988
853.7859, 11.25226
854.2680, 11.46992
854.7501, 11.40236
855.2322, 11.02810
855.7144, 10.80988
856.1965, 10.89152
856.6786, 10.93959
857.1607, 10.66274
857.6428, 10.20304
858.1249, 10.00234
858.6071, 10.19403
859.0892, 10.33986
859.5713, 10.48330
860.0534, 10.50666
860.5355, 10.23889
861.0176, 9.930749
861.4998, 9.892975
861.9819, 10.11965
862.4640, 10.36296
862.9461, 10.64833
863.4282, 10.79887
863.9103, 10.39512
864.3925, 9.894117
864.8746, 9.964747
865.3567, 10.55701
865.8388, 11.05816
866.3209, 11.11205
866.8030, 10.91983
867.2852, 10.73778
867.7673, 10.51390
868.2494, 9.800134
868.7315, 8.576050
869.2136, 8.085035
869.6957, 8.941100
870.1779, 10.20931
870.6600, 10.62055
871.1421, 10.17638
871.6242, 9.728426
872.1063, 9.161172
872.5884, 8.796826
873.0705, 8.820241
873.5526, 8.953522
874.0347, 9.099591
874.5168, 9.208277
874.9990, 9.204650
875.4811, 9.022134
875.9632, 8.911293
876.4453, 9.105700
876.9274, 9.262392
877.4095, 9.022902
877.8917, 8.600958
878.3738, 8.415874
878.8559, 8.529072
879.3380, 8.635296
879.8201, 8.478759
880.3022, 8.188894
880.7844, 7.994184
881.2665, 7.862248
881.7486, 7.657436
882.2307, 7.370135
882.7128, 7.181002
883.1949, 7.267583
883.6771, 7.445973
884.1592, 7.296331
884.6413, 6.783020
885.1234, 6.438345
885.6055, 6.355839
886.0876, 6.161114
886.5698, 5.576376
887.0519, 5.016088
887.5340, 4.992981
888.0161, 5.465494
888.4982, 5.748591
888.9803, 5.718170
889.4625, 5.649439
889.9446, 5.623323
890.4267, 5.538297
890.9088, 5.326171
891.3909, 5.003064
891.8730, 4.562896
892.3552, 3.958125
892.8373, 3.584850
893.3194, 4.014172
893.8015, 4.553124
894.2836, 4.371096
894.7657, 3.730714
895.2479, 3.219332
895.7300, 2.953677
896.2121, 2.803441
896.6942, 2.662301
897.1763, 2.585856
897.6584, 2.710397
898.1406, 2.972135
898.6227, 2.869838
899.1048, 2.335900
899.5869, 1.968254
900.0690, 2.080593
900.5511, 2.397598
901.0333, 2.513250
901.5154, 2.387274
901.9975, 2.162447
902.4796, 1.778384
902.9617, 1.527832
903.4438, 1.690528
903.9260, 1.780660
904.4081, 1.302670
904.8902, 0.5198890
905.3723, 0.1457970
905.8544, 0.4104930
906.3365, 0.6486000
906.8187, 0.6059890
907.3008, 0.6023610
907.7829, 0.9546230
908.2650, 1.354109
908.7471, 1.368990
909.2292, 0.9815350
909.7114, 0.5982970
910.1935, 0.4995570
910.6756, 0.4392330
911.1577, 5.4035001E-02
911.6398, 0.4250570
912.1219, 0.5131760
912.6041, 0.2369580
913.0862, 4.4484999E-02
913.5683, 0.1609450
914.0504, 0.1464250
914.5325, 1.4923000E-02
915.0146, 0.2046880
915.4968, 0.3788830
915.9789, 0.5103800
916.4610, 0.4739010
916.9431, 0.1829130
917.4252, 4.1350001E-03
917.9073, 0.3283410
918.3895, 0.5010160
918.8716, 0.4960410
919.3537, 0.2336560
919.8358, 0.6759800
920.3179, 1.3386000E-02
920.8000, 0.5204070
921.2822, 0.2041890
921.7643, 0.6143060
922.2464, 0.1675030
922.7285, 0.1167920
923.2106, 0.5610070
923.6927, 5.4756999E-02
924.1749, 0.5266000
924.6570, 0.4413510
925.1391, 0.2694740
925.6212, 0.2136340
926.1033, 0.7070840
926.5854, 1.003218
927.0676, 0.3806280
927.5497, 0.3547530
928.0318, 0.1289470
928.5139, 7.4720003E-02
928.9960, 0.1166510
929.4781, 0.3615330
929.9603, 3.8033001E-02
930.4424, 0.1095780
930.9245, 2.0617999E-02
931.4066, 0.2543340
931.8887, 0.3358430
932.3708, 0.3417290
932.8530, 5.8665000E-02
933.3351, 4.3313999E-02
933.8172, 0.4001490
934.2993, 0.6398960
934.7814, 0.4510700
935.2635, 0.1244440
935.7457, 2.2750000E-02
936.2278, 2.0950999E-02
936.7099, 0.1297370
937.1920, 9.0446003E-02
937.6741, 0.1231490
938.1563, 0.2706370
938.6384, 0.3037580
939.1205, 0.2036980
939.6026, 3.7987001E-02
940.0847, 0.1492200
940.5668, 1.069629
941.0490, 1.341001
941.5311, 0.2801750
942.0132, 0.1417140
942.4953, 6.0729001E-02
942.9774, 6.2187001E-02
943.4595, 6.5810002E-02
943.9417, 2.5908001E-02
944.4238, 0.1142510
944.9059, 0.1778910
945.3880, 0.2831320
945.8701, 5.5194002E-02
946.3522, 0.4442250
946.8344, 0.6735090
947.3165, 0.7140940
947.7986, 0.6981520
948.2807, 0.6397650
948.7628, 0.4355700
949.2449, 5.5567998E-02
949.7271, 0.3425000
950.2092, 4.3921001E-02
950.6913, 0.6393640
951.1734, 0.5836780
951.6555, 2.6448000E-02
952.1376, 0.2560990
952.6198, 6.6100003E-04
953.1019, 0.3260220
953.5840, 0.4737590
954.0661, 0.3883510
954.5482, 2.4343999E-02
955.0303, 0.7379450
955.5124, 0.8793440
955.9945, 0.3357560
956.4766, 0.1123950
956.9587, 6.2445000E-02
957.4409, 0.2611470
957.9230, 0.5214830
958.4051, 0.7139570
958.8872, 0.3822710
959.3693, 0.7053780
959.8514, 1.414121
960.3336, 1.447430
960.8157, 1.280352
961.2978, 1.251637
961.7799, 1.291907
962.2620, 1.198938
962.7441, 0.9166790
963.2263, 0.6751550
963.7084, 0.4627850
964.1905, 0.3098960
964.6726, 0.1285880
965.1547, 8.5605003E-02
965.6368, 0.4382320
966.1190, 1.078649
966.6011, 1.504385
967.0832, 1.546266
967.5653, 1.592903
968.0474, 1.860528
968.5295, 2.009724
969.0117, 1.711788
969.4938, 1.235365
969.9759, 0.9311370
970.4580, 0.8809160
970.9401, 1.061593
971.4222, 1.692350
971.9044, 2.165582
972.3865, 1.949018
972.8686, 1.491384
973.3507, 1.231228
973.8328, 1.152258
974.3149, 1.156644
974.7971, 1.207586
975.2792, 1.156141
975.7613, 0.7376700
976.2434, 0.2827300
976.7255, 0.3061630
977.2076, 0.6555370
977.6898, 0.8401600
978.1719, 0.8821140
978.6540, 1.278615
979.1361, 2.307548
979.6182, 3.189143
980.1003, 2.838585
980.5825, 1.706975
981.0646, 1.358569
981.5467, 1.682856
982.0288, 1.793312
982.5109, 1.557154
982.9930, 1.444613
983.4752, 1.783578
983.9573, 2.167225
984.4394, 1.786118
984.9215, 0.6890110
985.4036, 0.3497790
985.8857, 0.9126090
986.3679, 1.365033
986.8500, 1.408205
987.3321, 1.301160
987.8142, 1.255287
988.2963, 1.265051
988.7784, 1.361818
989.2606, 1.626803
989.7427, 1.716300
990.2248, 1.595919
990.7069, 1.283830
991.1890, 0.6196420
991.6711, 3.0421000E-02
992.1533, 0.4119090
992.6354, 0.3681700
993.1175, 0.1481540
993.5996, 1.106133
994.0817, 1.977956
994.5638, 2.334213
995.0460, 2.428495
995.5281, 2.270418
996.0102, 1.969474
996.4923, 1.498586
996.9744, 0.9519940
997.4565, 0.8900310
997.9387, 1.935260
998.4208, 2.642405
998.9029, 2.348400
999.3850, 1.920591
999.8671, 1.939923
1000.349, 2.138819
1000.831, 2.041956
1001.313, 1.606271
1001.796, 1.136376
1002.278, 0.5489270
1002.760, 0.2650660
1003.242, 0.8703190
1003.724, 1.585874
1004.206, 1.492442
1004.688, 0.9692990
1005.170, 1.024952
1005.653, 1.830225
1006.135, 2.414019
1006.617, 1.985142
1007.099, 1.292103
1007.581, 0.9651170
1008.063, 0.9486940
1008.545, 1.338653
1009.027, 1.905781
1009.509, 2.091254
1009.992, 1.748825
1010.474, 1.274137
1010.956, 0.8585510
1011.438, 0.6848890
1011.920, 1.349694
1012.402, 2.390671
1012.884, 2.741926
1013.366, 2.412568
1013.849, 2.023189
1014.331, 1.818603
1014.813, 1.682585
1015.295, 1.422792
1015.777, 1.214326
1016.259, 1.783167
1016.741, 2.885810
1017.223, 3.077797
1017.705, 2.189468
1018.188, 1.371189
1018.670, 1.217313
1019.152, 1.353636
1019.634, 1.259440
1020.116, 1.010162
1020.598, 0.9937900
1021.080, 1.201411
1021.562, 1.414586
1022.044, 1.593623
1022.527, 1.786291
1023.009, 2.043453
1023.491, 2.317494
1023.973, 2.480668
1024.455, 2.529065
1024.937, 2.446996
1025.419, 2.205711
1025.901, 2.080467
1026.384, 2.119362
1026.866, 2.304613
1027.348, 2.671093
1027.830, 3.078508
1028.312, 3.272813
1028.794, 3.253888
1029.276, 3.063922
1029.758, 2.636098
1030.240, 2.214415
1030.723, 1.677523
1031.205, 1.584042
1031.687, 2.539933
1032.169, 3.918130
1032.651, 4.406456
1033.133, 3.876451
1033.615, 3.498410
1034.097, 3.146706
1034.579, 3.274307
1035.062, 4.509793
1035.544, 5.398847
1036.026, 4.656266
1036.508, 3.107445
1036.990, 2.527525
1037.472, 3.133719
1037.954, 3.478259
1038.436, 3.453287
1038.919, 3.365974
1039.401, 3.085457
1039.883, 2.942453
1040.365, 3.448030
1040.847, 4.198047
1041.329, 4.273562
1041.811, 3.504753
1042.293, 2.971122
1042.776, 2.735631
1043.258, 2.669822
1043.740, 2.924508
1044.222, 3.175185
1044.704, 3.147734
1045.186, 2.989000
1045.668, 3.031274
1046.150, 3.351318
1046.632, 3.466430
1047.115, 3.304689
1047.597, 2.960949
1048.079, 2.076226
1048.561, 1.413587
1049.043, 1.638691
1049.525, 2.348500
1050.007, 2.692576
1050.489, 2.565860
1050.971, 2.610715
1051.454, 3.216496
1051.936, 3.587869
1052.418, 3.333285
1052.900, 2.920180
1053.382, 2.583321
1053.864, 2.373360
1054.346, 2.389629
1054.828, 2.653441
1055.311, 2.807857
1055.793, 2.660648
1056.275, 2.519686
1056.757, 2.609918
1057.239, 2.640137
1057.721, 2.185301
1058.203, 1.603924
1058.685, 1.595181
1059.167, 2.248188
1059.650, 2.677494
1060.132, 2.391350
1060.614, 2.107157
1061.096, 2.187537
1061.578, 2.303644
1062.060, 2.075991
1062.542, 1.721972
1063.024, 1.690557
1063.506, 2.015184
1063.989, 2.167179
1064.471, 1.828116
1064.953, 1.467553
1065.435, 1.251548
1065.917, 1.204140
1066.399, 1.351325
1066.881, 1.535109
1067.363, 1.488690
1067.846, 1.204283
1068.328, 1.126511
1068.810, 1.545317
1069.292, 1.968103
1069.774, 2.227445
1070.256, 2.356885
1070.738, 2.403442
1071.220, 2.326574
1071.703, 1.918801
1072.185, 1.273082
1072.667, 1.014137
1073.149, 1.594221
1073.631, 2.081260
1074.113, 2.025640
1074.595, 1.769117
1075.077, 1.459192
1075.559, 1.171334
1076.042, 0.8873460
1076.524, 0.6451470
1077.006, 0.5923720
1077.488, 0.8213090
1077.970, 1.148585
1078.452, 1.667020
1078.934, 2.032118
1079.416, 1.924190
1079.898, 1.624480
1080.380, 1.500569
1080.863, 1.506592
1081.345, 1.308971
1081.827, 0.7457640
1082.309, 0.2856620
1082.791, 0.1608110
1083.273, 0.1706640
1083.755, 0.2542630
1084.237, 0.3692270
1084.720, 0.4988850
1085.202, 0.6455170
1085.684, 0.8811770
1086.166, 1.290994
1086.648, 1.417376
1087.130, 0.7259670
1087.612, 0.1137040
1088.094, 0.1043660
1088.577, 0.3322920
1089.059, 0.4965000
1089.541, 0.5994880
1090.023, 0.7295930
1090.505, 0.9065380
1090.987, 1.052304
1091.469, 1.084463
1091.951, 1.156670
1092.433, 1.535163
1092.916, 1.780725
1093.398, 1.447567
1093.880, 0.8354190
1094.362, 0.5080580
1094.844, 0.5223560
1095.326, 0.3912140
1095.808, 0.3655630
1096.290, 0.2298750
1096.772, 0.4156240
1097.255, 0.1550950
1097.737, 0.5784480
1098.219, 0.8499260
1098.701, 1.043022
1099.183, 1.168869
1099.665, 1.235161
1100.147, 1.244648
1100.629, 1.190165
1101.112, 0.9850250
1101.594, 0.8122650
1102.076, 0.7776590
1102.558, 0.8138260
1103.040, 0.8711520
1103.522, 0.9077510
1104.004, 0.9749880
1104.486, 1.194759
1104.969, 1.083068
1105.451, 3.1096000E-02
1105.933, 0.1323520
1106.415, 5.5249002E-02
1106.897, 0.7963930
1107.379, 0.7570590
1107.861, 0.1689800
1108.343, 1.3204000E-02
1108.825, 0.3878240
1109.307, 0.5789630
1109.790, 0.2180810
1110.272, 2.5459999E-02
1110.754, 0.3818520
1111.236, 0.7015120
1111.718, 0.5481350
1112.200, 0.1651320
1112.682, 3.1546000E-02
1113.164, 2.2667000E-02
1113.647, 7.1161002E-02
1114.129, 0.3471200
1114.611, 0.3408390
1115.093, 4.0043000E-02
1115.575, 0.3496940
1116.057, 0.6968210
1116.539, 0.9259580
1117.021, 0.9366590
1117.504, 0.7478680
1117.986, 0.4755490
1118.468, 2.5861001E-02
1118.950, 0.2543310
1119.432, 8.7095998E-02
1119.914, 0.1133430
1120.396, 0.2128440
1120.878, 0.3731010
1121.360, 0.8982700
1121.843, 1.464032
1122.325, 0.9881100
1122.807, 0.2199470
1123.289, 1.069501
1123.771, 0.6509230
1124.253, 0.1217680
1124.735, 0.2894950
1125.217, 7.1710996E-02
1125.699, 0.3342870
1126.182, 0.5164830
1126.664, 0.6461880
1127.146, 0.7201410
1127.628, 0.6407980
1128.110, 0.3746120
1128.592, 0.2783710
1129.074, 0.4206950
1129.556, 0.6191190
1130.039, 0.8255300
1130.521, 0.7955990
1131.003, 0.1435890
1131.485, 0.2744230
1131.967, 0.2765660
1132.449, 7.8413002E-02
1132.931, 0.5110190
1133.413, 0.4254910
1133.896, 0.2405930
1134.378, 4.3954000E-02
1134.860, 0.1451340
1135.342, 0.1275360
1135.824, 3.3927999E-02
1136.306, 4.7692001E-02
1136.788, 0.6225130
1137.270, 0.7453520
1137.752, 0.4359920
1138.234, 0.3286260
1138.717, 0.5127220
1139.199, 0.6545710
1139.681, 0.5827490
1140.163, 0.5647130
1140.645, 1.157422
1141.127, 1.760732
1141.609, 0.8662290
1142.091, 0.2958420
1142.574, 0.6294750
1143.056, 0.1269770
1143.538, 0.3523680
1144.020, 0.4600050
1144.502, 0.3698970
1144.984, 0.2636170
1145.466, 0.2049630
1145.948, 0.2561460
1146.431, 0.3973570
1146.913, 0.6696600
1147.395, 0.9782310
1147.877, 1.220849
1148.359, 1.332639
1148.841, 1.112668
1149.323, 0.3909530
1149.805, 0.1369130
1150.287, 9.1747999E-02
1150.770, 0.5297110
1151.252, 1.001300
1151.734, 1.295331
1152.216, 1.013315
1152.698, 0.4289190
1153.180, 0.2408640
1153.662, 0.5706160
1154.144, 0.7290200
1154.626, 0.1737190
1155.109, 0.1283730
1155.591, 0.3895650
1156.073, 0.9225520
1156.555, 0.9603430
1157.037, 0.7267920
1157.519, 0.4612480
1158.001, 0.2126320
1158.483, 0.1536250
1158.966, 0.4913520
1159.448, 0.6069240
1159.930, 8.0215000E-02
1160.412, 0.1421540
1160.894, 0.5242540
1161.376, 1.199035
1161.858, 1.175007
1162.340, 0.7319780
1162.822, 0.4391520
1163.305, 0.2785100
1163.787, 0.4390550
1164.269, 1.179245
1164.751, 1.612251
1165.233, 1.579426
1165.715, 1.309615
1166.197, 0.8163210
1166.679, 0.3953960
1167.161, 0.4386750
1167.644, 0.7899800
1168.126, 0.7326680
1168.608, 0.2410820
1169.090, 0.2889140
1169.572, 0.9377960
1170.054, 1.250655
1170.536, 0.9652340
1171.018, 0.5761800
1171.500, 0.4094590
1171.983, 0.3810370
1172.465, 0.4303790
1172.947, 0.5674540
1173.429, 0.7958980
1173.911, 1.057112
1174.393, 1.094679
1174.875, 0.9162070
1175.357, 0.8050220
1175.840, 0.8897280
1176.322, 1.048340
1176.804, 1.214727
1177.286, 1.323311
1177.768, 1.138833
1178.250, 0.9024920
1178.732, 1.035950
1179.214, 1.400229
1179.697, 1.715574
1180.179, 1.855483
1180.661, 1.617990
1181.143, 0.8731630
1181.625, 0.2739830
1182.107, 7.1786001E-02
1182.589, 0.2380200
1183.071, 1.185421
1183.553, 2.140431
1184.036, 2.333079
1184.518, 2.009869
1185.000, 1.706607
1185.482, 1.501844
1185.964, 1.265617
1186.446, 0.7084960
1186.928, 0.5375340
1187.410, 1.321264
1187.892, 1.955008
1188.375, 1.830241
1188.857, 1.468777
1189.339, 1.391866
1189.821, 1.452343
1190.303, 1.067734
1190.785, 8.1569999E-03
1191.267, 0.1751920
1191.749, 0.6783430
1192.232, 1.451375
1192.714, 1.905358
1193.196, 1.920521
1193.678, 1.306601
1194.160, 0.6394870
1194.642, 0.6417520
1195.124, 1.108077
1195.606, 1.236446
1196.089, 1.044561
1196.571, 1.009280
1197.053, 1.145010
1197.535, 1.294148
1198.017, 1.379708
1198.499, 1.414866
1198.981, 1.401070
1199.463, 1.278699
1199.945, 0.8440090
1200.427, 0.2967840
1200.910, 1.0691000E-02
1201.392, 7.6149002E-02
1201.874, 0.2595230
1202.356, 0.8275850
1202.838, 1.097466
1203.320, 0.9008090
1203.802, 0.7526810
1204.284, 0.9719310
1204.767, 1.212569
1205.249, 1.168693
1205.731, 1.064519
1206.213, 1.099209
1206.695, 1.215579
1207.177, 1.428113
1207.659, 1.614175
1208.141, 1.525882
1208.624, 1.074243
1209.106, 0.7008310
1209.588, 0.5005750
1210.070, 0.4018170
1210.552, 0.4043220
1211.034, 0.4924040
1211.516, 0.7399380
1211.998, 0.9901420
1212.480, 1.109620
1212.963, 1.075561
1213.445, 0.8329580
1213.927, 0.2371080
1214.409, 0.1375640
1214.891, 0.7220100
1215.373, 1.018114
1215.855, 0.7889870
1216.337, 0.5286250
1216.819, 0.4970610
1217.302, 0.5930930
1217.784, 0.6776900
1218.266, 0.7489360
1218.748, 0.8332660
1219.230, 0.9274790
1219.712, 1.201412
1220.194, 1.564345
1220.676, 1.385876
1221.159, 0.6475740
1221.641, 0.2429740
1222.123, 0.6673800
1222.605, 1.226903
1223.087, 1.209628
1223.569, 0.9765400
1224.051, 0.9078460
1224.533, 0.9005520
1225.016, 0.7513880
1225.498, 0.5696050
1225.980, 0.6064570
1226.462, 0.8685360
1226.944, 1.161855
1227.426, 1.528494
1227.908, 1.608053
1228.390, 0.7822530
1228.872, 0.2444530
1229.354, 0.8899840
1229.837, 1.633798
1230.319, 1.617866
1230.801, 1.103977
1231.283, 0.4614830
1231.765, 0.1295050
1232.247, 7.7899002E-02
1232.729, 0.7143620
1233.211, 1.200554
1233.694, 0.8460110
1234.176, 0.6714490
1234.658, 1.060994
1235.140, 1.293013
1235.622, 0.8089440
1236.104, 1.5120000E-02
1236.586, 5.7355002E-02
1237.068, 0.1891680
1237.551, 0.1125600
1238.033, 0.7556160
1238.515, 1.141139
1238.997, 1.088492
1239.479, 1.013706
1239.961, 1.037366
1240.443, 0.9471970
1240.925, 0.5353040
1241.407, 0.3071540
1241.890, 1.166694
1242.372, 2.007525
1242.854, 1.472373
1243.336, 0.4746210
1243.818, 0.1825950
1244.300, 0.4125180
1244.782, 0.5211640
1245.264, 0.4205730
1245.746, 0.5077130
1246.229, 1.118817
1246.711, 1.491731
1247.193, 1.447715
1247.675, 1.200626
1248.157, 0.5850110
1248.639, 0.1035180
1249.121, 0.1925320
1249.603, 0.5357740
1250.085, 0.5357630
1250.568, 0.2390300
1251.050, 0.4022230
1251.532, 1.105686
1252.014, 1.405454
1252.496, 1.212509
1252.978, 1.175709
1253.460, 1.481500
1253.942, 1.485244
1254.425, 0.6836180
1254.907, 0.1214340
1255.389, 0.4914060
1255.871, 1.644350
1256.353, 1.571728
1256.835, 0.8588990
1257.317, 0.4801150
1257.799, 0.4809280
1258.281, 0.7960360
1258.764, 1.199324
1259.246, 1.171870
1259.728, 7.6866001E-02
1260.210, 0.2720160
1260.692, 0.7819930
1261.174, 1.685672
1261.656, 0.9620620
1262.138, 1.3968000E-02
1262.620, 6.1646000E-02
1263.103, 0.1124130
1263.585, 0.3980040
1264.067, 0.6566270
1264.549, 0.7503330
1265.031, 0.5658620
1265.513, 0.7175130
1265.995, 1.362561
1266.477, 1.668137
1266.960, 1.406408
1267.442, 0.9091110
1267.924, 0.3033200
1268.406, 1.3521000E-02
1268.888, 0.6686000
1269.370, 1.743240
1269.852, 2.020812
1270.334, 1.700559
1270.817, 1.515146
1271.299, 1.404232
1271.781, 1.324265
1272.263, 1.266088
1272.745, 0.9869010
1273.227, 0.8494900
1273.709, 0.6491310
1274.191, 0.1187780
1274.673, 6.7832999E-02
1275.156, 0.5938730
1275.638, 1.218469
1276.120, 1.117875
1276.602, 0.7074260
1277.084, 0.4117600
1277.566, 0.3236370
1278.048, 0.3529490
1278.530, 0.5055590
1279.012, 0.6995500
1279.495, 0.9838230
1279.977, 0.9903650
1280.459, 0.9455790
1280.941, 0.7218990
1281.423, 0.2697830
1281.905, 1.0611000E-02
1282.387, 3.4058001E-02
1282.869, 0.3620610
1283.352, 0.7180890
1283.834, 0.7123570
1284.316, 0.4958660
1284.798, 0.0000000E+00
##END=



