##NAMES=Hercynite
##RRUFFID=R170038
##IDEAL CHEMISTRY=Fe^2+^Al_2_O_4_
##LOCALITY=LePrese, Veltlin, Switzerland
##OWNER=UAMM
##SOURCE=Rock Currier
##DESCRIPTION=Dark-green grains
##STATUS=The identification of this mineral is confirmed by single-crystal X-ray diffraction and chemical analysis.
##URL=rruff.info/R170038
##MEASURED CHEMISTRY=(Fe_0.65_Mg_0.35_Mn_0.01_)(Al_1.96_Fe_0.04_)O_4_   ; Probed with R130646
88.51367, 0.0000000E+00
88.99579, 8.132050
89.47791, 11.52277
89.96002, 10.13022
90.44214, 8.893768
90.92426, 13.18149
91.40637, 20.64603
91.88849, 24.52277
92.37061, 22.62189
92.85272, 17.92203
93.33484, 13.97604
93.81696, 10.46216
94.29907, 9.405548
94.78119, 16.25360
95.26331, 27.65176
95.74542, 35.69437
96.22754, 38.30029
96.70966, 26.19876
97.19177, 18.87067
97.67389, 18.07526
98.15601, 20.20032
98.63812, 20.28479
99.12024, 18.31055
99.60236, 15.17191
100.0845, 10.76801
100.5666, 4.271179
101.0487, 0.6134640
101.5308, 0.7121280
102.0129, 3.171814
102.4950, 3.069794
102.9772, 1.625336
103.4593, 5.396698
103.9414, 4.926758
104.4235, 2.395203
104.9056, 8.583923
105.3877, 12.50818
105.8699, 14.21033
106.3520, 16.79468
106.8341, 22.14001
107.3162, 27.03949
107.7983, 29.19287
108.2804, 25.80426
108.7626, 23.00955
109.2447, 21.72400
109.7268, 22.29666
110.2089, 22.11331
110.6910, 20.32745
111.1731, 17.93771
111.6553, 16.10965
112.1374, 14.51932
112.6195, 14.03290
113.1016, 14.88614
113.5837, 17.41397
114.0658, 20.27423
114.5480, 24.15283
115.0301, 28.06143
115.5122, 30.30634
115.9943, 28.80560
116.4764, 26.53165
116.9585, 25.43884
117.4407, 26.22226
117.9228, 26.74048
118.4049, 25.85718
118.8870, 23.98508
119.3691, 22.16037
119.8512, 20.86221
120.3334, 19.77615
120.8155, 18.74078
121.2976, 16.74548
121.7797, 15.52551
122.2618, 17.91205
122.7439, 23.36383
123.2261, 27.92102
123.7082, 27.69693
124.1903, 24.77045
124.6724, 22.43732
125.1545, 21.80182
125.6366, 22.09647
126.1188, 22.59903
126.6009, 23.49744
127.0830, 24.03119
127.5651, 22.21716
128.0472, 19.03580
128.5293, 17.09540
129.0115, 18.48340
129.4936, 22.00293
129.9757, 23.92117
130.4578, 24.16400
130.9399, 23.30850
131.4220, 21.60776
131.9042, 19.02643
132.3863, 16.84698
132.8684, 15.82532
133.3505, 15.84158
133.8326, 15.93307
134.3147, 16.26172
134.7969, 16.43787
135.2790, 15.18848
135.7611, 12.08661
136.2432, 9.742371
136.7253, 9.866516
137.2074, 12.83823
137.6896, 15.23700
138.1717, 16.88242
138.6538, 17.81577
139.1359, 18.06076
139.6180, 17.38507
140.1001, 16.51205
140.5823, 15.91994
141.0644, 15.75058
141.5465, 15.42410
142.0286, 14.84840
142.5107, 14.06517
142.9928, 13.33920
143.4750, 13.10188
143.9571, 12.44247
144.4392, 10.53419
144.9213, 5.666748
145.4034, 2.351578
145.8855, 1.474808
146.3677, 3.580322
146.8498, 5.739471
147.3319, 8.468002
147.8140, 10.90961
148.2961, 12.32523
148.7782, 12.40401
149.2604, 11.78952
149.7425, 10.09499
150.2246, 6.923294
150.7067, 5.074341
151.1888, 6.068390
151.6709, 7.828384
152.1531, 8.166962
152.6352, 4.422379
153.1173, 1.569290
153.5994, 1.262024
154.0815, 4.336014
154.5636, 6.861099
155.0458, 8.398239
155.5279, 9.046936
156.0100, 8.918503
156.4921, 7.148941
156.9742, 5.306931
157.4563, 4.091034
157.9385, 3.847534
158.4206, 3.375000
158.9027, 1.956635
159.3848, 0.1946870
159.8669, 0.9251710
160.3490, 0.9050600
160.8312, 0.6018220
161.3133, 0.4631200
161.7954, 0.4398190
162.2775, 0.3405760
162.7596, 2.735764
163.2417, 5.817444
163.7238, 7.340271
164.2060, 4.195877
164.6881, 0.2206270
165.1702, 1.435181
165.6523, 1.211929
166.1344, 4.109863
166.6165, 4.391251
167.0987, 2.721603
167.5808, 1.499969
168.0629, 2.626434
168.5450, 4.643875
169.0271, 6.035492
169.5092, 6.193268
169.9914, 5.885254
170.4735, 5.710052
170.9556, 5.640656
171.4377, 5.426727
171.9198, 4.497589
172.4019, 3.444839
172.8841, 3.175171
173.3662, 3.711121
173.8483, 5.068466
174.3304, 8.025879
174.8125, 12.44124
175.2946, 15.94750
175.7768, 16.09021
176.2589, 13.97798
176.7410, 11.97400
177.2231, 10.12291
177.7052, 8.992828
178.1873, 9.899658
178.6695, 13.00038
179.1516, 16.57550
179.6337, 19.57330
180.1158, 21.88918
180.5979, 23.07819
181.0800, 22.27412
181.5622, 20.46661
182.0443, 19.88275
182.5264, 20.58841
183.0085, 21.29962
183.4906, 19.96231
183.9727, 17.19118
184.4549, 15.82288
184.9370, 18.15799
185.4191, 22.70059
185.9012, 24.69124
186.3833, 23.86630
186.8654, 22.14632
187.3476, 21.95792
187.8297, 23.09953
188.3118, 23.81848
188.7939, 22.90692
189.2760, 20.86833
189.7581, 20.20984
190.2403, 21.12071
190.7224, 22.70230
191.2045, 23.90041
191.6866, 24.71097
192.1687, 25.21170
192.6508, 24.96275
193.1330, 24.14326
193.6151, 24.98267
194.0972, 27.91281
194.5793, 31.40910
195.0614, 33.30133
195.5435, 33.52965
196.0257, 32.90833
196.5078, 31.10959
196.9899, 28.14043
197.4720, 27.37489
197.9541, 29.42242
198.4362, 32.46596
198.9184, 33.46356
199.4005, 32.12012
199.8826, 30.51392
200.3647, 29.59369
200.8468, 29.43103
201.3289, 29.08392
201.8111, 28.67441
202.2932, 27.91051
202.7753, 25.74716
203.2574, 21.58652
203.7395, 18.59209
204.2216, 18.96132
204.7038, 23.46448
205.1859, 25.54530
205.6680, 24.51454
206.1501, 21.70120
206.6322, 19.63225
207.1143, 18.42241
207.5965, 17.57166
208.0786, 16.85765
208.5607, 16.26540
209.0428, 15.93210
209.5249, 15.95508
210.0070, 16.16678
210.4892, 16.28734
210.9713, 16.45596
211.4534, 16.19287
211.9355, 15.10762
212.4176, 12.78244
212.8997, 11.25258
213.3819, 10.81143
213.8640, 10.99217
214.3461, 10.67857
214.8282, 9.562500
215.3103, 8.634155
215.7924, 8.319763
216.2746, 8.697800
216.7567, 9.560410
217.2388, 11.40448
217.7209, 13.42239
218.2030, 13.61584
218.6851, 10.96401
219.1673, 8.548462
219.6494, 8.018661
220.1315, 10.60567
220.6136, 11.45161
221.0957, 9.962280
221.5778, 6.950668
222.0600, 4.345306
222.5421, 1.738876
223.0242, 9.7305000E-02
223.5063, 0.2519990
223.9884, 3.198181
224.4705, 4.990112
224.9527, 5.333969
225.4348, 4.623505
225.9169, 3.665665
226.3990, 1.988678
226.8811, 0.8791500
227.3632, 1.130066
227.8454, 3.803146
228.3275, 4.922775
228.8096, 4.023224
229.2917, 1.756119
229.7738, 0.5397490
230.2559, 3.535370
230.7381, 5.484009
231.2202, 5.395691
231.7023, 2.196503
232.1844, 5.9036002E-02
232.6665, 1.294662
233.1486, 1.607178
233.6308, 0.9636540
234.1129, 1.773666
234.5950, 3.655380
235.0771, 3.241104
235.5592, 0.7771300
236.0413, 3.074722
236.5235, 2.699585
237.0056, 1.073654
237.4877, 1.195190
237.9698, 4.520996
238.4519, 7.211136
238.9340, 7.653580
239.4162, 4.870941
239.8983, 3.008224
240.3804, 2.478256
240.8625, 2.636780
241.3446, 2.275391
241.8267, 1.006714
242.3089, 0.1827240
242.7910, 0.9815520
243.2731, 1.375610
243.7552, 1.478195
244.2373, 1.231140
244.7194, 0.7317960
245.2016, 0.1052250
245.6837, 0.7932890
246.1658, 1.579285
246.6479, 2.175995
247.1300, 2.632339
247.6121, 2.610931
248.0943, 1.683670
248.5764, 0.6026610
249.0585, 0.5577700
249.5406, 2.168625
250.0227, 3.706573
250.5048, 4.774506
250.9870, 5.409866
251.4691, 5.290619
251.9512, 3.869843
252.4333, 2.183289
252.9154, 1.624039
253.3975, 2.706055
253.8797, 3.893250
254.3618, 4.916351
254.8439, 5.834305
255.3260, 5.889832
255.8081, 4.566483
256.2902, 2.931015
256.7723, 2.250443
257.2545, 2.959290
257.7366, 3.610657
258.2187, 3.798889
258.7008, 3.515671
259.1829, 3.577499
259.6650, 4.068817
260.1472, 4.799423
260.6293, 5.622986
261.1114, 6.603241
261.5935, 7.551407
262.0756, 8.519943
262.5577, 9.492050
263.0399, 9.695419
263.5220, 8.929718
264.0041, 7.734146
264.4862, 6.394608
264.9683, 4.647659
265.4504, 3.751358
265.9326, 4.271133
266.4147, 5.907394
266.8968, 6.635803
267.3789, 6.207687
267.8610, 5.378616
268.3431, 4.626068
268.8253, 3.858734
269.3074, 3.614258
269.7895, 4.094055
270.2716, 5.122025
270.7537, 6.093338
271.2358, 7.039581
271.7180, 7.845779
272.2001, 8.440659
272.6822, 8.814529
273.1643, 8.989532
273.6464, 8.930862
274.1285, 8.714615
274.6107, 8.536499
275.0928, 8.409592
275.5749, 8.266052
276.0570, 7.663483
276.5391, 6.456894
277.0212, 7.288803
277.5034, 11.40668
277.9855, 16.50761
278.4676, 16.66533
278.9497, 11.21922
279.4318, 5.592468
279.9139, 2.699020
280.3961, 2.512009
280.8782, 3.115692
281.3603, 4.713547
281.8424, 6.615128
282.3245, 7.597183
282.8066, 7.640289
283.2888, 7.279800
283.7709, 6.384216
284.2530, 5.093384
284.7351, 4.870880
285.2172, 5.891846
285.6993, 7.514435
286.1815, 9.307983
286.6636, 11.18967
287.1457, 11.91145
287.6278, 10.16664
288.1099, 6.561203
288.5920, 4.213120
289.0742, 3.341583
289.5563, 3.509827
290.0384, 4.406494
290.5205, 5.739410
291.0026, 6.282654
291.4847, 4.780106
291.9669, 2.386322
292.4490, 2.852844
292.9311, 6.428558
293.4132, 10.25780
293.8953, 11.30545
294.3774, 10.02972
294.8596, 7.966812
295.3417, 4.702408
295.8238, 1.638840
296.3059, 1.673935
296.7880, 4.623840
297.2701, 8.036026
297.7523, 10.65063
298.2344, 12.32797
298.7165, 12.56854
299.1986, 10.62936
299.6807, 8.265717
300.1628, 7.714371
300.6450, 8.705566
301.1271, 9.948868
301.6092, 11.24019
302.0913, 12.12408
302.5734, 11.57399
303.0555, 8.876633
303.5377, 6.246689
304.0198, 6.165421
304.5019, 7.975739
304.9840, 9.886337
305.4661, 11.40202
305.9482, 12.38130
306.4304, 12.20345
306.9125, 10.84439
307.3946, 9.302719
307.8767, 8.135788
308.3588, 7.318542
308.8409, 6.829361
309.3231, 6.812561
309.8052, 7.003708
310.2873, 7.368134
310.7694, 7.930405
311.2515, 8.124802
311.7336, 7.493164
312.2158, 6.346466
312.6979, 5.071457
313.1800, 3.416061
313.6621, 2.032028
314.1442, 1.176880
314.6263, 0.8864900
315.1085, 1.023254
315.5906, 1.879318
316.0727, 2.954269
316.5548, 3.851730
317.0369, 4.994064
317.5190, 5.382278
318.0012, 3.718750
318.4833, 0.6972660
318.9654, 0.7292790
319.4475, 2.240311
319.9296, 5.732117
320.4117, 7.405685
320.8939, 5.318222
321.3760, 3.877808
321.8581, 4.732315
322.3402, 6.833725
322.8223, 7.675766
323.3044, 5.050217
323.7866, 2.668869
324.2687, 2.169846
324.7508, 4.869095
325.2329, 6.485809
325.7150, 5.613281
326.1971, 3.785370
326.6793, 3.287903
327.1614, 6.220932
327.6435, 8.262726
328.1256, 8.046448
328.6077, 4.985962
329.0898, 3.208466
329.5720, 3.761658
330.0541, 4.882294
330.5362, 4.818146
331.0183, 2.407822
331.5004, 0.7447970
331.9825, 0.6105960
332.4647, 1.858887
332.9468, 2.454117
333.4289, 1.970001
333.9110, 1.402740
334.3931, 1.478928
334.8752, 2.413635
335.3574, 3.407822
335.8394, 4.559189
336.3216, 5.659485
336.8037, 6.059464
337.2858, 5.677185
337.7679, 4.782471
338.2500, 3.011429
338.7321, 6.3873000E-02
339.2143, 0.5427860
339.6964, 2.089020
340.1785, 5.876770
340.6606, 6.805695
341.1427, 4.570862
341.6248, 2.571289
342.1070, 2.414566
342.5891, 3.870682
343.0712, 4.712173
343.5533, 4.840973
344.0354, 4.792114
344.5175, 5.509476
344.9997, 6.834457
345.4818, 7.140625
345.9639, 5.321182
346.4460, 2.466858
346.9281, 1.395248
347.4102, 2.074051
347.8924, 3.444611
348.3745, 5.239853
348.8566, 7.056946
349.3387, 7.793030
349.8208, 6.980225
350.3029, 5.368912
350.7851, 3.277908
351.2672, 0.9866640
351.7493, 0.1419830
352.2314, 1.838470
352.7135, 5.053543
353.1956, 6.981888
353.6778, 7.116150
354.1599, 6.688370
354.6420, 6.987564
355.1241, 7.465286
355.6062, 7.092636
356.0883, 4.129776
356.5705, 1.013550
357.0526, 0.3504640
357.5347, 0.1444090
358.0168, 1.370911
358.4989, 3.875824
358.9810, 6.319031
359.4632, 7.293945
359.9453, 4.098083
360.4274, 1.504944
360.9095, 2.580826
361.3916, 6.457901
361.8737, 8.338669
362.3559, 3.446930
362.8380, 1.815933
363.3201, 3.307510
363.8022, 3.112183
364.2843, 7.810791
364.7664, 7.791626
365.2486, 4.886429
365.7307, 3.026306
366.2128, 3.660690
366.6949, 4.519547
367.1770, 4.594498
367.6591, 3.036469
368.1413, 3.425522
368.6234, 8.665771
369.1055, 14.34943
369.5876, 15.26804
370.0697, 6.923416
370.5518, 0.5988770
371.0340, 1.134171
371.5161, 1.502930
371.9982, 3.665054
372.4803, 5.204071
372.9624, 6.621582
373.4445, 8.132858
373.9267, 9.806107
374.4088, 11.21918
374.8909, 12.43173
375.3730, 13.33591
375.8551, 13.43039
376.3372, 12.51015
376.8194, 11.40295
377.3015, 10.38573
377.7836, 9.442551
378.2657, 9.672119
378.7478, 11.39304
379.2299, 13.43735
379.7121, 13.80899
380.1942, 12.59015
380.6763, 12.00844
381.1584, 13.35031
381.6405, 15.84865
382.1227, 16.68326
382.6048, 15.59033
383.0869, 14.79672
383.5690, 16.55518
384.0511, 20.18869
384.5332, 23.88564
385.0154, 27.42372
385.4975, 30.29643
385.9796, 31.46898
386.4617, 31.19319
386.9438, 30.93190
387.4259, 31.53535
387.9081, 32.69211
388.3902, 34.15999
388.8723, 35.89833
389.3544, 37.20157
389.8365, 36.96475
390.3186, 36.16693
390.8008, 36.24757
391.2829, 38.80763
391.7650, 41.51527
392.2471, 42.55522
392.7292, 42.06039
393.2113, 42.77739
393.6935, 47.38120
394.1756, 52.59694
394.6577, 55.95340
395.1398, 55.04898
395.6219, 54.85689
396.1040, 56.55635
396.5862, 59.62234
397.0683, 62.62215
397.5504, 66.43146
398.0325, 69.26912
398.5146, 70.24948
398.9967, 68.50616
399.4789, 67.70691
399.9610, 68.52568
400.4431, 69.85637
400.9252, 70.33777
401.4073, 69.32893
401.8894, 68.74785
402.3716, 69.40288
402.8537, 71.01389
403.3358, 70.81557
403.8179, 68.51962
404.3000, 65.08546
404.7821, 60.78246
405.2643, 55.40366
405.7464, 51.09389
406.2285, 48.26089
406.7106, 46.25990
407.1927, 43.65250
407.6748, 40.41660
408.1570, 37.48541
408.6391, 35.76378
409.1212, 34.80374
409.6033, 32.45967
410.0854, 28.56456
410.5675, 24.76778
411.0497, 23.20924
411.5318, 23.14563
412.0139, 22.42621
412.4960, 20.02614
412.9781, 17.09982
413.4602, 14.85475
413.9424, 13.30023
414.4245, 12.57562
414.9066, 13.82208
415.3887, 15.44438
415.8708, 15.52655
416.3529, 13.42578
416.8351, 11.21503
417.3172, 9.880920
417.7993, 9.312012
418.2814, 9.313919
418.7635, 10.71513
419.2456, 11.88594
419.7278, 12.10812
420.2099, 11.37230
420.6920, 10.08150
421.1741, 7.444290
421.6562, 5.067154
422.1383, 3.693970
422.6205, 4.416077
423.1026, 4.990845
423.5847, 5.122559
424.0668, 5.015610
424.5489, 5.202805
425.0310, 6.319153
425.5132, 6.939117
425.9953, 6.344971
426.4774, 4.150955
426.9595, 3.235809
427.4416, 4.324509
427.9237, 5.761627
428.4059, 5.702530
428.8880, 3.723297
429.3701, 1.826126
429.8522, 2.2280000E-03
430.3343, 1.385635
430.8164, 0.2247920
431.2986, 3.899048
431.7807, 7.232178
432.2628, 6.662964
432.7449, 2.894348
433.2270, 0.3912200
433.7091, 0.4391170
434.1912, 0.5281220
434.6733, 0.9420010
435.1555, 1.584671
435.6376, 2.136536
436.1197, 2.953140
436.6018, 3.294952
437.0839, 1.265579
437.5660, 2.782776
438.0482, 5.661240
438.5303, 3.676483
439.0124, 6.7932002E-02
439.4945, 1.264435
439.9766, 1.576431
440.4587, 4.068802
440.9409, 2.946732
441.4230, 0.2542270
441.9051, 2.815216
442.3872, 4.073181
442.8693, 4.198547
443.3514, 2.583099
443.8336, 0.9234620
444.3157, 3.135605
444.7978, 2.102158
445.2799, 0.3434140
445.7620, 0.3563540
446.2441, 0.9838260
446.7263, 2.288681
447.2084, 3.874069
447.6905, 5.354294
448.1726, 5.505264
448.6547, 3.105469
449.1368, 1.486923
449.6190, 2.140366
450.1011, 5.341476
450.5832, 7.778671
451.0653, 9.611542
451.5474, 10.39621
452.0295, 9.054977
452.5117, 5.390335
452.9938, 3.180511
453.4759, 3.560669
453.9580, 5.342743
454.4401, 5.509796
454.9222, 4.172272
455.4044, 3.419891
455.8865, 5.128769
456.3686, 8.232300
456.8507, 10.55869
457.3328, 11.98787
457.8149, 12.32022
458.2971, 10.17725
458.7792, 7.003403
459.2613, 5.325943
459.7434, 7.379501
460.2255, 9.809662
460.7076, 9.611176
461.1898, 7.546722
461.6719, 6.352600
462.1540, 9.198669
462.6361, 11.97418
463.1182, 11.45288
463.6003, 5.787857
464.0825, 2.250320
464.5646, 4.690292
465.0467, 9.388550
465.5288, 12.16292
466.0109, 10.36110
466.4930, 9.137131
466.9752, 9.494019
467.4573, 11.13469
467.9394, 12.16005
468.4215, 12.29767
468.9036, 12.18736
469.3857, 12.10153
469.8679, 12.01511
470.3500, 12.13000
470.8321, 12.61557
471.3142, 13.01085
471.7963, 12.34398
472.2784, 10.50447
472.7606, 9.529877
473.2427, 10.23799
473.7248, 12.04422
474.2069, 13.67191
474.6890, 15.10136
475.1711, 15.56723
475.6533, 13.91969
476.1354, 11.20529
476.6175, 9.208954
477.0996, 7.968048
477.5817, 7.208923
478.0638, 7.635910
478.5460, 8.666504
479.0281, 9.256546
479.5102, 8.241287
479.9923, 7.281036
480.4744, 7.744507
480.9565, 9.316437
481.4387, 10.51520
481.9208, 10.17741
482.4029, 9.706894
482.8850, 10.04332
483.3671, 11.93185
483.8492, 12.88148
484.3314, 11.46840
484.8135, 9.397766
485.2956, 8.814453
485.7777, 11.47330
486.2598, 12.89706
486.7419, 11.85529
487.2241, 8.873550
487.7062, 6.982803
488.1883, 6.438110
488.6704, 6.556503
489.1525, 7.256790
489.6346, 8.444366
490.1168, 8.446457
490.5989, 6.784531
491.0810, 5.213211
491.5631, 6.958206
492.0452, 11.48999
492.5273, 14.00677
493.0095, 12.16408
493.4916, 8.618454
493.9737, 7.659500
494.4558, 9.024536
494.9379, 11.39752
495.4200, 15.55118
495.9022, 19.28984
496.3843, 19.40703
496.8664, 15.07054
497.3485, 11.32263
497.8306, 11.95680
498.3127, 14.67451
498.7949, 16.99319
499.2770, 18.23494
499.7591, 18.75024
500.2412, 18.63168
500.7233, 18.01707
501.2054, 17.20596
501.6876, 15.41216
502.1697, 14.29214
502.6518, 14.50714
503.1339, 16.30632
503.6160, 17.67610
504.0981, 18.57605
504.5803, 19.30081
505.0624, 20.26772
505.5445, 21.67012
506.0266, 22.03726
506.5087, 20.70535
506.9908, 18.71556
507.4730, 18.88950
507.9551, 21.25862
508.4372, 23.22369
508.9193, 23.04800
509.4014, 21.61536
509.8835, 21.74739
510.3657, 23.42400
510.8478, 25.16116
511.3299, 25.73793
511.8120, 25.58272
512.2941, 25.42821
512.7762, 25.63023
513.2584, 25.32518
513.7405, 23.36365
514.2226, 20.55460
514.7047, 18.30103
515.1868, 17.08281
515.6689, 16.55605
516.1511, 16.78532
516.6332, 17.72137
517.1153, 18.65675
517.5974, 20.01395
518.0795, 20.90479
518.5616, 20.75854
519.0438, 18.68495
519.5259, 17.73134
520.0080, 18.59810
520.4901, 19.98363
520.9722, 20.23683
521.4543, 19.31854
521.9365, 17.19408
522.4186, 13.02481
522.9007, 8.081757
523.3828, 7.182755
523.8649, 10.42410
524.3470, 14.05408
524.8292, 16.43994
525.3113, 17.42207
525.7934, 16.27878
526.2755, 12.86536
526.7576, 8.972443
527.2397, 5.642822
527.7219, 2.991333
528.2040, 1.293442
528.6861, 0.9343870
529.1682, 1.000778
529.6503, 0.5106200
530.1324, 2.1118000E-02
530.6146, 0.7263180
531.0967, 6.101105
531.5788, 9.935272
532.0609, 8.893417
532.5430, 2.472549
533.0251, 2.646393
533.5073, 6.634384
533.9894, 8.600800
534.4715, 7.592819
534.9536, 1.229248
535.4357, 2.391647
535.9178, 2.243103
536.4000, 0.2828060
536.8821, 0.3907010
537.3642, 0.4119870
537.8463, 0.8363800
538.3284, 0.2239230
538.8105, 1.022491
539.2927, 1.955383
539.7748, 2.563293
540.2569, 2.701797
540.7390, 2.414917
541.2211, 1.556305
541.7032, 0.5116420
542.1854, 3.898209
542.6675, 6.945358
543.1496, 8.414856
543.6317, 8.749161
544.1138, 8.478683
544.5959, 7.770554
545.0781, 6.460159
545.5602, 3.563599
546.0423, 6.8420000E-02
546.5244, 1.916107
547.0065, 0.7435760
547.4886, 0.7635350
547.9708, 1.859802
548.4529, 2.547058
548.9350, 3.274826
549.4171, 4.165710
549.8992, 4.932526
550.3813, 5.432114
550.8635, 5.694214
551.3456, 5.390701
551.8277, 4.270798
552.3098, 3.122574
552.7919, 3.193634
553.2740, 4.347855
553.7562, 5.361252
554.2383, 5.652893
554.7204, 5.961746
555.2025, 8.142029
555.6846, 11.62222
556.1667, 13.95285
556.6489, 12.19849
557.1310, 9.691956
557.6131, 10.12643
558.0952, 13.66356
558.5773, 16.21892
559.0594, 14.47549
559.5416, 11.81180
560.0237, 10.93933
560.5058, 13.76620
560.9879, 15.87373
561.4700, 16.31358
561.9521, 15.91156
562.4343, 15.81120
562.9164, 16.60379
563.3985, 16.51726
563.8806, 14.73010
564.3627, 11.86067
564.8448, 10.72835
565.3270, 11.59068
565.8091, 12.75204
566.2912, 13.31889
566.7733, 13.38266
567.2554, 13.24435
567.7375, 12.86308
568.2197, 12.87193
568.7018, 14.73488
569.1839, 17.20525
569.6660, 17.80392
570.1481, 15.34807
570.6302, 12.64693
571.1124, 11.83450
571.5945, 12.21475
572.0766, 12.62590
572.5587, 12.18721
573.0408, 12.18973
573.5229, 13.40863
574.0051, 15.64522
574.4872, 17.41446
574.9693, 18.85258
575.4514, 19.53189
575.9335, 18.98357
576.4156, 16.83002
576.8978, 15.96722
577.3799, 16.62500
577.8620, 18.11761
578.3441, 20.26949
578.8262, 23.10031
579.3083, 24.36569
579.7905, 23.39610
580.2726, 21.78117
580.7547, 21.87735
581.2368, 23.35358
581.7189, 25.07745
582.2010, 27.23764
582.6831, 28.84805
583.1652, 27.91408
583.6473, 25.21809
584.1295, 23.91835
584.6116, 27.14163
585.0937, 31.03416
585.5758, 32.99304
586.0579, 32.44405
586.5400, 32.66388
587.0222, 35.30791
587.5043, 38.25438
587.9864, 39.96880
588.4685, 39.91522
588.9506, 39.67451
589.4327, 39.09839
589.9149, 38.51530
590.3970, 38.40968
590.8791, 38.71242
591.3612, 39.28917
591.8433, 40.26364
592.3254, 41.65666
592.8076, 43.82907
593.2897, 46.39661
593.7718, 48.06625
594.2539, 46.84013
594.7360, 44.89728
595.2181, 45.58618
595.7003, 48.87996
596.1824, 52.15895
596.6645, 54.12364
597.1466, 55.20599
597.6287, 55.53668
598.1108, 54.41187
598.5930, 54.43533
599.0751, 57.57352
599.5572, 61.55768
600.0393, 63.61005
600.5214, 61.35553
601.0035, 61.36935
601.4857, 65.27223
601.9678, 71.50661
602.4499, 75.80870
602.9320, 78.03174
603.4141, 79.31929
603.8962, 79.47000
604.3784, 79.15146
604.8605, 81.50618
605.3426, 86.40051
605.8247, 90.75177
606.3068, 91.60466
606.7889, 90.88129
607.2711, 91.42241
607.7532, 93.59143
608.2353, 96.04066
608.7174, 98.37753
609.1995, 100.3309
609.6816, 101.6597
610.1638, 101.8638
610.6459, 102.3504
611.1280, 103.2404
611.6101, 104.2381
612.0922, 105.1937
612.5743, 106.4583
613.0565, 107.7166
613.5386, 109.0220
614.0207, 109.9986
614.5028, 109.0722
614.9849, 105.9148
615.4670, 103.5464
615.9492, 104.2457
616.4313, 107.0546
616.9134, 108.4471
617.3955, 108.4555
617.8776, 107.8383
618.3597, 106.9889
618.8419, 105.5326
619.3240, 103.2263
619.8061, 99.91754
620.2882, 97.41846
620.7703, 97.87846
621.2524, 99.09062
621.7346, 98.72758
622.2167, 94.16666
622.6988, 90.77768
623.1809, 89.65433
623.6630, 89.63336
624.1451, 88.53897
624.6273, 85.78380
625.1094, 83.40825
625.5915, 82.12311
626.0736, 81.56955
626.5557, 79.96213
627.0378, 77.25096
627.5200, 75.06418
628.0021, 75.12625
628.4842, 76.24304
628.9663, 75.62431
629.4484, 73.24664
629.9305, 70.34872
630.4127, 67.52061
630.8948, 64.85089
631.3769, 62.28664
631.8590, 59.59103
632.3411, 57.91843
632.8232, 58.61607
633.3054, 60.12155
633.7875, 60.76840
634.2696, 59.84920
634.7517, 58.81319
635.2338, 57.45601
635.7159, 56.16669
636.1981, 56.01274
636.6802, 57.37114
637.1623, 57.95311
637.6444, 56.84279
638.1265, 54.62195
638.6086, 52.68399
639.0908, 51.07512
639.5729, 50.22203
640.0550, 51.12857
640.5371, 52.55460
641.0192, 52.59978
641.5013, 51.30530
641.9835, 50.45656
642.4656, 52.16077
642.9477, 53.92410
643.4298, 53.89644
643.9119, 51.46774
644.3940, 48.40933
644.8762, 43.57315
645.3583, 39.15005
645.8404, 37.06819
646.3225, 38.06639
646.8046, 39.66661
647.2867, 42.28149
647.7689, 44.60677
648.2510, 44.10681
648.7331, 40.86620
649.2152, 37.25447
649.6973, 33.37581
650.1794, 30.28665
650.6616, 30.35760
651.1437, 32.78870
651.6258, 34.98343
652.1079, 35.77397
652.5900, 35.65858
653.0721, 34.77594
653.5543, 33.19249
654.0364, 31.46059
654.5185, 29.46030
655.0006, 27.58652
655.4827, 25.84448
655.9648, 24.08228
656.4470, 23.63165
656.9291, 25.46159
657.4112, 27.04552
657.8933, 26.29495
658.3754, 23.12315
658.8575, 19.43973
659.3397, 15.05637
659.8218, 11.47411
660.3039, 11.43921
660.7860, 13.63014
661.2681, 14.31126
661.7502, 11.85564
662.2324, 9.298157
662.7145, 9.442902
663.1966, 11.11909
663.6787, 12.35812
664.1608, 13.29524
664.6429, 12.84821
665.1251, 9.380615
665.6072, 4.065445
666.0893, 1.324448
666.5714, 3.080627
667.0535, 4.058075
667.5356, 2.092743
668.0178, 2.150787
668.4999, 3.583344
668.9820, 1.861359
669.4641, 0.3648530
669.9462, 1.936737
670.4283, 5.216095
670.9105, 6.640213
671.3926, 6.127533
671.8747, 5.346252
672.3568, 5.279343
672.8389, 5.732224
673.3210, 6.649887
673.8032, 8.229126
674.2853, 9.462463
674.7674, 10.91727
675.2495, 11.39618
675.7316, 9.616821
676.2137, 3.258789
676.6959, 0.9821780
677.1780, 2.153152
677.6601, 1.813843
678.1422, 2.453934
678.6243, 4.181824
679.1064, 4.494095
679.5886, 2.154785
680.0707, 0.7407230
680.5528, 0.2329100
681.0349, 3.925125
681.5170, 6.524643
681.9991, 4.564896
682.4813, 2.266632
682.9634, 3.307343
683.4455, 6.841782
683.9276, 9.702789
684.4097, 10.25394
684.8918, 10.55473
685.3740, 11.50641
685.8561, 13.07866
686.3382, 14.20578
686.8203, 14.64290
687.3024, 15.11560
687.7845, 15.99318
688.2667, 17.28297
688.7488, 18.97304
689.2309, 21.14093
689.7130, 22.91910
690.1951, 22.90720
690.6772, 22.14311
691.1594, 22.82271
691.6415, 25.41136
692.1236, 28.03831
692.6057, 29.81351
693.0878, 30.74181
693.5699, 30.68375
694.0521, 28.22183
694.5342, 27.15785
695.0163, 29.18245
695.4984, 32.19832
695.9805, 33.89828
696.4626, 34.24544
696.9448, 33.07706
697.4269, 29.67935
697.9090, 25.72391
698.3911, 24.82674
698.8732, 26.63397
699.3553, 28.23257
699.8375, 28.49449
700.3196, 28.13208
700.8017, 27.95494
701.2838, 27.86635
701.7659, 27.59294
702.2480, 26.97505
702.7302, 26.17865
703.2123, 25.31099
703.6944, 24.34795
704.1765, 23.10481
704.6586, 21.08160
705.1407, 19.41615
705.6229, 18.46172
706.1050, 18.21164
706.5871, 18.63658
707.0692, 19.81038
707.5513, 21.19609
708.0334, 22.76918
708.5156, 24.23866
708.9977, 24.67923
709.4798, 24.06981
709.9619, 22.86371
710.4440, 20.52657
710.9261, 18.27536
711.4083, 17.59508
711.8904, 19.24190
712.3725, 20.05179
712.8546, 18.00984
713.3367, 15.54041
713.8188, 14.65128
714.3010, 16.32919
714.7831, 17.26869
715.2652, 17.21254
715.7473, 16.78841
716.2294, 16.60333
716.7115, 16.67375
717.1937, 17.38261
717.6758, 18.96271
718.1579, 20.68724
718.6400, 21.38457
719.1221, 21.62956
719.6042, 22.59258
720.0864, 25.31644
720.5685, 27.94504
721.0506, 29.60120
721.5327, 30.58728
722.0148, 31.53244
722.4969, 33.26137
722.9791, 33.90294
723.4612, 32.82809
723.9433, 30.58574
724.4254, 28.66425
724.9075, 26.93213
725.3896, 26.24770
725.8718, 27.09776
726.3539, 28.83278
726.8360, 30.19765
727.3181, 31.17763
727.8002, 31.59126
728.2823, 30.66026
728.7645, 29.70639
729.2466, 30.26947
729.7287, 32.07483
730.2108, 32.81798
730.6929, 29.70529
731.1750, 27.50226
731.6572, 28.50394
732.1393, 32.75562
732.6214, 34.89093
733.1035, 34.15054
733.5856, 33.91783
734.0677, 37.42075
734.5499, 43.59735
735.0320, 46.08810
735.5141, 44.85194
735.9962, 44.34900
736.4783, 50.01427
736.9604, 57.27350
737.4426, 60.35344
737.9247, 57.97884
738.4068, 56.27498
738.8889, 57.68192
739.3710, 60.44460
739.8531, 63.51463
740.3353, 67.19154
740.8174, 70.11792
741.2995, 72.15234
741.7816, 73.69786
742.2637, 74.83849
742.7458, 75.63135
743.2280, 77.53809
743.7101, 80.86362
744.1922, 84.33383
744.6743, 86.55807
745.1564, 87.99026
745.6385, 89.10483
746.1207, 89.31079
746.6028, 91.05052
747.0849, 97.89056
747.5670, 105.8633
748.0491, 110.1475
748.5313, 106.9056
749.0134, 105.3107
749.4955, 105.9447
749.9776, 108.2052
750.4597, 111.8389
750.9418, 116.9593
751.4240, 120.1875
751.9061, 120.4519
752.3882, 119.4643
752.8703, 119.8955
753.3524, 120.9980
753.8345, 120.9444
754.3167, 117.8237
754.7988, 114.9516
755.2809, 114.6800
755.7630, 115.8122
756.2451, 115.9428
756.7272, 113.6314
757.2094, 111.7263
757.6915, 110.6686
758.1736, 110.2434
758.6557, 109.9412
759.1378, 109.7574
759.6199, 109.8392
760.1021, 110.9428
760.5842, 111.5133
761.0663, 107.3818
761.5484, 100.0691
762.0305, 94.27902
762.5126, 94.33170
762.9948, 94.84262
763.4769, 92.02080
763.9590, 86.82843
764.4411, 83.24017
764.9232, 82.28180
765.4053, 82.76419
765.8875, 85.75119
766.3696, 90.02705
766.8517, 88.24271
767.3338, 79.68396
767.8159, 71.51453
768.2980, 67.33167
768.7802, 65.70044
769.2623, 63.56068
769.7444, 61.22061
770.2265, 60.06248
770.7086, 61.82687
771.1907, 64.40233
771.6729, 66.89259
772.1550, 68.93803
772.6371, 68.55849
773.1192, 63.76601
773.6013, 58.68915
774.0834, 54.36108
774.5656, 50.88377
775.0477, 49.47826
775.5298, 50.38255
776.0119, 51.26604
776.4940, 50.53426
776.9761, 48.84380
777.4583, 47.79332
777.9404, 47.23308
778.4225, 45.78690
778.9046, 39.93643
779.3867, 35.14215
779.8688, 36.48296
780.3509, 44.63174
780.8330, 48.32179
781.3151, 44.10686
781.7972, 39.22917
782.2794, 37.04344
782.7615, 37.46960
783.2436, 36.89523
783.7257, 35.37224
784.2078, 33.58514
784.6899, 31.43289
785.1721, 29.47090
785.6542, 29.05353
786.1363, 30.03349
786.6184, 29.72342
787.1005, 24.48558
787.5826, 19.10260
788.0648, 17.13617
788.5469, 19.54683
789.0290, 20.57349
789.5111, 19.50882
789.9932, 17.99449
790.4753, 16.77037
790.9575, 15.85114
791.4396, 15.73164
791.9217, 16.48358
792.4038, 17.00958
792.8859, 15.89787
793.3680, 14.33484
793.8502, 13.91502
794.3323, 14.72423
794.8144, 16.14691
795.2965, 19.65024
795.7786, 22.31508
796.2607, 21.54312
796.7429, 16.60440
797.2250, 14.54088
797.7071, 16.97870
798.1892, 19.43680
798.6713, 18.26559
799.1534, 14.08119
799.6356, 12.54655
800.1177, 13.71539
800.5998, 15.17918
801.0819, 15.76648
801.5640, 15.27867
802.0461, 12.95705
802.5283, 8.688629
803.0104, 5.472336
803.4925, 5.510757
803.9746, 5.876572
804.4567, 4.561646
804.9388, 1.257614
805.4210, 0.1235660
805.9031, 1.547012
806.3852, 3.784302
806.8673, 6.322021
807.3494, 8.708054
807.8315, 8.807068
808.3137, 6.758026
808.7958, 5.041412
809.2779, 5.733429
809.7600, 7.128036
810.2421, 8.065216
810.7242, 8.437012
811.2064, 8.617218
811.6885, 8.803528
812.1706, 8.658600
812.6527, 7.849426
813.1348, 6.383896
813.6169, 5.435837
814.0991, 4.967712
814.5812, 5.068512
815.0633, 6.621506
815.5454, 8.520966
816.0275, 8.319946
816.5096, 6.180862
816.9918, 4.482986
817.4739, 4.903412
817.9560, 5.831818
818.4381, 6.369293
818.9202, 6.439301
819.4023, 6.550461
819.8845, 7.027451
820.3666, 6.883713
820.8487, 5.096573
821.3308, 2.186844
821.8129, 1.886612
822.2950, 4.085022
822.7772, 5.829041
823.2593, 4.768234
823.7414, 2.617157
824.2235, 0.8803250
824.7056, 0.3577120
825.1877, 1.149658
825.6699, 1.695221
826.1520, 1.537704
826.6341, 0.1545410
827.1162, 2.937790
827.5983, 2.678970
828.0804, 1.335617
828.5626, 4.649796
829.0447, 4.959152
829.5268, 3.516266
830.0089, 2.327499
830.4910, 1.277451
830.9731, 0.4721370
831.4553, 0.4342650
831.9374, 0.2198030
832.4195, 1.063675
832.9016, 3.126343
833.3837, 4.367264
833.8658, 3.997177
834.3480, 4.058426
834.8301, 5.444443
835.3122, 7.449020
835.7943, 7.430634
836.2764, 5.518585
836.7585, 4.094452
837.2407, 4.688965
837.7228, 5.699356
838.2049, 4.802979
838.6870, 2.869049
839.1691, 1.990265
839.6512, 5.273361
840.1334, 6.985611
840.6155, 3.638824
841.0976, 1.808701
841.5797, 2.635803
842.0618, 2.439804
842.5439, 5.790573
843.0261, 5.269913
843.5082, 2.930542
843.9903, 2.278244
844.4724, 2.738770
844.9545, 2.654968
845.4366, 0.8418730
845.9188, 0.6800380
846.4009, 0.2795410
846.8830, 0.9971310
847.3651, 1.506165
847.8472, 0.2865600
848.3293, 0.2340090
848.8115, 0.4332580
849.2936, 1.435059
849.7757, 1.457291
850.2578, 0.6284640
850.7399, 1.4343000E-02
851.2220, 0.3107600
851.7042, 0.2606350
852.1863, 0.3164980
852.6684, 1.165955
853.1505, 2.126328
853.6326, 3.861847
854.1147, 4.000137
854.5969, 0.4752040
855.0790, 3.453201
855.5611, 5.118393
856.0432, 4.146866
856.5253, 3.461029
857.0074, 3.245956
857.4896, 2.877289
857.9717, 1.794464
858.4538, 0.1237790
858.9359, 2.502594
859.4180, 6.285873
859.9001, 8.348572
860.3823, 5.308563
860.8644, 1.562469
861.3465, 0.3389740
861.8286, 2.057526
862.3107, 2.879257
862.7928, 2.513199
863.2750, 2.054718
863.7571, 2.539291
864.2392, 3.537292
864.7213, 2.994675
865.2034, 1.072235
865.6855, 0.4944760
866.1677, 0.8126680
866.6498, 0.1775360
867.1319, 2.021484
867.6140, 5.523621
868.0961, 6.845688
868.5782, 4.301163
869.0604, 2.098312
869.5425, 1.682892
870.0246, 2.580261
870.5067, 2.583435
870.9888, 1.810562
871.4709, 2.053970
871.9531, 5.349838
872.4352, 8.937973
872.9173, 9.260056
873.3994, 7.631256
873.8815, 7.250916
874.3636, 11.96727
874.8458, 14.36435
875.3279, 11.70248
875.8100, 6.681488
876.2921, 4.824142
876.7742, 6.380585
877.2563, 7.314011
877.7385, 6.478928
878.2206, 5.296341
878.7027, 6.057098
879.1848, 7.761780
879.6669, 8.487671
880.1490, 6.880173
880.6312, 5.863052
881.1133, 7.498001
881.5954, 9.552368
882.0775, 9.583862
882.5596, 6.724213
883.0417, 5.059708
883.5239, 4.949295
884.0060, 5.420380
884.4881, 6.125732
884.9702, 6.511871
885.4523, 4.675354
885.9344, 0.1666560
886.4166, 3.084045
886.8987, 1.449127
887.3808, 1.840652
887.8629, 4.555481
888.3450, 6.467987
888.8271, 8.876221
889.3093, 12.37912
889.7914, 14.71585
890.2735, 13.92084
890.7556, 10.87585
891.2377, 8.601715
891.7198, 7.113739
892.2020, 6.665451
892.6841, 8.409103
893.1662, 10.32622
893.6483, 11.13036
894.1304, 10.89848
894.6125, 10.28513
895.0947, 8.820709
895.5768, 8.071274
896.0589, 8.725311
896.5410, 10.10866
897.0231, 10.51166
897.5052, 10.03084
897.9874, 9.201813
898.4695, 7.957520
898.9516, 6.738953
899.4337, 5.403503
899.9158, 4.880142
900.3979, 6.058456
900.8801, 13.22821
901.3622, 15.90080
901.8443, 11.17419
902.3264, 4.897980
902.8085, 5.337463
903.2906, 11.65651
903.7728, 14.00369
904.2549, 10.90747
904.7370, 7.064072
905.2191, 6.541153
905.7012, 7.596863
906.1833, 8.440659
906.6655, 8.801987
907.1476, 9.432495
907.6297, 11.16554
908.1118, 12.19847
908.5939, 10.86621
909.0760, 7.430420
909.5582, 7.685333
910.0403, 11.61871
910.5224, 15.25525
911.0045, 15.74046
911.4866, 14.73737
911.9688, 13.71719
912.4509, 12.66904
912.9330, 11.26613
913.4151, 8.332642
913.8972, 7.044327
914.3793, 8.832077
914.8615, 12.33749
915.3436, 13.71884
915.8257, 13.04266
916.3078, 12.30209
916.7899, 11.91420
917.2720, 11.98697
917.7542, 13.42754
918.2363, 15.25397
918.7184, 15.85384
919.2005, 14.09871
919.6826, 12.12611
920.1647, 9.512482
920.6469, 7.357910
921.1290, 7.241455
921.6111, 9.297424
922.0932, 9.458710
922.5753, 7.230438
923.0574, 5.127563
923.5396, 5.958542
924.0217, 8.009018
924.5038, 9.501526
924.9859, 10.33078
925.4680, 9.624649
925.9501, 4.018387
926.4323, 0.1749110
926.9144, 1.507187
927.3965, 7.267456
927.8786, 10.19510
928.3607, 10.28427
928.8428, 8.946213
929.3250, 5.544754
929.8071, 2.378693
930.2892, 2.736130
930.7713, 5.473663
931.2534, 7.720505
931.7355, 9.281219
932.2177, 9.198425
932.6998, 6.265305
933.1819, 2.593094
933.6640, 2.041229
934.1461, 4.562302
934.6282, 6.231232
935.1104, 6.294220
935.5925, 5.531250
936.0746, 3.642120
936.5567, 1.956192
937.0388, 2.581787
937.5209, 7.013794
938.0031, 9.489731
938.4852, 8.203400
938.9673, 5.888657
939.4494, 3.812592
939.9315, 2.027710
940.4136, 1.212372
940.8958, 1.357407
941.3779, 2.322495
941.8600, 4.448532
942.3421, 6.960785
942.8242, 10.02177
943.3063, 13.08521
943.7885, 13.86363
944.2706, 8.965851
944.7527, 5.526352
945.2348, 5.591370
945.7169, 7.629013
946.1990, 8.484116
946.6812, 8.261093
947.1633, 7.822952
947.6454, 7.278320
948.1275, 6.963928
948.6096, 7.820007
949.0917, 8.781540
949.5739, 8.461960
950.0560, 5.420074
950.5381, 3.569275
951.0202, 3.099625
951.5023, 3.531525
951.9844, 5.222672
952.4666, 7.668945
952.9487, 7.378632
953.4308, 4.405899
953.9129, 1.852280
954.3950, 2.503494
954.8771, 3.820908
955.3593, 3.935059
955.8414, 2.932999
956.3235, 2.688141
956.8056, 3.786972
957.2877, 4.257263
957.7698, 3.183060
958.2520, 1.589111
958.7341, 2.029816
959.2162, 3.923950
959.6983, 5.554749
960.1804, 6.683990
960.6625, 6.720810
961.1447, 3.834885
961.6268, 0.4702910
962.1089, 0.3077850
962.5910, 2.677017
963.0731, 4.977341
963.5552, 6.678589
964.0374, 7.198990
964.5195, 4.464905
965.0016, 0.6479950
965.4837, 1.216324
965.9658, 6.128433
966.4479, 9.875031
966.9301, 8.771530
967.4122, 6.514816
967.8943, 4.665558
968.3764, 3.218765
968.8585, 2.111145
969.3406, 1.342728
969.8228, 0.7671810
970.3049, 0.2237850
970.7870, 3.2501001E-02
971.2691, 0.7959590
971.7512, 2.191299
972.2333, 3.673340
972.7155, 5.517120
973.1976, 6.671066
973.6797, 7.054642
974.1618, 6.619370
974.6439, 4.761032
975.1260, 1.453918
975.6082, 0.3614500
976.0903, 1.674927
976.5724, 3.599655
977.0545, 5.481720
977.5366, 6.699387
978.0187, 5.953232
978.5008, 3.492874
978.9829, 2.621170
979.4650, 5.191330
979.9471, 6.935410
980.4293, 6.268143
980.9114, 4.481216
981.3935, 5.098190
981.8756, 7.531265
982.3577, 9.136185
982.8398, 8.975754
983.3220, 7.996933
983.8041, 6.140579
984.2862, 4.138840
984.7683, 2.990509
985.2504, 3.042221
985.7325, 3.090683
986.2147, 2.999985
986.6968, 3.092560
987.1789, 3.867599
987.6610, 4.902435
988.1431, 5.167908
988.6252, 4.734131
989.1074, 4.239212
989.5895, 3.824188
990.0716, 3.602585
990.5537, 3.551392
991.0358, 3.738693
991.5179, 4.714050
992.0001, 6.635986
992.4822, 7.170837
992.9643, 5.416290
993.4464, 3.129135
993.9285, 2.541077
994.4106, 2.765656
994.8928, 2.437958
995.3749, 0.8101040
995.8570, 7.0266999E-02
996.3391, 1.125626
996.8212, 2.251160
997.3033, 2.304214
997.7855, 1.399216
998.2676, 0.5324250
998.7497, 0.2521360
999.2318, 0.5207520
999.7139, 0.9471590
1000.196, 2.124512
1000.678, 0.6871340
1001.160, 2.156113
1001.642, 2.644119
1002.125, 0.4867860
1002.607, 3.228073
1003.089, 5.116089
1003.571, 6.108795
1004.053, 5.722763
1004.535, 4.474777
1005.017, 3.563629
1005.499, 3.209030
1005.981, 2.948273
1006.464, 2.763901
1006.946, 2.388947
1007.428, 1.342880
1007.910, 0.2780000
1008.392, 0.2510680
1008.874, 3.104965
1009.356, 5.005875
1009.838, 3.507950
1010.320, 1.207947
1010.803, 1.289124
1011.285, 2.842773
1011.767, 4.031830
1012.249, 4.423157
1012.731, 4.250610
1013.213, 3.144897
1013.695, 2.059937
1014.177, 1.830872
1014.660, 2.506378
1015.142, 5.252975
1015.624, 10.09395
1016.106, 13.00648
1016.588, 9.372604
1017.070, 4.571686
1017.552, 1.999786
1018.034, 1.579285
1018.516, 1.385971
1018.999, 1.333969
1019.481, 2.060654
1019.963, 4.252853
1020.445, 6.329697
1020.927, 5.188446
1021.409, 2.252960
1021.891, 0.2350010
1022.373, 0.2759860
1022.856, 0.1068880
1023.338, 1.564026
1023.820, 2.755020
1024.302, 1.763748
1024.784, 1.287506
1025.266, 2.569107
1025.748, 2.170639
1026.230, 1.902924
1026.713, 3.543793
1027.195, 5.145966
1027.677, 4.974197
1028.159, 3.599548
1028.641, 2.754791
1029.123, 2.730225
1029.605, 2.734772
1030.087, 2.631104
1030.569, 2.592972
1031.052, 2.994370
1031.534, 3.600479
1032.016, 3.943161
1032.498, 3.961868
1032.980, 3.704559
1033.462, 3.011749
1033.944, 2.223724
1034.426, 1.270386
1034.908, 0.3397520
1035.391, 0.8111570
1035.873, 2.616684
1036.355, 4.356064
1036.837, 5.781738
1037.319, 6.326096
1037.801, 4.402985
1038.283, 1.657227
1038.765, 0.5276790
1039.248, 2.490738
1039.730, 3.681900
1040.212, 4.047592
1040.694, 3.796829
1041.176, 2.830521
1041.658, 1.460892
1042.140, 0.1311340
1042.622, 0.9843440
1043.104, 1.071106
1043.587, 1.268707
1044.069, 3.707047
1044.551, 5.940323
1045.033, 7.493027
1045.515, 6.767914
1045.997, 3.816284
1046.479, 2.420853
1046.961, 3.479019
1047.443, 4.612930
1047.926, 3.188141
1048.408, 1.156708
1048.890, 0.2963410
1049.372, 0.9692230
1049.854, 2.326935
1050.336, 4.874100
1050.818, 6.773483
1051.300, 6.895203
1051.783, 6.280502
1052.265, 7.634720
1052.747, 9.870911
1053.229, 10.57663
1053.711, 7.735489
1054.193, 5.416428
1054.675, 4.312531
1055.157, 4.507019
1055.640, 6.947968
1056.122, 11.55476
1056.604, 12.69412
1057.086, 10.38620
1057.568, 7.251114
1058.050, 3.478210
1058.532, 0.9296420
1059.014, 1.927307
1059.496, 5.290482
1059.979, 6.928497
1060.461, 5.893631
1060.943, 5.369415
1061.425, 5.919174
1061.907, 6.784271
1062.389, 7.502426
1062.871, 7.674118
1063.353, 6.162598
1063.835, 2.703583
1064.318, 0.4525150
1064.800, 1.481049
1065.282, 2.287064
1065.764, 1.349091
1066.246, 0.4318850
1066.728, 3.0319000E-02
1067.210, 2.222290
1067.692, 3.479874
1068.175, 2.286148
1068.657, 1.483826
1069.139, 3.884293
1069.621, 6.759644
1070.103, 7.271347
1070.585, 5.021118
1071.067, 3.016922
1071.549, 1.171738
1072.031, 0.4878690
1072.514, 2.613495
1072.996, 5.213486
1073.478, 5.193832
1073.960, 3.700089
1074.442, 3.598984
1074.924, 7.169815
1075.406, 9.225739
1075.888, 9.193069
1076.370, 7.952789
1076.853, 5.719208
1077.335, 3.244339
1077.817, 2.907990
1078.299, 4.712585
1078.781, 5.695999
1079.263, 3.113342
1079.745, 0.9889980
1080.227, 1.188095
1080.709, 2.708054
1081.192, 2.855270
1081.674, 1.813980
1082.156, 1.883286
1082.638, 3.891891
1083.120, 5.808899
1083.602, 6.172592
1084.084, 5.628708
1084.566, 4.466797
1085.049, 2.656158
1085.531, 1.871323
1086.013, 2.323029
1086.495, 2.571136
1086.977, 1.643158
1087.459, 0.5450740
1087.941, 0.9237060
1088.423, 2.153015
1088.906, 3.123703
1089.388, 3.524368
1089.870, 3.622284
1090.352, 3.425568
1090.834, 2.963730
1091.316, 1.998016
1091.798, 0.9040680
1092.280, 0.5356600
1092.762, 0.7979580
1093.245, 1.544006
1093.727, 3.207794
1094.209, 4.675415
1094.691, 5.319397
1095.173, 5.723923
1095.655, 7.013000
1096.137, 9.088943
1096.619, 9.593292
1097.101, 8.222733
1097.584, 7.077652
1098.066, 7.832397
1098.548, 8.968796
1099.030, 10.23320
1099.512, 11.14238
1099.994, 8.981903
1100.476, 2.760696
1100.958, 1.363251
1101.441, 1.595184
1101.923, 1.8417001E-02
1102.405, 2.040359
1102.887, 3.842239
1103.369, 4.191666
1103.851, 2.446045
1104.333, 2.533310
1104.815, 6.104645
1105.297, 8.100616
1105.780, 5.363602
1106.262, 0.3852230
1106.744, 0.8514250
1107.226, 0.5304570
1107.708, 1.884903
1108.190, 2.669617
1108.672, 2.635986
1109.154, 0.6546170
1109.636, 0.9447780
1110.119, 0.1611940
1110.601, 2.676285
1111.083, 4.517639
1111.565, 5.479507
1112.047, 6.402969
1112.529, 8.833801
1113.011, 10.11972
1113.493, 7.055023
1113.976, 3.039612
1114.458, 3.606277
1114.940, 9.390549
1115.422, 12.27913
1115.904, 11.67758
1116.386, 9.622177
1116.868, 5.758209
1117.350, 2.872604
1117.833, 4.914780
1118.315, 10.41095
1118.797, 11.98650
1119.279, 8.306625
1119.761, 5.078964
1120.243, 3.274353
1120.725, 2.233536
1121.207, 1.170685
1121.689, 0.4054570
1122.172, 0.5812840
1122.654, 1.810837
1123.136, 2.413712
1123.618, 1.759552
1124.100, 1.375687
1124.582, 1.901199
1125.064, 2.888855
1125.546, 3.566162
1126.028, 3.994995
1126.511, 4.324387
1126.993, 4.636688
1127.475, 4.691437
1127.957, 4.689590
1128.439, 4.004913
1128.921, 1.811264
1129.403, 1.175720
1129.885, 1.909531
1130.368, 0.6485440
1130.850, 1.597015
1131.332, 5.851440
1131.814, 8.431961
1132.296, 5.519302
1132.778, 1.836533
1133.260, 1.683456
1133.742, 5.156662
1134.224, 6.521332
1134.707, 5.911957
1135.189, 5.300568
1135.671, 6.911102
1136.153, 7.836929
1136.635, 4.872482
1137.117, 0.5791320
1137.599, 0.5941310
1138.081, 2.102966
1138.563, 3.612183
1139.046, 3.586411
1139.528, 3.680725
1140.010, 6.244171
1140.492, 8.719986
1140.974, 8.041245
1141.456, 5.179932
1141.938, 4.072479
1142.420, 5.574097
1142.903, 6.583786
1143.385, 6.621735
1143.867, 6.475922
1144.349, 7.652924
1144.831, 8.759506
1145.313, 7.269562
1145.795, 3.335068
1146.277, 1.539566
1146.760, 3.555679
1147.242, 5.001999
1147.724, 4.913361
1148.206, 3.785385
1148.688, 1.215851
1149.170, 1.451279
1149.652, 1.105850
1150.134, 3.069458
1150.616, 5.645233
1151.099, 3.898087
1151.581, 2.597870
1152.063, 3.608994
1152.545, 5.781296
1153.027, 6.916367
1153.509, 6.957916
1153.991, 5.330399
1154.473, 1.106155
1154.955, 1.784683
1155.438, 1.772308
1155.920, 8.8684000E-02
1156.402, 3.451721
1156.884, 8.033310
1157.366, 10.28281
1157.848, 10.43663
1158.330, 9.331543
1158.812, 6.240372
1159.295, 3.821259
1159.777, 4.225952
1160.259, 4.973404
1160.741, 4.060257
1161.223, 1.654800
1161.705, 0.8452150
1162.187, 1.468201
1162.669, 2.097931
1163.151, 1.599503
1163.634, 1.375443
1164.116, 2.363022
1164.598, 3.829834
1165.080, 5.095612
1165.562, 6.065491
1166.044, 7.474655
1166.526, 9.308823
1167.008, 10.59763
1167.490, 10.04468
1167.973, 9.440186
1168.455, 10.44911
1168.937, 11.87527
1169.419, 11.39621
1169.901, 8.644348
1170.383, 7.114990
1170.865, 7.043228
1171.347, 7.710236
1171.830, 9.587982
1172.312, 11.03261
1172.794, 10.15904
1173.276, 7.770950
1173.758, 6.685059
1174.240, 7.265640
1174.722, 6.970490
1175.204, 5.300842
1175.687, 4.191864
1176.169, 6.395172
1176.651, 9.310257
1177.133, 10.78525
1177.615, 10.65369
1178.097, 9.035477
1178.579, 5.230118
1179.061, 3.029205
1179.543, 3.231689
1180.026, 4.754150
1180.508, 7.521576
1180.990, 10.18849
1181.472, 11.04285
1181.954, 9.995117
1182.436, 9.547012
1182.918, 10.14613
1183.400, 9.834381
1183.882, 7.790619
1184.365, 5.668869
1184.847, 5.811951
1185.329, 6.911835
1185.811, 7.664642
1186.293, 7.888428
1186.775, 7.018021
1187.257, 4.242859
1187.739, 2.891068
1188.222, 4.678635
1188.704, 7.268433
1189.186, 6.537582
1189.668, 4.749710
1190.150, 5.755539
1190.632, 11.19743
1191.114, 13.27969
1191.596, 10.49933
1192.078, 8.194244
1192.561, 8.637573
1193.043, 10.32539
1193.525, 11.21941
1194.007, 11.34732
1194.489, 10.60339
1194.971, 8.466888
1195.453, 7.138718
1195.935, 6.795013
1196.417, 7.347397
1196.900, 9.351364
1197.382, 11.56062
1197.864, 11.64282
1198.346, 10.26115
1198.828, 8.477951
1199.310, 5.892822
1199.792, 4.769974
1200.274, 5.560486
1200.757, 6.749191
1201.239, 8.017944
1201.721, 8.595978
1202.203, 6.162323
1202.685, 2.157120
1203.167, 0.4370730
1203.649, 0.6192320
1204.131, 0.6464840
1204.614, 4.051544
1205.096, 7.180862
1205.578, 7.484772
1206.060, 6.653015
1206.542, 9.052490
1207.024, 12.72989
1207.506, 13.48929
1207.988, 5.656601
1208.470, 2.482574
1208.953, 5.743713
1209.435, 9.243027
1209.917, 6.966095
1210.399, 2.410553
1210.881, 2.431274
1211.363, 5.397110
1211.845, 6.861328
1212.327, 4.238007
1212.809, 2.107361
1213.292, 0.6375120
1213.774, 0.2553860
1214.256, 1.702362
1214.738, 3.997543
1215.220, 6.005997
1215.702, 7.506805
1216.184, 7.792862
1216.666, 5.435577
1217.149, 4.572815
1217.631, 5.859467
1218.113, 7.248749
1218.595, 6.637695
1219.077, 5.075195
1219.559, 3.369476
1220.041, 2.054718
1220.523, 2.941071
1221.005, 8.254211
1221.488, 10.92946
1221.970, 9.933853
1222.452, 8.081284
1222.934, 8.635834
1223.416, 9.582611
1223.898, 6.942825
1224.380, 2.134262
1224.862, 1.483459
1225.344, 7.705109
1225.827, 11.61983
1226.309, 11.99500
1226.791, 11.24255
1227.273, 11.74593
1227.755, 12.43489
1228.237, 11.96773
1228.719, 10.53380
1229.201, 9.110794
1229.684, 7.265656
1230.166, 7.646103
1230.648, 11.02716
1231.130, 13.93210
1231.612, 11.99335
1232.094, 8.721268
1232.576, 8.134918
1233.058, 9.528687
1233.541, 8.619690
1234.023, 4.433472
1234.505, 2.383804
1234.987, 3.327896
1235.469, 5.210236
1235.951, 6.803787
1236.433, 7.889725
1236.915, 8.085785
1237.397, 7.579559
1237.880, 7.303650
1238.362, 7.329193
1238.844, 6.921265
1239.326, 5.926346
1239.808, 5.059189
1240.290, 5.716507
1240.772, 6.094055
1241.254, 3.639130
1241.736, 0.1787260
1242.219, 0.6966400
1242.701, 2.160828
1243.183, 4.006592
1243.665, 4.198822
1244.147, 4.917160
1244.629, 9.938217
1245.111, 13.99696
1245.593, 12.41451
1246.076, 7.769684
1246.558, 5.509949
1247.040, 5.465775
1247.522, 5.738602
1248.004, 6.094345
1248.486, 5.601776
1248.968, 1.528183
1249.450, 1.055298
1249.932, 1.036850
1250.415, 5.506912
1250.897, 8.029190
1251.379, 8.783569
1251.861, 8.711517
1252.343, 7.876556
1252.825, 6.644897
1253.307, 4.301437
1253.789, 2.528900
1254.271, 1.951172
1254.754, 2.156998
1255.236, 2.720810
1255.718, 3.414993
1256.200, 3.247650
1256.682, 2.148407
1257.164, 1.777664
1257.646, 3.877289
1258.128, 5.284607
1258.611, 5.006454
1259.093, 4.162750
1259.575, 4.909485
1260.057, 6.235992
1260.539, 6.007523
1261.021, 4.064392
1261.503, 1.840759
1261.985, 1.391525
1262.468, 2.656784
1262.950, 1.048416
1263.432, 1.918503
1263.914, 5.177185
1264.396, 7.795639
1264.878, 7.824387
1265.360, 5.408249
1265.842, 4.236206
1266.324, 5.077454
1266.807, 5.248993
1267.289, 3.939575
1267.771, 3.262115
1268.253, 7.452881
1268.735, 12.00357
1269.217, 11.36835
1269.699, 6.222473
1270.181, 3.602982
1270.663, 3.858673
1271.146, 4.653580
1271.628, 5.584824
1272.110, 6.235168
1272.592, 5.457474
1273.074, 4.388626
1273.556, 3.694016
1274.038, 3.486008
1274.520, 4.264618
1275.002, 5.989105
1275.485, 6.779724
1275.967, 6.796799
1276.449, 6.140350
1276.931, 4.377014
1277.413, 2.683517
1277.895, 1.290527
1278.377, 0.6159520
1278.859, 1.732620
1279.342, 4.241547
1279.824, 6.399963
1280.306, 7.948608
1280.788, 7.866608
1281.270, 2.868210
1281.752, 0.9315490
1282.234, 0.3253480
1282.716, 3.836060
1283.198, 6.006195
1283.681, 7.246933
1284.163, 8.636658
1284.645, 10.13962
1285.127, 10.81392
1285.609, 9.714478
1286.091, 8.895187
1286.573, 8.721100
1287.055, 8.650070
1287.537, 8.344604
1288.020, 7.600937
1288.502, 5.143906
1288.984, 1.739746
1289.466, 1.094437
1289.948, 4.495621
1290.430, 7.268448
1290.912, 8.739929
1291.394, 8.542847
1291.877, 7.405609
1292.359, 5.939346
1292.841, 4.776611
1293.323, 3.857437
1293.805, 2.716217
1294.287, 1.216354
1294.769, 1.154236
1295.251, 2.422989
1295.734, 4.939407
1296.216, 11.01849
1296.698, 14.73557
1297.180, 9.959671
1297.662, 2.561584
1298.144, 0.1820220
1298.626, 1.422821
1299.108, 3.307495
1299.590, 3.069595
1300.073, 2.105804
1300.555, 0.0000000E+00
##END=



