##NAMES=Kostovite
##RRUFFID=R070282
##IDEAL CHEMISTRY=AuCuTe_4_
##LOCALITY=Chelopech mine, Chelopech Obshchina, Balkan Mts, Sofiya Oblast, Bulgaria
##OWNER=RRUFF
##SOURCE=Michael Scott
##DESCRIPTION=Dark gray metallic fragment embedded in epoxy. Portion of type sample
##STATUS=The identification of this mineral has been confirmed only by chemical analysis
##URL=rruff.info/R070282
##MEASURED CHEMISTRY=Au_1.00_(Cu_0.85_Ag_0.28_)_Î£=1.13_Te_4_ ; normalized to Te_4_
184.1767, 0.0000000E+00
184.6588, 21.73535
185.1409, 0.6787110
185.6230, 19.17773
186.1051, 55.04395
186.5873, 87.45020
187.0694, 106.1182
187.5515, 109.7559
188.0336, 94.83203
188.5157, 38.09277
188.9978, 4.350586
189.4800, 35.79785
189.9621, 73.76660
190.4442, 95.94824
190.9263, 86.48828
191.4084, 59.10840
191.8905, 48.89941
192.3727, 74.74121
192.8548, 83.97852
193.3369, 53.94824
193.8190, 12.48340
194.3011, 13.31152
194.7832, 12.58594
195.2654, 4.686523
195.7475, 16.23730
196.2296, 15.88379
196.7117, 21.99805
197.1938, 42.70703
197.6759, 66.75000
198.1581, 86.11133
198.6402, 96.44043
199.1223, 98.75000
199.6044, 90.30762
200.0865, 57.01953
200.5686, 48.44922
201.0508, 94.87305
201.5329, 148.0928
202.0150, 162.0117
202.4971, 126.8037
202.9792, 75.77344
203.4613, 68.84570
203.9435, 142.6895
204.4256, 178.4941
204.9077, 144.3955
205.3898, 95.33008
205.8719, 69.42188
206.3540, 72.79004
206.8362, 85.93750
207.3183, 85.47852
207.8004, 60.96777
208.2825, 49.58887
208.7646, 61.52344
209.2467, 78.89551
209.7289, 93.13086
210.2110, 105.0830
210.6931, 104.5527
211.1752, 82.24414
211.6573, 26.68555
212.1395, 4.453125
212.6216, 9.377930
213.1037, 28.24707
213.5858, 34.83594
214.0679, 27.91211
214.5500, 14.11719
215.0322, 1.893555
215.5143, 21.87305
215.9964, 31.71387
216.4785, 24.56445
216.9606, 14.03516
217.4427, 2.900391
217.9249, 7.572266
218.4070, 16.43164
218.8891, 23.51074
219.3712, 28.95508
219.8533, 27.39551
220.3354, 4.436523
220.8176, 11.65332
221.2997, 9.501953
221.7818, 5.532227
222.2639, 22.01855
222.7460, 31.75684
223.2281, 35.71094
223.7103, 42.42090
224.1924, 63.75684
224.6745, 74.32910
225.1566, 63.25000
225.6387, 39.31738
226.1208, 14.66211
226.6030, 4.286133
227.0851, 17.45508
227.5672, 24.80664
228.0493, 28.41113
228.5314, 21.89551
229.0135, 7.488281
229.4957, 42.50195
229.9778, 62.32324
230.4599, 57.21387
230.9420, 36.66797
231.4241, 24.81152
231.9062, 31.79297
232.3884, 29.65625
232.8705, 4.131836
233.3526, 24.86230
233.8347, 37.37402
234.3168, 27.32227
234.7989, 8.544922
235.2811, 7.740234
235.7632, 40.44238
236.2453, 53.50000
236.7274, 27.73145
237.2095, 6.281250
237.6916, 29.17773
238.1738, 37.00195
238.6559, 37.77246
239.1380, 39.61816
239.6201, 40.89551
240.1022, 49.84961
240.5843, 74.58203
241.0665, 100.6318
241.5486, 124.7285
242.0307, 141.2598
242.5128, 149.0977
242.9949, 139.9248
243.4770, 111.6650
243.9592, 96.45215
244.4413, 110.9961
244.9234, 123.3164
245.4055, 123.3135
245.8876, 111.4248
246.3697, 89.79785
246.8519, 52.20898
247.3340, 3.621094
247.8161, 8.194336
248.2982, 49.69336
248.7803, 101.7041
249.2624, 120.3525
249.7446, 116.6270
250.2267, 108.4346
250.7088, 104.6924
251.1909, 103.5098
251.6730, 99.71680
252.1551, 93.09570
252.6373, 82.73438
253.1194, 61.39941
253.6015, 39.39160
254.0836, 29.05664
254.5657, 35.71191
255.0478, 52.22656
255.5300, 70.41797
256.0121, 93.35547
256.4942, 105.8564
256.9763, 93.63477
257.4584, 74.77637
257.9406, 61.74316
258.4227, 57.20312
258.9048, 56.26465
259.3869, 49.51074
259.8690, 35.98926
260.3511, 41.49805
260.8333, 92.54688
261.3154, 145.3193
261.7975, 167.7920
262.2796, 159.7236
262.7617, 142.5195
263.2438, 125.0225
263.7260, 109.0977
264.2081, 107.0664
264.6902, 126.2920
265.1723, 150.7070
265.6544, 170.5010
266.1365, 186.0010
266.6187, 197.4365
267.1008, 204.9697
267.5829, 208.5195
268.0650, 206.1201
268.5471, 195.3838
269.0292, 186.4336
269.5114, 194.0273
269.9935, 207.4150
270.4756, 206.7275
270.9577, 169.6143
271.4398, 130.0166
271.9219, 135.1016
272.4041, 186.5020
272.8862, 226.3506
273.3683, 215.4922
273.8504, 179.2900
274.3325, 168.8262
274.8146, 198.3652
275.2968, 232.0918
275.7789, 245.7803
276.2610, 243.1621
276.7431, 239.3486
277.2252, 238.0879
277.7073, 240.1406
278.1895, 245.7051
278.6716, 253.1670
279.1537, 268.2715
279.6358, 302.9658
280.1179, 344.3652
280.6000, 368.6953
281.0822, 369.5273
281.5643, 360.6221
282.0464, 354.9277
282.5285, 351.8164
283.0106, 360.0859
283.4927, 391.9668
283.9749, 428.5986
284.4570, 456.0703
284.9391, 472.3125
285.4212, 474.5449
285.9033, 453.6104
286.3854, 411.5273
286.8676, 406.2070
287.3497, 471.0713
287.8318, 536.1914
288.3139, 565.8545
288.7960, 568.1270
289.2781, 569.3516
289.7603, 585.6846
290.2424, 609.5166
290.7245, 607.7383
291.2066, 530.1172
291.6887, 489.7920
292.1708, 535.6025
292.6530, 617.2354
293.1351, 671.3896
293.6172, 675.5859
294.0993, 651.8613
294.5814, 639.1982
295.0635, 644.7422
295.5457, 647.6123
296.0278, 645.9688
296.5099, 643.1826
296.9920, 637.5820
297.4741, 631.3828
297.9562, 634.0254
298.4384, 658.6426
298.9205, 711.6377
299.4026, 741.6699
299.8847, 725.4229
300.3668, 710.2715
300.8489, 713.5186
301.3311, 730.6396
301.8131, 750.0811
302.2953, 765.2422
302.7774, 775.5166
303.2595, 776.3125
303.7416, 751.6660
304.2237, 741.8682
304.7058, 773.6465
305.1880, 814.8770
305.6701, 826.6396
306.1522, 793.8711
306.6343, 744.0488
307.1164, 725.8066
307.5985, 750.9707
308.0807, 763.7832
308.5628, 731.8535
309.0449, 700.4531
309.5270, 703.8965
310.0091, 742.3564
310.4912, 779.5430
310.9734, 779.4473
311.4555, 745.9639
311.9376, 723.3906
312.4197, 723.5801
312.9018, 722.0674
313.3839, 694.8936
313.8661, 653.3574
314.3482, 627.7998
314.8303, 638.9287
315.3124, 671.2793
315.7945, 703.9814
316.2766, 740.2725
316.7588, 757.2012
317.2409, 728.5654
317.7230, 676.3545
318.2051, 636.4189
318.6872, 613.7266
319.1693, 602.7178
319.6515, 603.2920
320.1336, 613.4951
320.6157, 624.5254
321.0978, 633.3477
321.5799, 641.7939
322.0620, 652.1230
322.5442, 663.4121
323.0263, 679.6943
323.5084, 718.9961
323.9905, 756.8301
324.4726, 753.4951
324.9547, 702.5479
325.4369, 644.4922
325.9190, 618.3164
326.4011, 627.9688
326.8832, 631.9805
327.3653, 618.0713
327.8474, 609.9199
328.3296, 628.1982
328.8117, 664.5977
329.2938, 692.4121
329.7759, 694.9785
330.2580, 678.9502
330.7401, 674.5488
331.2223, 698.7900
331.7044, 713.5605
332.1865, 709.8203
332.6686, 697.0361
333.1507, 682.8574
333.6328, 670.4043
334.1150, 662.6475
334.5971, 665.1035
335.0792, 683.6035
335.5613, 696.5840
336.0434, 696.7393
336.5255, 698.4961
337.0077, 714.8252
337.4898, 740.5859
337.9719, 758.9268
338.4540, 756.1992
338.9361, 733.9805
339.4182, 704.8018
339.9004, 655.5449
340.3825, 619.8447
340.8646, 610.7129
341.3467, 617.6631
341.8288, 631.0371
342.3109, 647.2246
342.7931, 662.8262
343.2752, 673.4238
343.7573, 678.3359
344.2394, 681.6689
344.7215, 677.9043
345.2036, 679.3105
345.6858, 699.7754
346.1679, 737.9229
346.6500, 771.3350
347.1321, 789.5283
347.6142, 796.1670
348.0963, 792.1992
348.5785, 772.9385
349.0606, 762.4170
349.5427, 784.4902
350.0248, 829.5635
350.5069, 872.6191
350.9890, 916.5137
351.4712, 952.8145
351.9533, 969.9453
352.4354, 971.8135
352.9175, 977.3525
353.3996, 995.6602
353.8817, 1023.287
354.3639, 1051.137
354.8460, 1078.543
355.3281, 1101.646
355.8102, 1129.699
356.2923, 1152.447
356.7744, 1143.180
357.2566, 1098.379
357.7387, 1064.867
358.2208, 1102.631
358.7029, 1232.423
359.1850, 1324.347
359.6671, 1372.751
360.1493, 1396.332
360.6314, 1376.366
361.1135, 1339.215
361.5956, 1340.482
362.0777, 1415.741
362.5598, 1539.738
363.0420, 1624.390
363.5241, 1636.359
364.0062, 1664.229
364.4883, 1737.672
364.9704, 1817.544
365.4525, 1867.681
365.9347, 1881.668
366.4168, 1884.567
366.8989, 1901.130
367.3810, 1931.966
367.8631, 1981.824
368.3452, 2075.562
368.8274, 2156.610
369.3095, 2187.859
369.7916, 2186.139
370.2737, 2192.160
370.7558, 2230.567
371.2379, 2282.822
371.7201, 2312.285
372.2022, 2315.370
372.6843, 2335.108
373.1664, 2408.474
373.6485, 2495.749
374.1306, 2538.850
374.6128, 2530.001
375.0949, 2499.332
375.5770, 2444.697
376.0591, 2382.384
376.5412, 2354.213
377.0233, 2373.351
377.5055, 2391.572
377.9876, 2355.177
378.4697, 2255.947
378.9518, 2167.894
379.4339, 2113.497
379.9160, 2051.980
380.3982, 1947.624
380.8803, 1815.232
381.3624, 1702.048
381.8445, 1635.825
382.3266, 1597.772
382.8087, 1529.902
383.2909, 1410.776
383.7730, 1287.864
384.2551, 1148.044
384.7372, 1014.413
385.2193, 905.4150
385.7014, 823.9688
386.1836, 760.6250
386.6657, 707.6650
387.1478, 665.7021
387.6299, 621.8428
388.1120, 586.0537
388.5941, 535.7480
389.0763, 445.1982
389.5584, 339.5947
390.0405, 260.4219
390.5226, 226.9521
391.0047, 220.9102
391.4868, 215.5703
391.9690, 210.9922
392.4511, 203.4990
392.9332, 194.2832
393.4153, 179.3633
393.8974, 151.3301
394.3795, 110.4570
394.8617, 77.47656
395.3438, 65.40527
395.8259, 66.65820
396.3080, 72.26660
396.7901, 82.14551
397.2722, 84.66211
397.7544, 70.77637
398.2365, 42.05469
398.7186, 10.91504
399.2007, 34.02539
399.6828, 68.35059
400.1649, 77.83301
400.6471, 71.55273
401.1292, 62.69141
401.6113, 55.51172
402.0934, 51.22559
402.5755, 56.74316
403.0576, 81.57031
403.5398, 82.22656
404.0219, 31.90527
404.5040, 14.28906
404.9861, 29.39844
405.4682, 17.68750
405.9503, 7.858398
406.4325, 40.00586
406.9146, 73.79980
407.3967, 82.73828
407.8788, 52.57324
408.3609, 26.50000
408.8430, 11.76758
409.3252, 4.820313
409.8073, 4.193359
410.2894, 9.278320
410.7715, 17.14062
411.2536, 30.72656
411.7357, 46.90723
412.2179, 40.77441
412.7000, 1.825195
413.1821, 36.95215
413.6642, 18.55566
414.1463, 27.58398
414.6284, 51.67871
415.1106, 31.92676
415.5927, 1.541992
416.0748, 19.13574
416.5569, 30.86914
417.0390, 32.86914
417.5211, 23.06152
418.0033, 8.444336
418.4854, 2.485352
418.9675, 11.26855
419.4496, 8.511719
419.9317, 21.36133
420.4138, 50.99121
420.8960, 57.57617
421.3781, 45.89648
421.8602, 32.70898
422.3423, 28.47266
422.8244, 32.43750
423.3065, 41.81934
423.7887, 69.58887
424.2708, 82.76953
424.7529, 63.84863
425.2350, 39.98730
425.7171, 36.09473
426.1992, 53.69531
426.6814, 76.12695
427.1635, 88.73926
427.6456, 92.35547
428.1277, 97.05273
428.6098, 106.0186
429.0919, 109.1406
429.5741, 91.95117
430.0562, 68.06055
430.5383, 58.60840
431.0204, 72.06934
431.5025, 93.73730
431.9846, 117.9883
432.4668, 142.1445
432.9489, 158.2471
433.4310, 163.7451
433.9131, 158.3838
434.3952, 134.4268
434.8773, 89.08105
435.3595, 71.48828
435.8416, 112.1582
436.3237, 157.6006
436.8058, 176.1855
437.2879, 172.9902
437.7701, 162.5068
438.2522, 151.0029
438.7343, 141.7402
439.2164, 142.4639
439.6985, 163.1719
440.1806, 175.9893
440.6628, 177.6309
441.1449, 174.5947
441.6270, 170.5918
442.1091, 165.8896
442.5912, 158.4805
443.0733, 144.4014
443.5555, 127.4746
444.0376, 125.2051
444.5197, 144.8818
445.0018, 158.7090
445.4839, 144.3281
445.9660, 124.9756
446.4482, 127.9189
446.9303, 160.0801
447.4124, 185.9707
447.8945, 169.5840
448.3766, 134.3613
448.8587, 136.3076
449.3409, 185.4248
449.8230, 234.1729
450.3051, 244.3447
450.7872, 219.3652
451.2693, 201.7695
451.7514, 189.3740
452.2336, 186.1689
452.7157, 202.9453
453.1978, 226.3457
453.6799, 234.9238
454.1620, 223.4648
454.6441, 208.3760
455.1263, 212.4297
455.6084, 240.8145
456.0905, 258.7109
456.5726, 259.6768
457.0547, 254.0186
457.5368, 245.5186
458.0190, 234.0928
458.5011, 215.9004
458.9832, 187.3652
459.4653, 108.3154
459.9474, 170.6475
460.4295, 204.4355
460.9117, 210.0508
461.3938, 109.0996
461.8759, 148.3262
462.3580, 134.7080
462.8401, 119.0596
463.3222, 179.8193
463.8044, 98.06641
464.2865, 154.5068
464.7686, 152.9463
465.2507, 176.3613
465.7328, 146.0293
466.2149, 134.2383
466.6971, 178.6562
467.1792, 192.6904
467.6613, 158.4385
468.1434, 187.2188
468.6255, 102.1680
469.1076, 115.6338
469.5898, 170.9619
470.0719, 136.9062
470.5540, 166.9219
471.0361, 174.7568
471.5182, 75.23633
472.0003, 158.6592
472.4825, 160.3320
472.9646, 80.69531
473.4467, 159.0479
473.9288, 93.43066
474.4109, 79.90820
474.8930, 105.3105
475.3752, 89.77539
475.8573, 137.6123
476.3394, 123.0059
476.8215, 102.2559
477.3036, 105.6406
477.7857, 42.39062
478.2679, 106.3984
478.7500, 84.21191
479.2321, 104.5469
479.7142, 134.1328
480.1963, 89.05273
480.6784, 122.8691
481.1606, 34.70898
481.6427, 49.48340
482.1248, 53.44629
482.6069, 122.3447
483.0890, 34.48145
483.5711, 45.26465
484.0533, 98.61719
484.5354, 93.56934
485.0175, 113.3301
485.4996, 60.21777
485.9817, 75.61230
486.4638, 72.22070
486.9460, 134.0391
487.4281, 144.0752
487.9102, 91.47754
488.3923, 38.86621
488.8744, 104.5625
489.3565, 58.78027
489.8387, 73.67188
490.3208, 26.36914
490.8029, 32.86621
491.2850, 38.49512
491.7671, 71.69434
492.2492, 21.13281
492.7314, 78.39648
493.2135, 72.52246
493.6956, 85.87500
494.1777, 97.54785
494.6598, 25.05371
495.1419, 21.53320
495.6241, 89.44238
496.1062, 104.6943
496.5883, 120.5625
497.0704, 130.4170
497.5525, 132.2910
498.0346, 130.9043
498.5168, 131.8066
498.9989, 134.5332
499.4810, 131.7510
499.9631, 110.2676
500.4452, 78.65332
500.9273, 74.69629
501.4095, 106.6367
501.8916, 130.5117
502.3737, 119.1436
502.8558, 93.57324
503.3379, 90.46289
503.8200, 118.2861
504.3022, 134.9238
504.7843, 113.1221
505.2664, 78.60547
505.7485, 58.27441
506.2306, 54.62305
506.7127, 65.13477
507.1949, 90.90332
507.6770, 125.6191
508.1591, 143.1660
508.6412, 135.7939
509.1233, 121.2607
509.6054, 86.56250
510.0876, 56.04492
510.5697, 49.48633
511.0518, 65.66602
511.5339, 90.34766
512.0161, 119.2285
512.4982, 145.5000
512.9803, 144.7969
513.4624, 111.0137
513.9445, 88.30664
514.4266, 98.79492
514.9088, 121.5283
515.3909, 129.9502
515.8730, 123.6328
516.3551, 112.6270
516.8372, 95.00977
517.3193, 76.77344
517.8015, 64.05664
518.2836, 57.07520
518.7657, 58.41992
519.2478, 69.72559
519.7299, 87.00586
520.2120, 97.41699
520.6942, 97.52148
521.1763, 95.76074
521.6584, 87.76660
522.1405, 82.88477
522.6226, 87.84473
523.1047, 98.60547
523.5869, 104.7969
524.0690, 101.4053
524.5511, 90.37109
525.0332, 68.62891
525.5153, 36.35059
525.9974, 22.97070
526.4796, 43.77441
526.9617, 70.92090
527.4438, 70.71777
527.9259, 46.72266
528.4080, 29.02930
528.8901, 23.66504
529.3723, 23.32715
529.8544, 28.80566
530.3365, 36.26270
530.8186, 39.61914
531.3007, 37.47754
531.7828, 30.73047
532.2650, 19.61328
532.7471, 2.054688
533.2292, 4.895508
533.7113, 4.676758
534.1934, 19.02637
534.6755, 37.01758
535.1577, 56.64648
535.6398, 77.31738
536.1219, 101.4238
536.6040, 116.8105
537.0861, 106.2900
537.5682, 78.35547
538.0504, 62.22168
538.5325, 62.79688
539.0146, 63.85742
539.4967, 54.52051
539.9788, 37.44629
540.4609, 27.58008
540.9431, 28.88867
541.4252, 29.55762
541.9073, 27.21387
542.3894, 22.88379
542.8715, 14.10449
543.3536, 3.185547
543.8358, 1.713867
544.3179, 21.67969
544.8000, 55.28223
545.2821, 64.86914
545.7642, 38.63770
546.2463, 20.38281
546.7285, 28.56250
547.2106, 44.53125
547.6927, 56.53027
548.1748, 63.30957
548.6569, 66.81543
549.1390, 68.30566
549.6211, 66.39844
550.1032, 53.50391
550.5853, 34.63770
551.0674, 29.05859
551.5496, 47.26953
552.0317, 68.42383
552.5138, 55.28027
552.9959, 10.89746
553.4780, 45.09277
553.9601, 29.07227
554.4423, 6.671875
554.9244, 2.401367
555.4065, 7.118164
555.8886, 27.35742
556.3707, 71.20605
556.8528, 112.3984
557.3350, 109.8184
557.8171, 70.70508
558.2992, 60.02441
558.7813, 93.85840
559.2634, 123.5459
559.7455, 112.7490
560.2277, 74.04785
560.7098, 48.87793
561.1919, 46.03320
561.6740, 45.00293
562.1561, 35.79883
562.6382, 27.42676
563.1204, 33.03906
563.6025, 50.95117
564.0846, 66.16797
564.5667, 67.70508
565.0488, 58.33594
565.5309, 48.41992
566.0131, 35.88867
566.4952, 27.95996
566.9773, 22.72461
567.4594, 25.39453
567.9415, 49.61719
568.4236, 87.92285
568.9058, 107.3936
569.3879, 82.54883
569.8700, 43.30762
570.3521, 15.68164
570.8342, 1.281250
571.3163, 10.69922
571.7985, 13.47559
572.2806, 8.631836
572.7627, 7.775391
573.2448, 39.00684
573.7269, 50.77344
574.2090, 21.25293
574.6912, 0.5537110
575.1733, 6.290039
575.6554, 22.62695
576.1375, 25.75879
576.6196, 11.18555
577.1017, 7.212891
577.5839, 24.48730
578.0660, 35.45117
578.5481, 13.83301
579.0302, 46.02637
579.5123, 89.68457
579.9944, 85.63770
580.4766, 56.70312
580.9587, 49.15430
581.4408, 71.14844
581.9229, 76.91895
582.4050, 41.39258
582.8871, 4.820313
583.3693, 7.947266
583.8514, 0.1513670
584.3335, 20.73926
584.8156, 51.44336
585.2977, 79.63086
585.7798, 80.26855
586.2620, 49.45508
586.7441, 37.86621
587.2262, 58.86230
587.7083, 81.12207
588.1904, 84.23633
588.6725, 77.58594
589.1547, 75.60840
589.6368, 79.73633
590.1189, 89.83887
590.6010, 116.9600
591.0831, 143.8584
591.5652, 144.7246
592.0474, 120.8740
592.5295, 92.74609
593.0116, 72.30273
593.4937, 62.12695
593.9758, 75.13379
594.4579, 136.2666
594.9401, 161.1016
595.4222, 103.1436
595.9043, 42.96777
596.3864, 14.47656
596.8685, 16.11230
597.3506, 42.11328
597.8328, 104.9316
598.3149, 162.7539
598.7970, 174.4336
599.2791, 152.0166
599.7612, 122.9150
600.2433, 92.25684
600.7255, 65.54785
601.2076, 46.34961
601.6897, 35.27051
602.1718, 37.57812
602.6539, 80.44922
603.1360, 98.95117
603.6182, 62.28711
604.1003, 20.37012
604.5824, 14.71680
605.0645, 40.71777
605.5466, 63.54297
606.0287, 60.67578
606.5109, 47.38184
606.9930, 46.49707
607.4751, 56.68457
607.9572, 69.39941
608.4393, 84.83594
608.9214, 92.40820
609.4036, 75.27539
609.8857, 33.37695
610.3678, 24.56152
610.8499, 96.10059
611.3320, 135.5459
611.8141, 93.21484
612.2963, 26.50195
612.7784, 8.545898
613.2605, 5.990234
613.7426, 5.888672
614.2247, 4.191406
614.7068, 2.010742
615.1890, 18.77051
615.6711, 68.95703
616.1532, 86.52832
616.6353, 39.34375
617.1174, 21.06445
617.5995, 34.15527
618.0817, 1.250000
618.5638, 27.30762
619.0459, 40.84961
619.5280, 45.82812
620.0101, 37.00000
620.4922, 23.76855
620.9744, 16.37109
621.4565, 17.34668
621.9386, 25.45898
622.4207, 42.54395
622.9028, 64.61426
623.3849, 75.40918
623.8671, 73.64941
624.3492, 67.66309
624.8313, 58.28027
625.3134, 47.61328
625.7955, 35.69922
626.2776, 22.64941
626.7598, 19.71387
627.2419, 32.74414
627.7240, 51.57812
628.2061, 78.45605
628.6882, 104.8887
629.1703, 117.8906
629.6525, 115.2529
630.1346, 104.8232
630.6167, 91.87402
631.0988, 77.69824
631.5809, 72.57520
632.0630, 80.45801
632.5452, 81.49219
633.0273, 65.36230
633.5094, 43.94824
633.9915, 25.06738
634.4736, 9.220703
634.9557, 13.32031
635.4379, 70.12207
635.9200, 115.9619
636.4021, 106.8965
636.8842, 68.37012
637.3663, 38.33008
637.8484, 27.37207
638.3306, 29.21289
638.8127, 39.32520
639.2948, 56.41992
639.7769, 72.79102
640.2590, 89.38477
640.7411, 102.6533
641.2233, 118.1729
641.7054, 123.1104
642.1875, 93.43164
642.6696, 33.35742
643.1517, 1.743164
643.6339, 15.22168
644.1160, 43.15723
644.5981, 67.78906
645.0802, 85.52441
645.5623, 88.66504
646.0444, 77.37891
646.5266, 63.72656
647.0087, 58.41797
647.4908, 60.35352
647.9729, 65.34277
648.4550, 74.65234
648.9371, 81.44531
649.4193, 80.58301
649.9014, 80.33301
650.3835, 93.57031
650.8656, 117.0908
651.3477, 127.2070
651.8298, 108.6641
652.3120, 88.68457
652.7941, 83.38672
653.2762, 82.41504
653.7583, 68.85938
654.2404, 42.93555
654.7225, 23.97559
655.2047, 29.81738
655.6868, 51.73730
656.1689, 67.46191
656.6510, 71.65820
657.1331, 73.79883
657.6152, 77.01270
658.0974, 77.53027
658.5795, 60.39062
659.0616, 33.14453
659.5437, 26.31152
660.0258, 15.54199
660.5079, 81.31152
660.9901, 117.1055
661.4722, 126.2676
661.9543, 29.01270
662.4364, 69.17871
662.9185, 54.26855
663.4006, 37.11230
663.8828, 96.62793
664.3649, 14.87012
664.8470, 73.18262
665.3291, 75.59863
665.8112, 103.5879
666.2933, 76.16992
666.7755, 65.87500
667.2576, 111.0029
667.7397, 125.4541
668.2218, 92.32715
668.7039, 121.9668
669.1860, 38.31250
669.6682, 54.10645
670.1503, 112.8184
670.6324, 81.69824
671.1145, 112.2910
671.5966, 119.5293
672.0787, 20.08105
672.5609, 106.1494
673.0430, 112.0156
673.5251, 35.48438
674.0072, 115.2471
674.4893, 50.50293
674.9714, 36.43750
675.4536, 60.73535
675.9357, 45.64844
676.4178, 94.56445
676.8999, 81.83105
677.3820, 63.59082
677.8641, 69.73340
678.3463, 7.427734
678.8284, 71.47656
679.3105, 49.21777
679.7926, 70.02734
680.2747, 100.4023
680.7568, 56.32031
681.2390, 91.07031
681.7211, 3.573242
682.2032, 18.36719
682.6853, 22.15527
683.1674, 91.32422
683.6495, 4.436523
684.1317, 16.40039
684.6138, 70.44824
685.0959, 65.61719
685.5780, 85.40918
686.0601, 32.30078
686.5422, 47.68652
687.0244, 44.19531
687.5065, 105.9287
687.9886, 116.1748
688.4707, 64.32617
688.9528, 12.74902
689.4349, 79.18457
689.9171, 33.77148
690.3992, 48.70117
690.8813, 1.313477
691.3634, 7.735352
691.8455, 13.30957
692.3276, 46.46875
692.8098, 4.019531
693.2919, 54.00488
693.7740, 49.32812
694.2561, 63.12598
694.7382, 74.87402
695.2203, 2.463867
695.7025, 0.9638670
696.1846, 94.33887
696.6667, 39.08301
697.1488, 14.21875
697.6309, 10.96680
698.1130, 109.6748
698.5952, 113.6064
699.0773, 4.280273
699.5594, 98.47656
700.0415, 67.46484
700.5236, 73.66406
701.0057, 66.26953
701.4879, 62.91113
701.9700, 8.446289
702.4521, 21.34082
702.9342, 88.99707
703.4163, 63.29395
703.8984, 101.0332
704.3806, 23.14551
704.8627, 13.89648
705.3448, 22.86035
705.8269, 39.32227
706.3090, 1.966797
706.7911, 70.66504
707.2733, 68.67383
707.7554, 5.424805
708.2375, 8.625977
708.7196, 0.7988280
709.2017, 107.8428
709.6838, 56.95703
710.1660, 5.117188
710.6481, 58.01660
711.1302, 81.01172
711.6123, 49.76660
712.0944, 47.34375
712.5765, 9.515625
713.0587, 17.26660
713.5408, 37.72754
714.0229, 27.23926
714.5050, 64.05664
714.9871, 74.23633
715.4692, 22.00391
715.9514, 19.16602
716.4335, 5.256836
716.9156, 10.90234
717.3977, 49.60352
717.8798, 31.04590
718.3619, 29.81934
718.8441, 33.79199
719.3262, 62.74512
719.8083, 36.28906
720.2904, 26.94336
720.7725, 73.04004
721.2546, 88.43457
721.7368, 55.64453
722.2189, 86.23145
722.7010, 3.507813
723.1831, 20.21582
723.6652, 79.82422
724.1473, 49.78320
724.6295, 81.38184
725.1116, 89.51074
725.5937, 9.069336
726.0758, 77.99121
726.5579, 85.92090
727.0400, 12.92773
727.5222, 96.65527
728.0043, 33.91699
728.4864, 21.53223
728.9685, 47.88672
729.4506, 33.66211
729.9327, 83.41602
730.4149, 71.53125
730.8970, 54.13672
731.3791, 60.78027
731.8612, 0.6855470
732.3433, 64.19434
732.8254, 42.76660
733.3076, 64.25488
733.7897, 95.45996
734.2718, 52.20605
734.7539, 87.78223
735.2360, 1.107422
735.7181, 16.71875
736.2003, 21.31934
736.6824, 91.29102
737.1645, 5.210938
737.6466, 17.97949
738.1287, 72.83691
738.6108, 68.80469
739.0930, 89.37988
739.5751, 37.07617
740.0572, 53.24121
740.5393, 50.53711
741.0214, 113.0527
741.5035, 71.21582
741.9857, 57.98926
742.4678, 38.58301
742.9499, 36.07422
743.4320, 48.72559
743.9141, 50.68750
744.3962, 39.52734
744.8784, 28.29785
745.3605, 17.85645
745.8426, 17.17383
746.3247, 42.97266
746.8068, 102.7197
747.2889, 124.4961
747.7711, 66.52246
748.2532, 27.06836
748.7353, 48.44141
749.2174, 83.55566
749.6995, 87.72852
750.1816, 63.91309
750.6638, 43.39062
751.1459, 44.19141
751.6280, 49.42969
752.1101, 38.23926
752.5922, 22.43750
753.0743, 31.79492
753.5565, 64.24902
754.0386, 82.97363
754.5207, 65.08887
755.0028, 29.54297
755.4849, 12.23633
755.9670, 14.54785
756.4492, 22.91895
756.9313, 37.17871
757.4134, 58.42090
757.8955, 98.15039
758.3776, 137.1416
758.8597, 142.8105
759.3419, 112.6982
759.8240, 83.58594
760.3061, 47.24121
760.7882, 25.65625
761.2703, 44.54199
761.7524, 70.88574
762.2346, 62.00781
762.7167, 21.57031
763.1988, 5.768555
763.6809, 9.284180
764.1630, 41.12305
764.6451, 65.90234
765.1273, 83.38086
765.6094, 93.33887
766.0915, 95.60645
766.5736, 86.37012
767.0557, 61.22559
767.5378, 33.11816
768.0200, 36.24512
768.5021, 81.61719
768.9842, 91.37793
769.4663, 43.06934
769.9484, 5.048828
770.4305, 12.61816
770.9127, 43.02246
771.3948, 59.81445
771.8769, 66.53809
772.3590, 73.60059
772.8411, 88.17188
773.3232, 95.06348
773.8054, 92.92285
774.2875, 80.73242
774.7696, 48.60449
775.2517, 5.333984
775.7338, 21.06445
776.2159, 5.251953
776.6981, 25.48535
777.1802, 51.12109
777.6623, 67.86621
778.1444, 59.49219
778.6265, 28.42676
779.1086, 6.790039
779.5908, 13.31348
780.0729, 34.56445
780.5550, 46.62695
781.0371, 48.90918
781.5192, 48.09961
782.0013, 44.55078
782.4835, 36.75098
782.9656, 22.61133
783.4477, 4.641602
783.9298, 15.51953
784.4119, 39.05273
784.8940, 46.11914
785.3762, 21.57324
785.8583, 1.069336
786.3404, 9.250977
786.8225, 14.70117
787.3046, 30.38086
787.7867, 53.06152
788.2689, 68.79102
788.7510, 70.51953
789.2331, 68.02930
789.7152, 69.32422
790.1973, 72.08301
790.6794, 66.65137
791.1616, 56.49805
791.6437, 61.68652
792.1258, 90.94238
792.6079, 119.7002
793.0900, 108.3271
793.5721, 63.78418
794.0543, 53.23047
794.5364, 83.32715
795.0185, 104.2178
795.5006, 98.47266
795.9827, 86.86914
796.4648, 90.14355
796.9470, 106.6924
797.4291, 119.0713
797.9112, 128.8604
798.3933, 131.9092
798.8754, 124.1387
799.3575, 113.4170
799.8397, 103.5156
800.3218, 94.13379
800.8039, 84.24316
801.2860, 73.79590
801.7681, 61.88965
802.2502, 39.02246
802.7324, 22.51660
803.2145, 11.10938
803.6966, 53.99707
804.1787, 90.95410
804.6608, 101.2803
805.1429, 5.177734
805.6251, 46.49316
806.1072, 32.74121
806.5893, 16.72949
807.0714, 77.39551
807.5535, 3.225586
808.0356, 56.21875
808.5178, 59.74414
808.9999, 88.87109
809.4820, 62.57715
809.9641, 53.40332
810.4462, 99.66113
810.9283, 115.2393
811.4105, 82.57910
811.8926, 113.3408
812.3747, 30.80273
812.8568, 47.68359
813.3389, 107.4385
813.8210, 77.57031
814.3032, 109.3525
814.7853, 118.0586
815.2674, 21.95996
815.7495, 109.1230
816.2316, 116.0352
816.7137, 40.54785
817.1959, 121.3506
817.6780, 57.22363
818.1601, 44.82812
818.6422, 71.37109
819.1243, 57.32422
819.6064, 107.2578
820.0886, 95.55176
820.5707, 78.34473
821.0528, 84.32324
821.5349, 22.92969
822.0170, 87.99414
822.4991, 66.75977
822.9813, 88.42480
823.4634, 119.8105
823.9455, 76.73633
824.4276, 112.4922
824.9097, 26.00977
825.3918, 41.81738
825.8740, 46.60645
826.3561, 116.7832
826.8382, 30.89746
827.3203, 43.86523
827.8024, 98.66992
828.2845, 94.81152
828.7667, 115.6016
829.2488, 63.51270
829.7309, 79.90820
830.2130, 77.42578
830.6951, 140.1650
831.1772, 151.4297
831.6594, 100.5957
832.1415, 50.01172
832.6236, 117.4609
833.1057, 72.92773
833.5878, 87.29297
834.0699, 40.30078
834.5521, 47.72949
835.0342, 54.31055
835.5163, 88.48145
835.9984, 39.00293
836.4805, 98.02441
836.9626, 94.29199
837.4448, 109.0791
837.9269, 121.8203
838.4090, 50.39941
838.8911, 47.96875
839.3732, 144.2607
839.8553, 90.00293
840.3375, 66.12598
840.8196, 63.85840
841.3017, 163.4492
841.7838, 167.1807
842.2659, 56.17480
842.7480, 148.2695
843.2302, 116.6875
843.7123, 123.6982
844.1944, 122.0791
844.6765, 119.4707
845.1586, 66.64453
845.6407, 32.28906
846.1229, 59.91504
846.6050, 102.3916
847.0871, 108.9297
847.5692, 82.72168
848.0513, 73.00391
848.5334, 107.7588
849.0156, 130.8730
849.4977, 112.4395
849.9798, 89.88672
850.4619, 102.0342
850.9440, 131.0654
851.4261, 130.0186
851.9083, 82.32324
852.3904, 38.77832
852.8725, 30.89551
853.3546, 45.04492
853.8367, 82.22559
854.3188, 126.1143
854.8010, 141.6123
855.2831, 124.3564
855.7652, 90.80078
856.2473, 46.38672
856.7294, 11.79492
857.2115, 39.77344
857.6937, 111.6025
858.1758, 141.0527
858.6579, 121.9023
859.1400, 85.91211
859.6221, 47.01562
860.1042, 21.56836
860.5864, 38.54492
861.0685, 94.66406
861.5506, 119.4951
862.0327, 101.9453
862.5148, 94.33594
862.9969, 116.2275
863.4791, 134.1719
863.9612, 116.9170
864.4433, 76.18359
864.9254, 55.35938
865.4075, 70.21680
865.8896, 71.59570
866.3718, 32.89551
866.8539, 12.46680
867.3360, 47.79980
867.8181, 101.1973
868.3002, 131.5127
868.7823, 133.4326
869.2645, 134.3193
869.7466, 145.8174
870.2287, 152.4756
870.7108, 159.6650
871.1929, 150.0566
871.6750, 81.01855
872.1572, 12.20020
872.6393, 42.59766
873.1214, 21.04980
873.6035, 91.31152
874.0856, 109.7842
874.5677, 98.10645
875.0499, 61.05371
875.5320, 18.78906
876.0141, 18.03711
876.4962, 60.99316
876.9783, 104.8828
877.4604, 122.3018
877.9426, 119.4717
878.4247, 96.53223
878.9068, 61.83789
879.3889, 48.56641
879.8710, 57.66406
880.3531, 73.75293
880.8353, 91.37500
881.3174, 101.4355
881.7995, 90.73926
882.2816, 63.72461
882.7637, 48.24219
883.2458, 45.03125
883.7280, 52.22070
884.2101, 71.26367
884.6922, 81.74414
885.1743, 64.81543
885.6564, 35.64746
886.1385, 29.05762
886.6207, 53.20996
887.1028, 63.95020
887.5849, 50.03809
888.0670, 36.63184
888.5491, 26.46387
889.0313, 23.98926
889.5134, 36.83105
889.9955, 61.26270
890.4776, 80.47949
890.9597, 95.63477
891.4418, 101.3477
891.9240, 91.50781
892.4061, 77.88770
892.8882, 65.13379
893.3703, 53.17383
893.8524, 39.29395
894.3345, 23.99609
894.8167, 18.19336
895.2988, 32.07422
895.7809, 44.82715
896.2630, 41.57715
896.7451, 33.74707
897.2272, 33.14453
897.7094, 38.58008
898.1915, 43.65723
898.6736, 46.04004
899.1557, 48.35254
899.6378, 59.47266
900.1199, 68.41797
900.6021, 52.58984
901.0842, 25.97949
901.5663, 11.37500
902.0484, 13.18164
902.5305, 28.88770
903.0126, 58.90625
903.4948, 89.45703
903.9769, 98.29590
904.4590, 91.40039
904.9411, 87.41406
905.4232, 86.34375
905.9053, 79.73828
906.3875, 64.94824
906.8696, 51.37402
907.3517, 49.29199
907.8338, 53.33594
908.3159, 40.61133
908.7980, 10.83594
909.2802, 12.52246
909.7623, 57.03027
910.2444, 82.63281
910.7265, 54.78906
911.2086, 7.674805
911.6907, 10.91602
912.1729, 1.098633
912.6550, 23.01562
913.1371, 70.13477
913.6192, 105.2783
914.1013, 127.4561
914.5834, 125.6016
915.0656, 78.44434
915.5477, 10.96191
916.0298, 18.09570
916.5119, 2.794922
916.9940, 19.11230
917.4761, 34.97266
917.9583, 41.48730
918.4404, 20.03027
918.9225, 4.705078
919.4046, 33.97168
919.8867, 92.50586
920.3688, 121.4365
920.8510, 101.0820
921.3331, 85.56445
921.8152, 89.07812
922.2973, 91.51367
922.7794, 80.86426
923.2615, 65.82129
923.7437, 60.79785
924.2258, 63.77637
924.7079, 52.56543
925.1900, 0.1757810
925.6721, 34.02930
926.1542, 7.590820
926.6364, 31.66309
927.1185, 50.40625
927.6006, 52.58008
928.0827, 47.98828
928.5648, 39.74121
929.0469, 33.04688
929.5291, 29.14160
930.0112, 29.38086
930.4933, 41.99805
930.9754, 56.50684
931.4575, 44.12012
931.9396, 15.22656
932.4218, 6.412109
932.9039, 30.53613
933.3860, 54.73145
933.8681, 41.67480
934.3502, 20.53711
934.8323, 38.36426
935.3145, 73.78223
935.7966, 76.68164
936.2787, 47.57031
936.7608, 28.28223
937.2429, 41.61035
937.7250, 62.73828
938.2072, 57.63379
938.6893, 39.32227
939.1714, 45.00391
939.6535, 65.09961
940.1356, 54.66211
940.6177, 8.095703
941.0999, 21.01465
941.5820, 7.809570
942.0641, 60.93945
942.5462, 80.26953
943.0283, 70.01270
943.5104, 44.25684
943.9926, 6.099609
944.4747, 14.00781
944.9568, 6.618164
945.4389, 21.06152
945.9210, 67.80371
946.4031, 117.5889
946.8853, 117.4658
947.3674, 67.76367
947.8495, 41.99316
948.3316, 46.48633
948.8137, 55.74121
949.2958, 60.15527
949.7780, 66.05664
950.2601, 84.21484
950.7422, 107.3994
951.2243, 87.89355
951.7064, 12.62500
952.1885, 15.05273
952.6707, 27.16504
953.1528, 71.37207
953.6349, 89.30273
954.1170, 86.21680
954.5991, 65.19238
955.0812, 27.81641
955.5634, 8.273438
956.0455, 15.08105
956.5276, 11.03613
957.0097, 22.91309
957.4918, 36.24707
957.9739, 10.32715
958.4561, 80.71582
958.9382, 117.3818
959.4203, 119.0127
959.9024, 104.4111
960.3845, 51.00586
960.8666, 28.27441
961.3488, 72.62305
961.8309, 113.4902
962.3130, 99.74414
962.7951, 57.81348
963.2772, 39.82227
963.7593, 50.54688
964.2415, 59.80273
964.7236, 73.41992
965.2057, 77.08496
965.6878, 61.40820
966.1699, 41.83691
966.6520, 20.43359
967.1342, 4.034180
967.6163, 13.51562
968.0984, 62.78906
968.5805, 83.53418
969.0626, 43.56738
969.5447, 13.06445
970.0269, 17.24219
970.5090, 31.69824
970.9911, 40.70312
971.4732, 44.72070
971.9553, 46.86621
972.4374, 47.61523
972.9196, 45.79199
973.4017, 44.09961
973.8838, 34.93750
974.3659, 3.376953
974.8480, 22.82031
975.3301, 7.441406
975.8123, 34.49902
976.2944, 49.72852
976.7765, 14.69238
977.2586, 3.823242
977.7407, 68.55176
978.2228, 118.2920
978.7050, 95.75488
979.1871, 52.87891
979.6692, 41.48340
980.1513, 57.31738
980.6334, 69.18262
981.1155, 68.11816
981.5977, 70.17285
982.0798, 87.94434
982.5619, 100.8125
983.0440, 90.67969
983.5261, 73.40234
984.0082, 75.02832
984.4904, 91.15723
984.9725, 100.4404
985.4546, 95.14648
985.9367, 89.57129
986.4188, 85.94629
986.9009, 86.74609
987.3831, 98.42969
987.8652, 111.8936
988.3473, 121.5918
988.8294, 123.3232
989.3115, 102.7275
989.7936, 41.16992
990.2758, 0.3388670
990.7579, 25.47070
991.2400, 55.26660
991.7221, 37.43652
992.2042, 9.022461
992.6863, 21.33105
993.1685, 69.26074
993.6506, 103.6582
994.1327, 104.5479
994.6148, 102.8906
995.0969, 126.4814
995.5790, 136.1201
996.0612, 71.37207
996.5433, 2.233398
997.0254, 15.87891
997.5075, 111.2812
997.9896, 172.2461
998.4717, 154.0273
998.9539, 116.1982
999.4360, 63.58301
999.9181, 30.63281
1000.400, 68.46680
1000.882, 124.3975
1001.364, 123.2383
1001.847, 71.61035
1002.329, 36.47363
1002.811, 48.24219
1003.293, 62.85059
1003.775, 59.31250
1004.257, 50.47168
1004.739, 36.85449
1005.221, 28.58984
1005.703, 45.82812
1006.186, 80.91504
1006.668, 98.82715
1007.150, 85.16113
1007.632, 63.94824
1008.114, 36.23926
1008.596, 17.95312
1009.078, 30.05078
1009.560, 50.37402
1010.043, 46.57031
1010.525, 25.76953
1011.007, 17.96289
1011.489, 36.27441
1011.971, 54.61523
1012.453, 58.89844
1012.935, 63.16113
1013.417, 81.18066
1013.899, 99.99414
1014.382, 105.0352
1014.864, 95.21289
1015.346, 76.06543
1015.828, 46.10547
1016.310, 33.76074
1016.792, 64.83887
1017.274, 100.4111
1017.756, 129.8896
1018.239, 144.9355
1018.721, 126.6084
1019.203, 88.18848
1019.685, 69.92090
1020.167, 85.21680
1020.649, 99.47852
1021.131, 107.8975
1021.613, 104.7910
1022.095, 74.40234
1022.578, 42.49414
1023.060, 35.85840
1023.542, 46.72461
1024.024, 49.59961
1024.506, 37.10254
1024.988, 34.76270
1025.470, 71.52051
1025.952, 90.57617
1026.435, 44.45508
1026.917, 3.447266
1027.399, 5.134766
1027.881, 49.30566
1028.363, 81.61621
1028.845, 96.24219
1029.327, 96.12598
1029.809, 61.97266
1030.292, 40.64941
1030.774, 56.93457
1031.256, 77.69434
1031.738, 79.80078
1032.220, 70.82715
1032.702, 62.99219
1033.184, 59.66309
1033.666, 62.44141
1034.148, 82.46387
1034.630, 90.93555
1035.113, 71.98926
1035.595, 52.53223
1036.077, 47.13574
1036.559, 50.38184
1037.041, 52.73633
1037.523, 53.75098
1038.005, 66.06445
1038.487, 107.7812
1038.970, 131.4844
1039.452, 126.3086
1039.934, 113.0869
1040.416, 94.77734
1040.898, 78.45312
1041.380, 77.21875
1041.862, 88.31055
1042.344, 79.17188
1042.826, 25.61523
1043.309, 3.371094
1043.791, 32.75684
1044.273, 60.67871
1044.755, 69.38770
1045.237, 66.02441
1045.719, 54.11621
1046.201, 37.27148
1046.683, 33.90137
1047.166, 52.51758
1047.648, 54.53223
1048.130, 35.12109
1048.612, 11.94141
1049.094, 17.40527
1049.576, 34.14160
1050.058, 16.00195
1050.540, 19.93945
1051.022, 22.72461
1051.505, 14.03027
1051.987, 16.20801
1052.469, 23.06934
1052.951, 53.40723
1053.433, 61.99414
1053.915, 66.09570
1054.397, 77.45215
1054.879, 90.10449
1055.361, 89.93945
1055.844, 78.38770
1056.326, 73.57910
1056.808, 75.42383
1057.290, 71.49023
1057.772, 59.57812
1058.254, 48.33203
1058.736, 41.89648
1059.218, 42.96289
1059.701, 57.08008
1060.183, 79.98145
1060.665, 102.8184
1061.147, 122.1602
1061.629, 111.5938
1062.111, 73.02637
1062.593, 47.16113
1063.075, 49.19043
1063.557, 51.54004
1064.040, 21.27344
1064.522, 11.70410
1065.004, 23.58203
1065.486, 93.56250
1065.968, 111.3613
1066.450, 85.38672
1066.932, 67.03125
1067.414, 70.22168
1067.896, 81.66992
1068.379, 95.22852
1068.861, 102.2988
1069.343, 85.43750
1069.825, 61.95117
1070.307, 61.12695
1070.789, 70.52148
1071.271, 60.30273
1071.753, 30.92871
1072.236, 6.637695
1072.718, 2.099609
1073.200, 1.625000
1073.682, 10.10645
1074.164, 21.81055
1074.646, 21.70410
1075.128, 17.78320
1075.610, 21.88281
1076.093, 30.84961
1076.575, 31.16699
1077.057, 18.76660
1077.539, 14.60840
1078.021, 39.37891
1078.503, 59.06934
1078.985, 55.46094
1079.467, 43.66895
1079.949, 29.30859
1080.432, 17.99902
1080.914, 19.00488
1081.396, 32.63574
1081.878, 44.37695
1082.360, 54.59473
1082.842, 58.73730
1083.324, 56.05371
1083.806, 49.12500
1084.288, 29.83984
1084.771, 13.59863
1085.253, 25.42969
1085.735, 56.70996
1086.217, 64.82129
1086.699, 34.56348
1087.181, 21.74219
1087.663, 31.88965
1088.145, 50.24805
1088.628, 83.76367
1089.110, 103.1240
1089.592, 78.87500
1090.074, 35.67676
1090.556, 30.41895
1091.038, 65.31152
1091.520, 72.07129
1092.002, 45.33789
1092.484, 23.44336
1092.967, 11.75293
1093.449, 11.91797
1093.931, 26.42188
1094.413, 44.47754
1094.895, 53.82324
1095.377, 56.55273
1095.859, 37.81934
1096.341, 3.481445
1096.823, 3.181641
1097.306, 36.08398
1097.788, 54.81055
1098.270, 44.53125
1098.752, 23.29102
1099.234, 2.321289
1099.716, 8.610352
1100.198, 15.47070
1100.680, 55.12402
1101.163, 71.79395
1101.645, 69.60547
1102.127, 56.32910
1102.609, 39.26855
1103.091, 41.72949
1103.573, 76.31934
1104.055, 101.2471
1104.537, 71.36621
1105.020, 27.54980
1105.502, 1.998047
1105.984, 16.46094
1106.466, 8.622070
1106.948, 10.90332
1107.430, 23.62207
1107.912, 27.63770
1108.394, 28.86426
1108.876, 28.63770
1109.359, 25.45312
1109.841, 16.42578
1110.323, 11.60742
1110.805, 19.14160
1111.287, 30.01465
1111.769, 33.62500
1112.251, 30.23633
1112.733, 23.79590
1113.215, 6.282227
1113.698, 6.997070
1114.180, 42.09180
1114.662, 70.70996
1115.144, 80.51562
1115.626, 86.39941
1116.108, 99.17480
1116.590, 113.8711
1117.072, 122.0430
1117.555, 123.6865
1118.037, 115.1348
1118.519, 95.55762
1119.001, 65.59570
1119.483, 20.23535
1119.965, 2.024414
1120.447, 32.51270
1120.929, 71.99609
1121.411, 79.92871
1121.894, 65.76660
1122.376, 45.68066
1122.858, 25.66797
1123.340, 32.38184
1123.822, 62.42773
1124.304, 98.70410
1124.786, 133.2383
1125.268, 141.1094
1125.750, 106.6963
1126.233, 65.82617
1126.715, 57.87793
1127.197, 68.56055
1127.679, 88.78906
1128.161, 107.3096
1128.643, 100.8613
1129.125, 78.04492
1129.607, 66.01074
1130.090, 71.10742
1130.572, 77.42090
1131.054, 73.48242
1131.536, 75.62695
1132.018, 102.9404
1132.500, 127.2988
1132.982, 126.2256
1133.464, 113.6064
1133.947, 104.7490
1134.429, 100.5918
1134.911, 99.74707
1135.393, 107.2422
1135.875, 100.2461
1136.357, 51.72754
1136.839, 27.30762
1137.321, 57.28906
1137.803, 85.70117
1138.286, 80.42676
1138.768, 54.85254
1139.250, 22.21973
1139.732, 12.94727
1140.214, 0.3066410
1140.696, 71.16504
1141.178, 100.3877
1141.660, 76.58008
1142.142, 60.61719
1142.625, 72.41602
1143.107, 89.10840
1143.589, 94.11914
1144.071, 87.52344
1144.553, 60.70703
1145.035, 25.30078
1145.517, 20.62207
1145.999, 37.76562
1146.482, 46.88965
1146.964, 47.42383
1147.446, 58.48145
1147.928, 86.48633
1148.410, 115.8926
1148.892, 140.6348
1149.374, 152.8359
1149.856, 133.4863
1150.339, 109.3408
1150.821, 121.8496
1151.303, 138.8154
1151.785, 94.36719
1152.267, 3.174805
1152.749, 44.35254
1153.231, 17.47754
1153.713, 18.31934
1154.195, 67.05957
1154.677, 96.54004
1155.160, 84.98047
1155.642, 64.42773
1156.124, 53.01758
1156.606, 45.58008
1157.088, 30.21777
1157.570, 9.627930
1158.052, 26.51562
1158.534, 95.44336
1159.017, 131.7178
1159.499, 128.0742
1159.981, 105.8213
1160.463, 68.23438
1160.945, 38.76562
1161.427, 34.98340
1161.909, 45.06934
1162.391, 51.00879
1162.874, 53.54395
1163.356, 50.17676
1163.838, 45.49219
1164.320, 71.64746
1164.802, 116.3359
1165.284, 110.7598
1165.766, 40.04004
1166.248, 18.83105
1166.730, 9.576172
1167.213, 15.16602
1167.695, 9.958008
1168.177, 3.055664
1168.659, 27.00195
1169.141, 58.89844
1169.623, 67.09863
1170.105, 56.82910
1170.587, 51.41211
1171.069, 55.35840
1171.552, 63.14551
1172.034, 78.74902
1172.516, 89.09375
1172.998, 84.21875
1173.480, 85.99512
1173.962, 112.1055
1174.444, 137.0088
1174.926, 132.5127
1175.409, 106.5049
1175.891, 83.26562
1176.373, 61.55566
1176.855, 65.73242
1177.337, 96.70703
1177.819, 111.7559
1178.301, 103.0957
1178.783, 81.50098
1179.266, 52.16406
1179.748, 38.43457
1180.230, 76.86914
1180.712, 124.8184
1181.194, 97.02734
1181.676, 39.39941
1182.158, 34.77344
1182.640, 62.80859
1183.122, 71.56055
1183.604, 56.09570
1184.087, 37.49805
1184.569, 21.13965
1185.051, 20.39551
1185.533, 65.20508
1186.015, 94.35645
1186.497, 62.34961
1186.979, 26.83594
1187.461, 34.35059
1187.944, 58.71582
1188.426, 57.26660
1188.908, 35.22363
1189.390, 35.08496
1189.872, 64.66797
1190.354, 86.27539
1190.836, 102.1270
1191.318, 94.92383
1191.801, 55.35449
1192.283, 34.22754
1192.765, 63.11133
1193.247, 102.1953
1193.729, 98.38477
1194.211, 73.04199
1194.693, 85.24023
1195.175, 115.8848
1195.657, 99.66504
1196.140, 62.80664
1196.622, 60.60449
1197.104, 95.87598
1197.586, 119.3281
1198.068, 108.9219
1198.550, 88.05566
1199.032, 57.33398
1199.514, 38.60059
1199.996, 60.23242
1200.479, 82.21484
1200.961, 59.82031
1201.443, 25.68457
1201.925, 38.30664
1202.407, 88.08203
1202.889, 106.2236
1203.371, 75.17578
1203.853, 56.52539
1204.336, 51.81934
1204.818, 55.18164
1205.300, 66.68555
1205.782, 83.14453
1206.264, 105.2549
1206.746, 114.4854
1207.228, 82.19629
1207.710, 33.76270
1208.193, 41.49414
1208.675, 82.40234
1209.157, 88.55859
1209.639, 68.25586
1210.121, 52.15137
1210.603, 47.26758
1211.085, 54.99512
1211.567, 76.23535
1212.049, 91.69922
1212.531, 90.68555
1213.014, 79.21387
1213.496, 51.67188
1213.978, 24.56152
1214.460, 4.266602
1214.942, 5.227539
1215.424, 4.587891
1215.906, 28.70703
1216.388, 50.60938
1216.871, 72.89453
1217.353, 73.25879
1217.835, 41.39551
1218.317, 35.38379
1218.799, 68.56641
1219.281, 87.12305
1219.763, 67.33301
1220.245, 46.53223
1220.728, 60.51953
1221.210, 86.38281
1221.692, 78.24805
1222.174, 56.00098
1222.656, 68.68945
1223.138, 95.76270
1223.620, 90.44434
1224.102, 58.40234
1224.584, 30.52148
1225.067, 15.63965
1225.549, 9.869141
1226.031, 12.85645
1226.513, 20.96484
1226.995, 53.37695
1227.477, 70.22852
1227.959, 35.20312
1228.441, 1.909180
1228.923, 5.387695
1229.406, 14.50879
1229.888, 45.46777
1230.370, 84.07812
1230.852, 85.70703
1231.334, 48.26465
1231.816, 25.58789
1232.298, 21.33008
1232.780, 32.09961
1233.263, 51.54004
1233.745, 57.76172
1234.227, 49.40527
1234.709, 34.54102
1235.191, 27.25195
1235.673, 22.19629
1236.155, 9.240234
1236.637, 9.6680000E-02
1237.120, 16.47559
1237.602, 0.0000000E+00
##END=



