##NAMES=Maghemite
##RRUFFID=R140712
##IDEAL CHEMISTRY=(Fe^3+^_0.67_[box]_0.33_)Fe^3+^_2_O_4_
##LOCALITY=Katzenbuckel, Eberbach, Odenwald, Baden-WÃ¼rttemberg, Germany
##OWNER=RRUFF
##SOURCE=Rock Currier
##DESCRIPTION=Black aggregate of small to fine grains. Fd3m symmetry
##STATUS=The identification of this mineral has been confirmed only by single crystal X-ray diffraction.
##URL=rruff.info/R140712
168.6502, 0.0000000E+00
169.1323, 0.2297360
169.6145, 0.2341310
170.0966, 0.6470950
170.5787, 2.492676
171.0608, 4.357086
171.5429, 4.847015
172.0250, 3.880127
172.5072, 2.617096
172.9893, 1.711456
173.4714, 1.136963
173.9535, 0.8524170
174.4356, 1.100037
174.9177, 1.498871
175.3999, 1.546600
175.8820, 1.182617
176.3641, 0.7967530
176.8462, 0.6102290
177.3283, 0.6272580
177.8104, 0.9422000
178.2926, 2.114502
178.7747, 3.493561
179.2568, 3.864899
179.7389, 3.039063
180.2210, 1.992004
180.7031, 1.874847
181.1853, 2.501617
181.6674, 3.244751
182.1495, 3.702179
182.6316, 3.951355
183.1137, 4.085999
183.5958, 4.158630
184.0780, 4.418182
184.5601, 4.627655
185.0422, 4.577118
185.5243, 4.645782
186.0064, 5.302551
186.4885, 6.295807
186.9707, 6.395752
187.4528, 6.122070
187.9349, 5.179199
188.4170, 4.414856
188.8991, 4.335846
189.3812, 4.209900
189.8634, 3.747681
190.3455, 3.074371
190.8276, 2.780518
191.3097, 2.997833
191.7918, 3.399750
192.2739, 3.428436
192.7561, 3.075287
193.2382, 2.590668
193.7203, 1.938232
194.2024, 1.159668
194.6845, 0.9019780
195.1666, 1.334473
195.6488, 2.128662
196.1309, 2.785706
196.6130, 3.098114
197.0951, 3.087982
197.5772, 2.561768
198.0593, 1.545441
198.5415, 0.9575810
199.0236, 0.2995000
199.5057, 0.1137080
199.9878, 0.1437680
200.4699, 0.2386470
200.9520, 0.8758540
201.4342, 1.998474
201.9163, 3.734039
202.3984, 4.348969
202.8805, 3.385834
203.3626, 1.541840
203.8447, 0.6787720
204.3269, 1.073242
204.8090, 1.447327
205.2911, 0.8469850
205.7732, 1.000061
206.2553, 1.925781
206.7374, 1.519501
207.2196, 0.2933650
207.7017, 0.3226620
208.1838, 0.2073360
208.6659, 9.3872003E-02
209.1480, 0.1295170
209.6301, 0.1689150
210.1123, 0.4252320
210.5944, 0.6397400
211.0765, 0.7804570
211.5586, 0.9205630
212.0407, 1.082367
212.5228, 1.194489
213.0050, 1.187714
213.4871, 1.002167
213.9692, 0.9170840
214.4513, 0.9557800
214.9334, 1.097168
215.4155, 1.297180
215.8977, 1.589447
216.3798, 1.862091
216.8619, 1.983887
217.3440, 1.771576
217.8261, 2.047638
218.3082, 3.201172
218.7904, 4.755341
219.2725, 5.098358
219.7546, 3.562805
220.2367, 2.003937
220.7188, 1.539459
221.2009, 2.904327
221.6831, 3.291199
222.1652, 2.100464
222.6473, 3.3080999E-02
223.1294, 0.7342220
223.6115, 0.4781190
224.0936, 1.870819
224.5758, 2.594696
225.0579, 2.409546
225.5400, 2.154144
226.0221, 1.879547
226.5042, 1.570221
226.9863, 1.002350
227.4685, 0.2124630
227.9506, 1.095459
228.4327, 1.104095
228.9148, 0.3626710
229.3969, 1.287292
229.8790, 1.492676
230.3612, 1.189728
230.8433, 0.8509830
231.3254, 0.1915890
231.8075, 8.8104002E-02
232.2896, 0.4413150
232.7717, 2.406006
233.2539, 3.595001
233.7360, 3.681732
234.2181, 3.084473
234.7002, 2.760864
235.1823, 2.883850
235.6644, 3.013123
236.1466, 2.940826
236.6287, 2.503479
237.1108, 2.319916
237.5929, 2.545593
238.0750, 2.962677
238.5571, 3.106964
239.0393, 2.820709
239.5214, 2.518982
240.0035, 2.394958
240.4856, 2.608002
240.9677, 2.492126
241.4498, 1.777863
241.9320, 0.8859250
242.4141, 0.6086430
242.8962, 1.390656
243.3783, 2.084137
243.8604, 2.269257
244.3425, 1.774445
244.8247, 1.443054
245.3068, 1.413116
245.7889, 1.461700
246.2710, 1.144104
246.7531, 4.3060001E-02
247.2352, 0.7230830
247.7174, 0.2528690
248.1995, 1.766235
248.6816, 2.827209
249.1637, 2.455139
249.6458, 1.474091
250.1279, 1.110962
250.6101, 1.837677
251.0922, 2.257660
251.5743, 1.740936
252.0564, 1.1047000E-02
252.5385, 0.4611820
253.0206, 1.090790
253.5028, 3.215607
253.9849, 4.006592
254.4670, 2.727631
254.9491, 1.724487
255.4312, 1.656677
255.9133, 2.589294
256.3955, 3.199554
256.8776, 3.319000
257.3597, 3.281555
257.8418, 3.482666
258.3239, 4.074249
258.8061, 4.624695
259.2882, 5.082855
259.7703, 5.438446
260.2524, 5.478882
260.7345, 5.048340
261.2166, 4.520020
261.6988, 4.218231
262.1809, 4.214142
262.6630, 4.299438
263.1451, 4.430695
263.6272, 4.531128
264.1093, 4.733307
264.5915, 5.258698
265.0736, 5.791321
265.5557, 5.902496
266.0378, 5.319122
266.5199, 5.139679
267.0020, 5.723572
267.4842, 6.869843
267.9663, 7.354401
268.4484, 6.954468
268.9305, 6.380585
269.4126, 6.127472
269.8947, 6.266113
270.3769, 6.369232
270.8590, 6.327667
271.3411, 6.250641
271.8232, 6.613068
272.3053, 7.620483
272.7874, 8.438751
273.2696, 8.422821
273.7517, 7.380768
274.2338, 6.754639
274.7159, 6.660919
275.1980, 6.996613
275.6801, 7.659180
276.1623, 8.768951
276.6444, 9.681488
277.1265, 9.910858
277.6086, 9.381195
278.0907, 9.385315
278.5728, 10.15915
279.0550, 11.15277
279.5371, 11.25449
280.0192, 10.33951
280.5013, 9.541351
280.9834, 9.438416
281.4655, 10.10403
281.9477, 10.37866
282.4298, 10.08853
282.9119, 9.834320
283.3940, 10.70541
283.8761, 12.73193
284.3582, 14.38959
284.8404, 14.96732
285.3225, 14.61993
285.8046, 14.32703
286.2867, 14.14313
286.7688, 14.13669
287.2509, 14.35706
287.7331, 14.77274
288.2152, 14.93536
288.6973, 14.58325
289.1794, 13.91061
289.6615, 13.61862
290.1436, 13.75229
290.6258, 13.90408
291.1079, 13.68329
291.5900, 13.14810
292.0721, 12.57797
292.5542, 12.02185
293.0363, 11.50842
293.5185, 11.15228
294.0006, 10.94879
294.4827, 10.70218
294.9648, 10.06720
295.4469, 9.234009
295.9290, 8.894745
296.4112, 9.378387
296.8933, 10.04239
297.3754, 9.637207
297.8575, 8.352539
298.3396, 7.369141
298.8217, 7.916351
299.3039, 9.248352
299.7860, 9.799072
300.2681, 9.225372
300.7502, 8.315277
301.2323, 8.049530
301.7144, 8.273041
302.1966, 8.425201
302.6787, 8.079285
303.1608, 7.531891
303.6429, 7.221344
304.1250, 7.217163
304.6071, 7.215240
305.0893, 6.875946
305.5714, 6.347382
306.0535, 5.837006
306.5356, 5.362030
307.0177, 5.019775
307.4998, 5.048737
307.9820, 5.455139
308.4641, 5.697052
308.9462, 5.234375
309.4283, 4.404419
309.9104, 3.712341
310.3925, 3.249359
310.8747, 3.090759
311.3568, 3.525604
311.8389, 4.444977
312.3210, 5.016632
312.8031, 4.414429
313.2852, 3.419342
313.7674, 2.776428
314.2495, 2.815369
314.7316, 3.088745
315.2137, 3.587524
315.6958, 4.193329
316.1779, 4.510895
316.6601, 4.051849
317.1422, 3.450745
317.6243, 3.132477
318.1064, 3.278107
318.5885, 3.484436
319.0706, 3.707062
319.5528, 3.889038
320.0349, 3.922516
320.5170, 3.508209
320.9991, 3.157135
321.4812, 3.190521
321.9633, 3.831024
322.4455, 4.121918
322.9276, 3.428741
323.4097, 2.428894
323.8918, 1.971344
324.3739, 2.854065
324.8560, 3.596100
325.3382, 3.815430
325.8203, 3.450958
326.3024, 3.126068
326.7845, 2.727661
327.2666, 2.473206
327.7487, 2.542297
328.2309, 3.510559
328.7130, 4.122711
329.1951, 4.039001
329.6772, 3.359619
330.1593, 3.122284
330.6414, 3.935577
331.1236, 4.611267
331.6057, 4.429779
332.0878, 2.482330
332.5699, 1.313354
333.0520, 1.274170
333.5341, 2.011017
334.0163, 2.559998
334.4984, 2.794159
334.9805, 3.041534
335.4626, 3.517639
335.9447, 4.414886
336.4268, 4.759247
336.9090, 4.370514
337.3911, 3.622833
337.8732, 3.142212
338.3553, 3.038361
338.8374, 2.814240
339.3195, 2.140167
339.8017, 1.064178
340.2838, 0.9477840
340.7659, 2.119476
341.2480, 3.425232
341.7301, 3.486725
342.2122, 2.199188
342.6944, 1.223145
343.1765, 0.9707950
343.6586, 1.268738
344.1407, 1.596527
344.6228, 1.952911
345.1049, 2.316620
345.5871, 2.755554
346.0692, 3.227386
346.5513, 3.388153
347.0334, 3.134644
347.5155, 2.676727
347.9977, 2.292908
348.4798, 1.987885
348.9619, 1.839508
349.4440, 2.009766
349.9261, 2.355499
350.4082, 2.552765
350.8904, 2.575287
351.3725, 2.498322
351.8546, 2.295105
352.3367, 2.042877
352.8188, 1.940033
353.3009, 2.225037
353.7831, 2.624542
354.2652, 2.883209
354.7473, 2.994843
355.2294, 2.862030
355.7115, 2.258728
356.1936, 1.416687
356.6758, 0.6102290
357.1579, 0.3030090
357.6400, 0.8862300
358.1221, 0.5980220
358.6042, 0.3473820
359.0863, 1.179871
359.5685, 1.626831
360.0506, 1.751648
360.5327, 1.541382
361.0148, 0.8620000
361.4969, 0.2120970
361.9790, 0.4263310
362.4612, 0.8691100
362.9433, 0.8184810
363.4254, 0.5737000
363.9075, 1.810333
364.3896, 2.198029
364.8717, 1.583649
365.3539, 0.9728390
365.8360, 2.3375999E-02
366.3181, 0.6736450
366.8002, 0.3067020
367.2823, 3.264923
367.7644, 5.562988
368.2466, 5.230835
368.7287, 2.515289
369.2108, 0.7405700
369.6929, 0.4586790
370.1750, 0.6307370
370.6571, 0.7384030
371.1393, 0.5808410
371.6214, 0.7141420
372.1035, 1.441284
372.5856, 2.400360
373.0677, 2.600983
373.5498, 1.495239
374.0320, 0.6071170
374.5141, 0.6366580
374.9962, 1.791473
375.4783, 2.354736
375.9604, 2.059204
376.4425, 1.406006
376.9247, 0.8860470
377.4068, 0.4824220
377.8889, 0.4269100
378.3710, 0.9105830
378.8531, 1.721802
379.3352, 2.098724
379.8174, 2.023193
380.2995, 1.651215
380.7816, 0.8072810
381.2637, 0.3927310
381.7458, 0.8161620
382.2279, 0.1074220
382.7101, 1.022369
383.1922, 1.313934
383.6743, 0.8816220
384.1564, 0.5958250
384.6385, 1.083313
385.1206, 2.038452
385.6028, 2.879730
386.0849, 3.571808
386.5670, 3.985199
387.0491, 3.828278
387.5312, 3.333069
388.0133, 2.950195
388.4955, 2.821136
388.9776, 2.888519
389.4597, 3.210388
389.9418, 3.744873
390.4239, 4.207916
390.9060, 4.494385
391.3882, 4.583374
391.8703, 4.363159
392.3524, 3.480743
392.8345, 3.001038
393.3166, 3.953278
393.7987, 5.686340
394.2809, 6.813477
394.7630, 6.225555
395.2451, 5.457275
395.7272, 5.190063
396.2093, 5.593536
396.6914, 5.987946
397.1736, 6.263184
397.6557, 6.389099
398.1378, 6.363953
398.6199, 5.830231
399.1020, 5.581238
399.5841, 6.074829
400.0663, 7.100861
400.5484, 7.187042
401.0305, 5.348785
401.5126, 3.636627
401.9947, 3.146301
402.4768, 4.690430
402.9590, 5.515503
403.4411, 5.318542
403.9232, 4.638062
404.4053, 4.475037
404.8874, 5.053070
405.3695, 5.474060
405.8517, 5.395172
406.3338, 4.862274
406.8159, 4.501068
407.2980, 4.344147
407.7801, 4.264252
408.2622, 4.164246
408.7444, 4.042419
409.2265, 3.807465
409.7086, 3.360046
410.1907, 2.891235
410.6728, 2.875031
411.1549, 3.266663
411.6371, 3.624451
412.1192, 3.647614
412.6013, 3.440948
413.0834, 3.174866
413.5655, 2.837463
414.0476, 2.617523
414.5298, 2.903625
415.0119, 3.422607
415.4940, 3.627747
415.9761, 3.152405
416.4582, 2.440216
416.9403, 1.770996
417.4225, 1.155273
417.9046, 0.6810610
418.3867, 0.4121700
418.8688, 0.3117680
419.3509, 0.3792110
419.8330, 0.6887210
420.3152, 0.9789430
420.7973, 1.311859
421.2794, 1.584473
421.7615, 1.554626
422.2436, 0.7514650
422.7257, 3.3325002E-02
423.2079, 0.2572020
423.6900, 3.8573999E-02
424.1721, 8.1084996E-02
424.6542, 5.8594000E-02
425.1363, 0.2035520
425.6184, 0.1594240
426.1006, 0.3266600
426.5827, 0.5950620
427.0648, 0.4972840
427.5469, 0.1435550
428.0290, 6.2592000E-02
428.5111, 5.2703999E-02
428.9933, 4.8218001E-02
429.4754, 0.2211910
429.9575, 0.6539000
430.4396, 0.5896910
430.9217, 0.1698000
431.4038, 0.9954220
431.8860, 0.8430180
432.3681, 0.3432010
432.8502, 0.8757930
433.3323, 1.8798999E-02
433.8144, 1.650177
434.2965, 1.986603
434.7787, 1.053162
435.2608, 5.5114999E-02
435.7429, 3.0365000E-02
436.2250, 0.4690250
436.7071, 0.6878360
437.1892, 0.4681090
437.6714, 0.2276920
438.1535, 0.5929870
438.6356, 1.282776
439.1177, 1.654053
439.5998, 1.085938
440.0819, 0.3606260
440.5641, 0.1088870
441.0462, 0.2841190
441.5283, 0.4264220
442.0104, 0.1412350
442.4925, 0.2180180
442.9746, 0.3488770
443.4568, 0.1147770
443.9389, 0.2018130
444.4210, 0.4671940
444.9031, 0.7580260
445.3852, 1.224396
445.8673, 2.598358
446.3495, 3.475830
446.8316, 3.185486
447.3137, 1.467651
447.7958, 0.4189150
448.2779, 0.4865110
448.7600, 0.8669740
449.2422, 0.9835510
449.7243, 0.7532350
450.2064, 0.4058230
450.6885, 0.1902160
451.1706, 0.8305360
451.6527, 0.8291020
452.1349, 4.1473001E-02
452.6170, 0.7316280
453.0991, 0.6215210
453.5812, 0.2472230
454.0633, 0.6240840
454.5454, 0.4839780
455.0276, 2.9602000E-02
455.5097, 0.6897890
455.9918, 1.601135
456.4739, 2.191650
456.9560, 2.194580
457.4381, 2.048859
457.9203, 2.672150
458.4024, 3.862885
458.8845, 4.691925
459.3666, 4.400085
459.8488, 3.518402
460.3309, 2.562317
460.8130, 1.554047
461.2951, 0.8116460
461.7772, 0.7266540
462.2593, 0.9900820
462.7415, 1.243835
463.2236, 1.500366
463.7057, 1.596497
464.1878, 1.282166
464.6699, 0.7142330
465.1520, 0.4382020
465.6342, 0.9577330
466.1163, 1.507416
466.5984, 1.721771
467.0805, 1.387085
467.5626, 1.265533
468.0447, 1.542816
468.5269, 1.935364
469.0090, 2.156982
469.4911, 2.120667
469.9732, 2.061096
470.4553, 1.950836
470.9374, 1.843292
471.4196, 2.065186
471.9017, 2.774994
472.3838, 3.306061
472.8659, 3.069183
473.3480, 2.060089
473.8301, 1.835754
474.3123, 2.518005
474.7944, 3.572906
475.2765, 4.629883
475.7586, 5.591187
476.2407, 5.871216
476.7228, 4.921722
477.2050, 3.620789
477.6871, 3.446320
478.1692, 4.207092
478.6513, 4.976715
479.1334, 5.225922
479.6155, 5.163483
480.0977, 4.892120
480.5798, 4.359772
481.0619, 4.073578
481.5440, 4.549927
482.0261, 5.411530
482.5082, 6.215454
482.9904, 6.938416
483.4725, 7.488403
483.9546, 7.925415
484.4367, 8.184967
484.9188, 8.067261
485.4009, 7.109222
485.8831, 6.130737
486.3652, 5.432587
486.8473, 5.038879
487.3294, 4.835022
487.8115, 4.895203
488.2936, 5.063599
488.7758, 5.218414
489.2579, 5.357086
489.7400, 5.283386
490.2221, 4.845062
490.7042, 4.188293
491.1863, 3.863190
491.6685, 3.855835
492.1506, 3.893982
492.6327, 3.811646
493.1148, 3.639465
493.5969, 3.632141
494.0790, 3.844330
494.5612, 3.998962
495.0433, 3.708130
495.5254, 3.176086
496.0075, 2.850464
496.4896, 2.852203
496.9717, 3.110992
497.4539, 3.780670
497.9360, 4.673920
498.4181, 5.279510
498.9002, 5.160797
499.3823, 4.851257
499.8644, 4.560974
500.3466, 4.269928
500.8287, 4.324921
501.3108, 5.278595
501.7929, 6.375824
502.2750, 7.028442
502.7571, 6.704742
503.2393, 6.513794
503.7214, 6.683380
504.2035, 7.018402
504.6856, 6.953613
505.1677, 5.988220
505.6498, 5.270355
506.1320, 5.229126
506.6141, 5.841766
507.0962, 6.231964
507.5783, 6.384308
508.0604, 6.349304
508.5425, 6.066833
509.0247, 5.554871
509.5068, 5.156403
509.9889, 4.929688
510.4710, 4.953796
510.9531, 5.639221
511.4352, 6.728943
511.9174, 7.411194
512.3995, 7.152649
512.8816, 6.503174
513.3637, 5.898865
513.8458, 5.352417
514.3279, 5.056732
514.8101, 5.130768
515.2922, 5.491058
515.7743, 6.144104
516.2564, 7.204132
516.7385, 8.111755
517.2206, 8.720825
517.7028, 9.085663
518.1849, 9.200409
518.6670, 8.695618
519.1491, 8.282013
519.6312, 8.130646
520.1133, 8.176514
520.5955, 8.083832
521.0776, 7.677368
521.5597, 7.470490
522.0418, 7.843231
522.5239, 8.889557
523.0060, 9.082184
523.4882, 8.132874
523.9703, 7.162537
524.4524, 7.690887
524.9345, 9.558533
525.4166, 10.37265
525.8987, 9.350189
526.3809, 7.760498
526.8630, 7.788727
527.3451, 9.060364
527.8272, 10.04547
528.3093, 9.487793
528.7914, 8.524719
529.2736, 8.527466
529.7557, 9.451141
530.2378, 10.30951
530.7199, 10.33466
531.2020, 10.09857
531.6841, 10.14371
532.1663, 10.86929
532.6484, 11.20685
533.1305, 10.41147
533.6126, 9.229065
534.0947, 8.720703
534.5768, 9.934662
535.0590, 10.72220
535.5411, 10.57538
536.0232, 9.634186
536.5053, 8.789185
536.9874, 8.028809
537.4695, 7.471771
537.9517, 7.195465
538.4338, 7.209534
538.9159, 7.476440
539.3980, 8.082764
539.8801, 8.658112
540.3622, 8.677887
540.8444, 8.259796
541.3265, 8.011078
541.8086, 8.173492
542.2907, 8.361725
542.7728, 7.834595
543.2549, 6.838867
543.7371, 6.123322
544.2192, 6.593597
544.7013, 7.172211
545.1834, 6.914063
545.6655, 5.853210
546.1476, 4.916992
546.6298, 4.501587
547.1119, 4.342773
547.5940, 4.281769
548.0761, 4.341705
548.5582, 4.424835
549.0403, 4.747772
549.5225, 4.985779
550.0046, 4.665253
550.4867, 3.257446
550.9688, 2.372101
551.4509, 2.360687
551.9330, 3.042267
552.4152, 3.957367
552.8973, 5.241638
553.3794, 5.957458
553.8615, 5.161041
554.3436, 3.246460
554.8257, 2.548035
555.3079, 3.131470
555.7900, 3.827759
556.2721, 3.494019
556.7542, 2.543152
557.2363, 1.690155
557.7184, 1.047211
558.2006, 0.6441960
558.6827, 0.6267400
559.1648, 0.8488770
559.6469, 1.064423
560.1290, 1.459869
560.6111, 1.559235
561.0933, 0.8005680
561.5754, 0.6021730
562.0575, 1.227722
562.5396, 5.3162001E-02
563.0217, 1.284363
563.5038, 1.628693
563.9860, 0.7902530
564.4681, 0.5021670
564.9502, 1.023376
565.4323, 1.690796
565.9144, 1.825012
566.3965, 1.383209
566.8787, 0.9202880
567.3608, 0.4649350
567.8429, 0.1216740
568.3250, 0.2023930
568.8071, 0.6217960
569.2892, 0.9029240
569.7714, 0.6785580
570.2535, 0.2995000
570.7356, 0.3047180
571.2177, 0.6263730
571.6998, 0.8620610
572.1819, 0.6186830
572.6641, 0.3026430
573.1462, 0.3052980
573.6283, 0.7719730
574.1104, 0.9889530
574.5925, 0.3023990
575.0746, 0.5025940
575.5568, 0.7092900
576.0389, 0.3522950
576.5210, 1.174652
577.0031, 1.780945
577.4852, 2.086578
577.9673, 1.832886
578.4495, 0.8021550
578.9316, 0.1013180
579.4137, 0.6585690
579.8958, 0.8562930
580.3779, 0.5032350
580.8600, 0.4269410
581.3422, 1.293304
581.8243, 1.631897
582.3064, 1.592010
582.7885, 1.450775
583.2706, 1.219604
583.7527, 1.016571
584.2349, 0.8224790
584.7170, 0.7501530
585.1991, 1.007080
585.6812, 2.081970
586.1633, 2.734833
586.6454, 2.031769
587.1276, 0.6058960
587.6097, 0.3802800
588.0918, 0.4470830
588.5739, 0.3594670
589.0560, 0.2798460
589.5381, 0.1897580
590.0203, 0.1132200
590.5024, 0.8886720
590.9845, 1.364502
591.4666, 0.9826050
591.9487, 0.2696530
592.4308, 0.8768310
592.9130, 0.7612920
593.3951, 0.3759770
593.8772, 6.6497996E-02
594.3593, 0.1595460
594.8414, 0.2051090
595.3235, 2.1057000E-02
595.8057, 0.1728520
596.2878, 0.2741090
596.7699, 1.028351
597.2520, 1.536072
597.7341, 1.510468
598.2162, 1.250793
598.6984, 0.7386470
599.1805, 7.4188001E-02
599.6626, 0.3913570
600.1447, 0.7033690
600.6268, 0.6835330
601.1089, 8.9905001E-02
601.5911, 1.174561
602.0732, 1.754669
602.5553, 1.326874
603.0374, 0.7234800
603.5195, 0.5114140
604.0016, 0.7096560
604.4838, 1.122009
604.9659, 1.810242
605.4480, 2.465210
605.9301, 2.597809
606.4122, 2.329254
606.8943, 2.161896
607.3765, 2.275269
607.8586, 2.472076
608.3407, 2.536011
608.8228, 2.508850
609.3049, 2.489685
609.7870, 2.704102
610.2692, 2.775940
610.7513, 2.287964
611.2334, 1.318756
611.7155, 0.8189090
612.1976, 1.283539
612.6797, 1.995483
613.1619, 2.677917
613.6440, 3.382050
614.1261, 3.851440
614.6082, 4.056580
615.0903, 4.086487
615.5724, 3.953278
616.0546, 3.645599
616.5367, 3.552948
617.0188, 3.771240
617.5009, 4.088898
617.9830, 4.216675
618.4651, 4.184265
618.9473, 4.089539
619.4294, 3.874664
619.9115, 3.631134
620.3936, 3.482086
620.8757, 3.408356
621.3578, 3.547974
621.8400, 4.186035
622.3221, 4.853607
622.8042, 5.141571
623.2863, 5.027344
623.7684, 5.551880
624.2505, 7.731995
624.7327, 9.682220
625.2148, 10.34540
625.6969, 9.281036
626.1790, 8.748138
626.6611, 8.860931
627.1432, 9.282928
627.6254, 9.751312
628.1075, 10.25146
628.5896, 10.52899
629.0717, 10.44437
629.5538, 10.39343
630.0359, 11.11133
630.5181, 12.28445
631.0002, 13.14648
631.4823, 13.03506
631.9644, 12.85031
632.4465, 13.25415
632.9286, 14.07608
633.4108, 14.89380
633.8929, 15.86249
634.3750, 16.59546
634.8571, 16.79178
635.3392, 16.41214
635.8214, 16.52521
636.3035, 17.52603
636.7856, 18.45178
637.2677, 18.67865
637.7498, 18.11188
638.2319, 17.75516
638.7141, 17.58112
639.1962, 17.77487
639.6783, 18.90790
640.1604, 20.66898
640.6425, 21.70035
641.1246, 21.55823
641.6068, 21.33252
642.0889, 22.31119
642.5710, 23.95996
643.0531, 25.33664
643.5352, 26.15210
644.0173, 26.56458
644.4995, 26.23001
644.9816, 25.50867
645.4637, 25.41714
645.9458, 27.03564
646.4279, 28.31714
646.9100, 28.44611
647.3922, 27.59149
647.8743, 28.23203
648.3564, 31.02393
648.8385, 33.32712
649.3206, 33.12247
649.8027, 30.75708
650.2849, 29.66672
650.7670, 29.95956
651.2491, 30.80173
651.7312, 31.68137
652.2133, 32.50104
652.6954, 33.11432
653.1776, 33.46332
653.6597, 33.69751
654.1418, 33.81998
654.6239, 33.94934
655.1060, 34.23627
655.5881, 35.00552
656.0703, 35.58649
656.5524, 35.87589
657.0345, 35.91003
657.5166, 35.66919
657.9987, 34.98172
658.4808, 34.49973
658.9630, 34.44925
659.4451, 34.69751
659.9272, 34.94745
660.4093, 35.20435
660.8914, 35.18716
661.3735, 34.48376
661.8557, 33.50458
662.3378, 33.10297
662.8199, 33.26755
663.3020, 33.40878
663.7841, 33.18219
664.2662, 32.69046
664.7484, 31.90283
665.2305, 30.78024
665.7126, 30.03131
666.1947, 30.21857
666.6768, 30.57840
667.1589, 30.56079
667.6411, 30.00186
668.1232, 29.34644
668.6053, 28.40894
669.0874, 27.61862
669.5695, 27.81430
670.0516, 29.01306
670.5338, 29.31357
671.0159, 28.06912
671.4980, 26.33847
671.9801, 25.83023
672.4622, 26.15411
672.9443, 26.22009
673.4265, 25.07181
673.9086, 23.97052
674.3907, 24.12610
674.8728, 25.10318
675.3549, 25.52747
675.8370, 24.34323
676.3192, 23.21213
676.8013, 22.82806
677.2834, 23.09628
677.7655, 23.24701
678.2476, 23.24796
678.7297, 23.16806
679.2119, 23.15192
679.6940, 23.16708
680.1761, 22.29446
680.6582, 20.43634
681.1403, 18.77090
681.6224, 18.58582
682.1046, 19.21652
682.5867, 19.38507
683.0688, 18.89673
683.5509, 18.34796
684.0330, 17.97354
684.5151, 17.80881
684.9973, 17.92026
685.4794, 18.82941
685.9615, 19.20746
686.4436, 18.44507
686.9257, 17.23724
687.4078, 16.34760
687.8900, 15.76910
688.3721, 15.62186
688.8542, 16.18542
689.3363, 16.85742
689.8184, 16.20520
690.3005, 14.37918
690.7827, 12.98813
691.2648, 12.80597
691.7469, 13.23544
692.2290, 13.67978
692.7111, 14.06070
693.1932, 14.08649
693.6754, 13.13278
694.1575, 12.16592
694.6396, 11.85904
695.1217, 12.17615
695.6038, 12.18552
696.0859, 11.41214
696.5681, 10.65213
697.0502, 10.22656
697.5323, 10.15338
698.0144, 9.932495
698.4965, 9.520111
698.9786, 9.131470
699.4608, 8.987030
699.9429, 9.016388
700.4250, 8.886566
700.9071, 8.576874
701.3892, 8.209198
701.8713, 8.075989
702.3535, 7.863525
702.8356, 7.014526
703.3177, 5.021362
703.7998, 3.736359
704.2819, 4.554138
704.7640, 6.101105
705.2462, 6.894562
705.7283, 6.446808
706.2104, 5.899536
706.6925, 5.207214
707.1746, 4.516296
707.6567, 4.117157
708.1389, 4.036133
708.6210, 3.805389
709.1031, 3.258270
709.5852, 2.614685
710.0673, 2.181946
710.5494, 1.954041
711.0316, 1.902100
711.5137, 2.349854
711.9958, 2.666565
712.4779, 2.124329
712.9600, 1.076660
713.4421, 0.6074520
713.9243, 1.676514
714.4064, 2.652100
714.8885, 3.102081
715.3706, 3.053314
715.8527, 2.552887
716.3348, 1.328552
716.8170, 0.4833070
717.2991, 0.8139650
717.7812, 2.000946
718.2633, 2.386414
718.7454, 1.982941
719.2275, 1.213501
719.7097, 0.1061100
720.1918, 1.362701
720.6739, 1.756958
721.1560, 1.218597
721.6381, 0.4353940
722.1202, 0.7643430
722.6024, 1.738556
723.0845, 1.948822
723.5666, 0.9841610
724.0487, 0.4401550
724.5308, 0.4346920
725.0129, 0.6926270
725.4951, 1.139771
725.9772, 1.821899
726.4593, 1.771484
726.9414, 0.7857670
727.4235, 0.3248290
727.9056, 0.4953000
728.3878, 0.1121220
728.8699, 6.9274999E-02
729.3520, 0.7363280
729.8341, 1.291595
730.3162, 1.124207
730.7983, 0.5400090
731.2805, 7.8704998E-02
731.7626, 1.019989
732.2447, 1.496338
732.7268, 1.323395
733.2089, 0.7301640
733.6910, 4.0679999E-02
734.1732, 1.152924
734.6553, 1.629852
735.1374, 1.098846
735.6195, 7.9437003E-02
736.1016, 0.5101320
736.5837, 0.7138980
737.0659, 0.7161250
737.5480, 0.4466250
738.0301, 0.1555480
738.5122, 0.1196290
738.9943, 0.2394410
739.4764, 0.2646790
739.9586, 4.6569999E-02
740.4407, 0.2184750
740.9228, 0.5777590
741.4049, 0.9572140
741.8870, 0.9657290
742.3691, 0.4549870
742.8513, 2.9846000E-02
743.3334, 0.2919620
743.8155, 0.3685610
744.2976, 0.4239500
744.7797, 0.4554750
745.2618, 0.3658450
745.7440, 0.2271730
746.2261, 0.7752690
746.7082, 0.3870540
747.1903, 0.8206480
747.6724, 1.648224
748.1545, 1.273682
748.6367, 0.6205440
749.1188, 0.1464230
749.6009, 0.1142580
750.0830, 0.3555600
750.5651, 0.6611020
751.0472, 0.8092650
751.5294, 0.6083070
752.0115, 7.1135998E-02
752.4936, 0.3691710
752.9757, 0.7167360
753.4578, 0.9408570
753.9399, 1.003510
754.4221, 0.9286800
754.9042, 0.6947020
755.3863, 0.2860110
755.8684, 3.9733998E-02
756.3505, 0.1323850
756.8326, 9.7259998E-02
757.3148, 1.7639000E-02
757.7969, 0.3319700
758.2790, 0.3532410
758.7611, 0.1635440
759.2432, 0.6408690
759.7253, 0.5068360
760.2075, 0.2545470
760.6896, 0.9368590
761.1717, 1.522766
761.6538, 1.855560
762.1359, 1.600342
762.6180, 1.022522
763.1002, 0.5445560
763.5823, 0.1764220
764.0644, 0.1943660
764.5465, 1.361969
765.0286, 2.709167
765.5107, 3.178528
765.9929, 1.665039
766.4750, 0.7380980
766.9571, 0.5346370
767.4392, 0.7977910
767.9213, 1.342957
768.4034, 2.194794
768.8856, 2.618591
769.3677, 2.365448
769.8498, 2.061218
770.3319, 2.655334
770.8140, 3.782440
771.2961, 4.693939
771.7783, 5.179382
772.2604, 5.366394
772.7425, 5.059479
773.2246, 4.571136
773.7067, 4.386322
774.1888, 4.919830
774.6710, 5.199951
775.1531, 5.015717
775.6352, 4.665253
776.1173, 4.792023
776.5994, 5.416656
777.0815, 5.738159
777.5637, 5.477814
778.0458, 4.886017
778.5279, 4.251526
779.0100, 3.724487
779.4921, 3.536652
779.9742, 3.870026
780.4564, 4.403107
780.9385, 5.217834
781.4206, 6.120422
781.9027, 6.677704
782.3848, 6.710205
782.8669, 6.657135
783.3491, 6.504669
783.8312, 6.367188
784.3133, 6.664337
784.7954, 7.381470
785.2775, 7.687927
785.7596, 7.185486
786.2418, 6.422272
786.7239, 5.975494
787.2060, 5.783722
787.6881, 5.785553
788.1702, 6.246216
788.6523, 6.686462
789.1345, 6.776367
789.6166, 6.663971
790.0987, 6.904541
790.5808, 7.846832
791.0629, 8.433472
791.5450, 8.343140
792.0272, 7.716522
792.5093, 7.023193
792.9914, 6.329681
793.4735, 5.856781
793.9556, 5.637451
794.4377, 5.623322
794.9199, 5.808136
795.4020, 6.168427
795.8841, 6.626465
796.3662, 7.483673
796.8483, 8.087158
797.3304, 7.871582
797.8126, 7.207733
798.2947, 7.354828
798.7768, 8.759033
799.2589, 9.674896
799.7410, 9.483673
800.2231, 8.659637
800.7053, 8.299164
801.1874, 8.329620
801.6695, 8.457703
802.1516, 8.736847
802.6337, 8.880280
803.1158, 8.434845
803.5980, 7.628113
804.0801, 7.085114
804.5622, 7.125000
805.0443, 7.431091
805.5264, 7.980316
806.0085, 8.689819
806.4907, 9.330017
806.9728, 9.923859
807.4549, 10.29608
807.9370, 10.29852
808.4191, 10.13089
808.9012, 10.14685
809.3834, 10.37302
809.8655, 10.85297
810.3476, 12.13361
810.8297, 13.13248
811.3118, 12.99835
811.7939, 12.03998
812.2761, 11.16168
812.7582, 10.34732
813.2403, 9.839539
813.7224, 9.692749
814.2045, 9.883270
814.6866, 10.53357
815.1688, 11.64343
815.6509, 12.31171
816.1330, 11.91974
816.6151, 11.26624
817.0972, 11.66214
817.5793, 12.75626
818.0615, 13.61377
818.5436, 13.51813
819.0257, 13.39679
819.5078, 13.67804
819.9899, 14.19363
820.4720, 14.47882
820.9542, 14.50754
821.4363, 14.31696
821.9184, 13.78674
822.4005, 13.18231
822.8826, 13.15546
823.3647, 13.62979
823.8469, 14.18329
824.3290, 14.82199
824.8111, 15.25870
825.2932, 15.01266
825.7753, 14.41183
826.2574, 14.10776
826.7396, 14.65674
827.2217, 15.05502
827.7038, 15.08920
828.1859, 14.90503
828.6681, 14.71774
829.1502, 14.49344
829.6323, 14.51431
830.1144, 14.85907
830.5966, 15.44080
831.0787, 16.26709
831.5608, 17.22357
832.0429, 18.10345
832.5250, 19.12985
833.0071, 19.56284
833.4893, 18.39957
833.9714, 16.60309
834.4535, 15.73166
834.9356, 16.48862
835.4177, 16.90167
835.8998, 16.68872
836.3820, 16.23834
836.8641, 16.04669
837.3462, 16.11804
837.8283, 16.58945
838.3104, 17.63596
838.7925, 18.52524
839.2747, 18.30215
839.7568, 17.55774
840.2389, 17.11737
840.7210, 17.40237
841.2031, 17.61578
841.6852, 17.58820
842.1674, 17.43329
842.6495, 17.19516
843.1316, 16.81314
843.6137, 16.80737
844.0958, 17.30804
844.5779, 17.84732
845.0601, 17.73404
845.5422, 17.28992
846.0243, 17.28149
846.5064, 17.94778
846.9885, 18.41135
847.4706, 17.76544
847.9528, 16.96494
848.4349, 16.94809
848.9170, 18.30133
849.3991, 18.74796
849.8812, 17.90848
850.3633, 16.90094
850.8455, 16.77576
851.3276, 17.36658
851.8097, 17.48944
852.2918, 17.07718
852.7739, 16.71628
853.2560, 16.91360
853.7382, 17.23407
854.2203, 17.36166
854.7024, 17.28656
855.1845, 17.20432
855.6666, 16.95413
856.1487, 16.91425
856.6309, 17.38470
857.1130, 18.29306
857.5951, 18.51892
858.0772, 18.01303
858.5593, 17.43887
859.0414, 17.20154
859.5236, 17.19012
860.0057, 17.29663
860.4878, 17.49179
860.9699, 17.63702
861.4520, 17.68616
861.9341, 17.63251
862.4163, 17.38962
862.8984, 17.00803
863.3805, 16.88974
863.8626, 17.16486
864.3447, 17.22748
864.8268, 16.63681
865.3090, 15.82880
865.7911, 16.10349
866.2732, 17.20261
866.7553, 18.05716
867.2374, 17.97855
867.7195, 17.62756
868.2017, 17.29468
868.6838, 16.97540
869.1659, 16.79578
869.6480, 16.86072
870.1301, 16.88782
870.6122, 16.89899
871.0944, 16.81070
871.5765, 16.20901
872.0586, 15.11179
872.5407, 14.25131
873.0228, 13.94150
873.5049, 13.84909
873.9871, 13.83020
874.4692, 13.77460
874.9513, 13.50922
875.4334, 12.42905
875.9155, 11.96490
876.3976, 12.61578
876.8798, 13.54147
877.3619, 13.70135
877.8440, 13.07541
878.3261, 12.68661
878.8082, 12.63922
879.2903, 12.49213
879.7725, 11.47989
880.2546, 10.23270
880.7367, 9.757172
881.2188, 10.40836
881.7009, 10.91516
882.1830, 10.67111
882.6652, 10.18314
883.1473, 9.812103
883.6294, 9.573151
884.1115, 9.454926
884.5936, 9.459473
885.0757, 9.599792
885.5579, 10.13931
886.0400, 10.74780
886.5221, 10.73727
887.0042, 10.10559
887.4863, 9.179016
887.9684, 7.584961
888.4506, 6.263550
888.9327, 5.973969
889.4148, 6.634003
889.8969, 6.814117
890.3790, 6.244873
890.8611, 5.824158
891.3433, 6.039490
891.8254, 6.636139
892.3075, 6.980469
892.7896, 7.079071
893.2717, 7.000214
893.7538, 6.543457
894.2360, 6.143005
894.7181, 6.165375
895.2002, 6.439545
895.6823, 6.498138
896.1644, 6.232941
896.6465, 5.900208
897.1287, 5.501678
897.6108, 5.162445
898.0929, 5.295380
898.5750, 5.715820
899.0571, 5.473480
899.5392, 4.035309
900.0214, 2.679382
900.5035, 2.542969
900.9856, 3.026855
901.4677, 3.428528
901.9498, 3.549835
902.4319, 3.705322
902.9141, 3.966278
903.3962, 4.164276
903.8783, 4.087006
904.3604, 3.770386
904.8425, 3.611725
905.3246, 3.640289
905.8068, 3.656158
906.2889, 3.578949
906.7710, 3.350159
907.2531, 2.795013
907.7352, 1.865112
908.2173, 1.290955
908.6995, 1.639893
909.1816, 1.685852
909.6637, 0.6475220
910.1458, 1.187347
910.6279, 1.646515
911.1100, 0.7988280
911.5922, 6.6192999E-02
912.0743, 0.4279170
912.5564, 1.116211
913.0385, 1.603882
913.5206, 1.818939
914.0027, 1.551453
914.4849, 0.1103210
914.9670, 1.057465
915.4491, 1.694885
915.9312, 1.911377
916.4133, 1.899719
916.8954, 1.663879
917.3776, 1.217468
917.8597, 0.4530640
918.3418, 0.2018130
918.8239, 0.1119380
919.3060, 0.3289180
919.7881, 0.5453190
920.2703, 0.1769410
920.7524, 4.3304000E-02
921.2345, 0.4387210
921.7166, 0.9143370
922.1987, 1.035889
922.6808, 0.7796330
923.1630, 0.9919430
923.6451, 1.759857
924.1272, 2.264862
924.6093, 1.377960
925.0914, 0.1435550
925.5735, 0.2819520
926.0557, 0.1691590
926.5378, 0.7182920
927.0199, 1.759766
927.5020, 2.196899
927.9841, 1.316437
928.4662, 0.5247190
928.9484, 1.088867
929.4305, 0.3919980
929.9126, 0.5476380
930.3947, 1.452698
930.8768, 2.143036
931.3589, 2.357208
931.8411, 2.192047
932.3232, 1.851349
932.8053, 1.061371
933.2874, 0.5874630
933.7695, 0.7720950
934.2516, 1.125763
934.7338, 0.7665410
935.2159, 0.2971190
935.6980, 0.7473450
936.1801, 0.2863770
936.6622, 0.3217470
937.1443, 0.3150630
937.6265, 7.3239999E-03
938.1086, 0.3460390
938.5907, 0.7280270
939.0728, 0.8039550
939.5549, 0.4462890
940.0370, 0.1298830
940.5192, 0.9377750
941.0013, 1.936951
941.4834, 2.247925
941.9655, 1.884979
942.4476, 1.566345
942.9297, 1.979675
943.4119, 2.507629
943.8940, 2.576935
944.3761, 2.226410
944.8582, 1.717438
945.3403, 1.007629
945.8224, 0.2528080
946.3046, 0.6725160
946.7867, 1.491425
947.2688, 1.340790
947.7509, 0.3549500
948.2330, 0.3179020
948.7151, 0.2674870
949.1973, 6.2622003E-02
949.6794, 0.1976010
950.1615, 0.4933170
950.6436, 0.7432560
951.1257, 0.9732060
951.6078, 0.9934080
952.0900, 0.6838990
952.5721, 0.3707890
953.0542, 0.4249880
953.5363, 0.7492680
954.0184, 0.6801450
954.5005, 0.2049870
954.9827, 0.2749020
955.4648, 0.6499020
955.9469, 0.7920840
956.4290, 0.5514220
956.9111, 6.0059000E-02
957.3932, 0.7670590
957.8754, 1.717743
958.3575, 2.357422
958.8396, 2.407806
959.3217, 2.134735
959.8038, 2.196075
960.2859, 2.490692
960.7681, 2.668274
961.2502, 2.562958
961.7323, 2.367432
962.2144, 2.050385
962.6965, 1.779266
963.1786, 1.809479
963.6608, 2.364807
964.1429, 2.546265
964.6250, 2.201172
965.1071, 1.908844
965.5892, 2.590271
966.0714, 3.669434
966.5535, 3.771667
967.0356, 2.813843
967.5177, 1.896332
967.9998, 1.685394
968.4819, 1.499054
968.9641, 0.9100040
969.4462, 8.4530003E-03
969.9283, 0.3797910
970.4104, 0.2315370
970.8925, 4.4525001E-02
971.3746, 0.3888550
971.8568, 0.6931150
972.3389, 0.6698910
972.8210, 0.4513240
973.3031, 0.4651490
973.7852, 1.142975
974.2673, 1.670044
974.7495, 1.703064
975.2316, 1.680176
975.7137, 2.211792
976.1958, 3.342316
976.6779, 3.587036
977.1600, 2.734192
977.6422, 2.177216
978.1243, 4.078827
978.6064, 6.321014
979.0885, 6.293335
979.5706, 3.752563
980.0527, 2.000763
980.5349, 2.175659
981.0170, 2.278717
981.4991, 1.493591
981.9812, 0.1758420
982.4633, 0.4815060
982.9454, 0.5317690
983.4276, 0.2761230
983.9097, 0.4353940
984.3918, 1.089264
984.8739, 1.191010
985.3560, 1.059753
985.8381, 1.206940
986.3203, 1.776489
986.8024, 2.297394
987.2845, 2.902954
987.7666, 3.358887
988.2487, 3.272125
988.7308, 2.848938
989.2130, 2.707550
989.6951, 2.883423
990.1772, 2.803711
990.6593, 1.534210
991.1414, 0.5201420
991.6235, 0.7961120
992.1057, 2.072388
992.5878, 2.697998
993.0699, 2.533813
993.5520, 2.476501
994.0341, 3.072144
994.5162, 3.702148
994.9984, 3.141571
995.4805, 1.968628
995.9626, 1.319641
996.4447, 2.055389
996.9268, 2.489868
997.4089, 2.185760
997.8911, 1.774567
998.3732, 1.895111
998.8553, 2.506470
999.3374, 2.578003
999.8195, 2.065918
1000.302, 1.519470
1000.784, 1.197113
1001.266, 1.138062
1001.748, 1.521118
1002.230, 2.277649
1002.712, 2.724792
1003.194, 2.671692
1003.676, 2.615662
1004.159, 2.687622
1004.641, 2.726501
1005.123, 2.288116
1005.605, 1.646149
1006.087, 1.516327
1006.569, 2.301849
1007.051, 2.975616
1007.533, 2.927368
1008.016, 2.665070
1008.498, 2.653931
1008.980, 2.951080
1009.462, 3.240753
1009.944, 3.541504
1010.426, 3.708954
1010.908, 3.735352
1011.390, 3.527924
1011.872, 2.533966
1012.355, 1.050507
1012.837, 0.4114070
1013.319, 1.857483
1013.801, 3.208496
1014.283, 4.164795
1014.765, 4.701202
1015.247, 4.360352
1015.729, 3.332245
1016.211, 3.484161
1016.694, 5.467224
1017.176, 7.155518
1017.658, 6.401337
1018.140, 4.851349
1018.622, 3.998230
1019.104, 4.090210
1019.586, 4.174530
1020.068, 4.280762
1020.551, 4.295654
1021.033, 4.046753
1021.515, 3.744659
1021.997, 3.968048
1022.479, 4.537079
1022.961, 4.918671
1023.443, 4.553589
1023.925, 4.386810
1024.407, 4.921631
1024.890, 5.623352
1025.372, 5.702209
1025.854, 5.123047
1026.336, 5.164978
1026.818, 5.988159
1027.300, 6.895386
1027.782, 7.436310
1028.264, 7.716949
1028.746, 7.674225
1029.229, 7.311768
1029.711, 7.350433
1030.193, 8.113739
1030.675, 8.613190
1031.157, 8.424377
1031.639, 7.897278
1032.121, 7.937408
1032.603, 8.305023
1033.086, 8.190460
1033.568, 6.965637
1034.050, 6.053680
1034.532, 6.537140
1035.014, 7.318787
1035.496, 7.359467
1035.978, 6.494415
1036.460, 6.100922
1036.943, 6.202972
1037.425, 6.501068
1037.907, 7.055267
1038.389, 7.485779
1038.871, 7.022858
1039.353, 5.988617
1039.835, 5.759521
1040.317, 7.386292
1040.799, 8.453674
1041.281, 8.501099
1041.764, 8.039368
1042.246, 7.668335
1042.728, 7.428467
1043.210, 7.628967
1043.692, 8.425323
1044.174, 8.836517
1044.656, 7.618011
1045.138, 6.458893
1045.621, 6.730469
1046.103, 8.266998
1046.585, 8.488678
1047.067, 7.295837
1047.549, 6.134155
1048.031, 5.594391
1048.513, 5.493713
1048.995, 5.942566
1049.478, 6.613892
1049.960, 6.935852
1050.442, 5.696320
1050.924, 5.943451
1051.406, 8.533264
1051.888, 11.10944
1052.370, 11.37970
1052.852, 9.898315
1053.334, 8.262543
1053.817, 6.600555
1054.299, 5.370911
1054.781, 4.831665
1055.263, 4.796875
1055.745, 5.646759
1056.227, 6.783844
1056.709, 6.609772
1057.191, 5.023895
1057.673, 4.080322
1058.156, 4.291840
1058.638, 4.847137
1059.120, 5.047211
1059.602, 5.051300
1060.084, 4.913940
1060.566, 4.536285
1061.048, 4.914978
1061.530, 6.593872
1062.013, 7.754120
1062.495, 7.282288
1062.977, 5.902344
1063.459, 5.369171
1063.941, 5.435638
1064.423, 5.388855
1064.905, 4.762512
1065.387, 4.304688
1065.870, 4.169647
1066.352, 4.276245
1066.834, 4.878052
1067.316, 6.010895
1067.798, 6.085449
1068.280, 5.045349
1068.762, 4.094299
1069.244, 4.243103
1069.726, 4.694427
1070.208, 4.864685
1070.691, 4.779877
1071.173, 4.669922
1071.655, 4.502350
1072.137, 4.383728
1072.619, 4.268066
1073.101, 4.404510
1073.583, 5.654907
1074.065, 7.129242
1074.548, 7.261719
1075.030, 5.604980
1075.512, 4.359100
1075.994, 4.473724
1076.476, 4.607788
1076.958, 4.169861
1077.440, 3.433563
1077.922, 3.487610
1078.405, 4.081207
1078.887, 4.166992
1079.369, 2.884766
1079.851, 1.838593
1080.333, 2.287384
1080.815, 3.215302
1081.297, 3.415497
1081.779, 2.635437
1082.261, 2.840546
1082.744, 4.080414
1083.226, 5.000122
1083.708, 4.444000
1084.190, 3.278748
1084.672, 2.002014
1085.154, 0.8642270
1085.636, 0.7122800
1086.118, 2.464752
1086.601, 3.405762
1087.083, 3.007904
1087.565, 2.213715
1088.047, 2.246826
1088.529, 2.772522
1089.011, 3.205597
1089.493, 3.471680
1089.975, 3.277527
1090.458, 1.674652
1090.940, 0.6328430
1091.422, 1.047089
1091.904, 2.330841
1092.386, 2.714355
1092.868, 2.334229
1093.350, 2.105042
1093.832, 2.326904
1094.314, 2.612183
1094.797, 2.761627
1095.279, 2.811096
1095.761, 2.856171
1096.243, 2.937317
1096.725, 2.361938
1097.207, 1.056885
1097.689, 1.0345000E-02
1098.171, 0.1402890
1098.653, 0.1482850
1099.136, 0.4948430
1099.618, 0.8580020
1100.100, 1.161377
1100.582, 1.415375
1101.064, 1.485962
1101.546, 1.238800
1102.028, 1.128174
1102.510, 1.863190
1102.993, 2.939331
1103.475, 3.214600
1103.957, 2.747467
1104.439, 2.190338
1104.921, 1.520111
1105.403, 1.206024
1105.885, 1.477600
1106.367, 2.028198
1106.849, 2.462799
1107.332, 2.725281
1107.814, 2.303375
1108.296, 1.050415
1108.778, 0.1620480
1109.260, 0.9023130
1109.742, 1.777191
1110.224, 1.670319
1110.706, 0.8394780
1111.188, 0.7966920
1111.671, 1.557159
1112.153, 2.001648
1112.635, 1.571075
1113.117, 1.218781
1113.599, 2.368591
1114.081, 3.864563
1114.563, 4.169556
1115.045, 2.759583
1115.528, 2.248810
1116.010, 2.865295
1116.492, 3.440765
1116.974, 3.263245
1117.456, 2.697571
1117.938, 2.132843
1118.420, 1.633575
1118.902, 1.325562
1119.385, 1.575409
1119.867, 1.483734
1120.349, 0.8156130
1120.831, 0.1971740
1121.313, 0.4880980
1121.795, 1.222260
1122.277, 0.7572940
1122.759, 0.6997990
1123.241, 1.673920
1123.724, 1.017151
1124.206, 0.3528440
1124.688, 0.1574400
1125.170, 0.2127380
1125.652, 0.2610170
1126.134, 0.2763370
1126.616, 7.7209999E-03
1127.098, 0.6315920
1127.580, 1.165680
1128.063, 1.298492
1128.545, 1.274719
1129.027, 1.278351
1129.509, 1.256561
1129.991, 0.8396300
1130.473, 1.3000000E-02
1130.955, 0.2476810
1131.437, 0.4671940
1131.920, 1.185944
1132.402, 0.8323360
1132.884, 0.1418460
1133.366, 0.1125180
1133.848, 0.1654660
1134.330, 0.1166690
1134.812, 0.3680420
1135.294, 0.5733030
1135.776, 6.4514004E-02
1136.259, 0.6658630
1136.741, 0.9119570
1137.223, 0.9446410
1137.705, 1.259583
1138.187, 2.477081
1138.669, 2.556519
1139.151, 0.9872740
1139.633, 0.4393010
1140.115, 0.3252260
1140.598, 0.6659550
1141.080, 1.310120
1141.562, 1.652008
1142.044, 1.837128
1142.526, 1.819519
1143.008, 1.773743
1143.490, 1.687836
1143.972, 1.653015
1144.455, 1.840149
1144.937, 2.144836
1145.419, 2.168762
1145.901, 1.934814
1146.383, 1.721985
1146.865, 2.022522
1147.347, 1.880035
1147.829, 0.7264710
1148.312, 0.7152400
1148.794, 1.428375
1149.276, 1.430969
1149.758, 0.5836490
1150.240, 1.139984
1150.722, 2.524597
1151.204, 2.659485
1151.686, 2.341278
1152.168, 1.747253
1152.651, 1.128998
1153.133, 1.442719
1153.615, 2.622589
1154.097, 2.973816
1154.579, 1.920166
1155.061, 0.9729920
1155.543, 1.768250
1156.025, 2.869843
1156.507, 2.924072
1156.990, 2.049408
1157.472, 1.617065
1157.954, 1.648560
1158.436, 1.810760
1158.918, 1.979675
1159.400, 2.261536
1159.882, 3.031982
1160.364, 3.831207
1160.847, 4.015076
1161.329, 3.400146
1161.811, 3.186035
1162.293, 3.451416
1162.775, 3.605865
1163.257, 3.190308
1163.739, 2.695160
1164.221, 2.991669
1164.703, 3.550232
1165.186, 3.416748
1165.668, 1.704987
1166.150, 1.087402
1166.632, 1.856354
1167.114, 2.650665
1167.596, 2.197876
1168.078, 1.310944
1168.560, 1.490540
1169.042, 2.340668
1169.525, 2.780853
1170.007, 2.165466
1170.489, 1.731537
1170.971, 1.607758
1171.453, 1.511597
1171.935, 1.104675
1172.417, 0.5538330
1172.899, 5.6488000E-02
1173.382, 0.3139340
1173.864, 0.2618100
1174.346, 0.6209720
1174.828, 1.547058
1175.310, 2.502594
1175.792, 3.302673
1176.274, 3.813171
1176.756, 3.963593
1177.239, 3.387146
1177.721, 2.130432
1178.203, 1.227783
1178.685, 1.119354
1179.167, 1.488190
1179.649, 2.541809
1180.131, 3.624329
1180.613, 3.334259
1181.095, 2.114136
1181.578, 1.331696
1182.060, 1.153107
1182.542, 1.421448
1183.024, 2.723022
1183.506, 3.647766
1183.988, 3.598328
1184.470, 2.969604
1184.952, 2.657013
1185.434, 2.578735
1185.917, 2.420898
1186.399, 2.070770
1186.881, 1.870300
1187.363, 2.010162
1187.845, 2.335266
1188.327, 2.863037
1188.809, 3.449799
1189.291, 3.549561
1189.774, 3.246735
1190.256, 3.068939
1190.738, 3.269714
1191.220, 3.339111
1191.702, 2.770081
1192.184, 2.288452
1192.666, 2.425476
1193.148, 3.053192
1193.630, 3.220428
1194.113, 2.985870
1194.595, 2.766693
1195.077, 2.696869
1195.559, 2.766663
1196.041, 3.323090
1196.523, 3.704498
1197.005, 3.215698
1197.487, 1.915131
1197.969, 1.569763
1198.452, 2.086334
1198.934, 2.510040
1199.416, 2.224152
1199.898, 1.899353
1200.380, 1.889160
1200.862, 1.968262
1201.344, 1.852173
1201.826, 1.542725
1202.309, 1.657257
1202.791, 2.179626
1203.273, 2.843536
1203.755, 3.775726
1204.237, 4.495667
1204.719, 4.687653
1205.201, 4.554474
1205.683, 4.224579
1206.166, 3.651642
1206.648, 3.512756
1207.130, 3.824493
1207.612, 3.790955
1208.094, 1.808624
1208.576, 0.4342350
1209.058, 1.970673
1209.540, 4.491699
1210.022, 5.249481
1210.505, 4.314514
1210.987, 3.551483
1211.469, 3.095612
1211.951, 2.732788
1212.433, 2.374878
1212.915, 2.000793
1213.397, 1.375366
1213.879, 0.8653560
1214.361, 1.380219
1214.844, 2.808990
1215.326, 3.253479
1215.808, 2.491455
1216.290, 1.813538
1216.772, 2.411469
1217.254, 2.991516
1217.736, 2.597473
1218.218, 1.821564
1218.701, 2.153290
1219.183, 3.469330
1219.665, 3.770233
1220.147, 2.682953
1220.629, 1.600281
1221.111, 1.164703
1221.593, 1.260498
1222.075, 2.064606
1222.557, 3.189850
1223.040, 3.692444
1223.522, 3.616669
1224.004, 3.203278
1224.486, 2.455566
1224.968, 1.949310
1225.450, 2.445251
1225.932, 2.824768
1226.414, 2.379700
1226.896, 1.492157
1227.379, 1.372223
1227.861, 1.875885
1228.343, 2.218323
1228.825, 2.216217
1229.307, 2.137482
1229.789, 2.211334
1230.271, 2.112823
1230.753, 1.478302
1231.236, 0.6391300
1231.718, 0.9385990
1232.200, 2.131958
1232.682, 3.176147
1233.164, 3.898773
1233.646, 4.027344
1234.128, 2.868622
1234.610, 1.690704
1235.093, 1.117279
1235.575, 0.9471130
1236.057, 0.4641420
1236.539, 0.1653440
1237.021, 0.3179630
1237.503, 0.3751530
1237.985, 0.8089600
1238.467, 0.1676940
1238.949, 0.3106080
1239.432, 2.6794000E-02
1239.914, 0.8352360
1240.396, 0.9294740
1240.878, 0.6196900
1241.360, 0.8804630
1241.842, 2.424042
1242.324, 3.127441
1242.806, 2.056274
1243.288, 0.8722530
1243.771, 0.3527220
1244.253, 0.3291020
1244.735, 0.5544130
1245.217, 0.9043880
1245.699, 1.033478
1246.181, 0.6076350
1246.663, 0.7504880
1247.145, 2.018799
1247.628, 2.838531
1248.110, 1.994507
1248.592, 0.5113220
1249.074, 0.6445310
1249.556, 1.765900
1250.038, 2.647247
1250.520, 2.776215
1251.002, 3.217102
1251.484, 4.170166
1251.967, 4.943237
1252.449, 5.132996
1252.931, 4.894073
1253.413, 4.298645
1253.895, 3.517761
1254.377, 2.853333
1254.859, 2.353088
1255.341, 2.010376
1255.823, 1.842957
1256.306, 1.716522
1256.788, 1.508179
1257.270, 1.350494
1257.752, 1.561401
1258.234, 1.875214
1258.716, 1.816040
1259.198, 1.219360
1259.680, 0.8784180
1260.163, 0.8200680
1260.645, 0.8161620
1261.127, 0.6607360
1261.609, 0.6076050
1262.091, 1.093231
1262.573, 1.713104
1263.055, 1.878723
1263.537, 1.504028
1264.020, 1.191101
1264.502, 0.9377140
1264.984, 0.9813230
1265.466, 1.650299
1265.948, 2.405457
1266.430, 2.900085
1266.912, 3.276489
1267.394, 3.889832
1267.876, 4.747772
1268.359, 3.853485
1268.841, 1.464691
1269.323, 1.8585000E-02
1269.805, 1.955658
1270.287, 3.659058
1270.769, 3.384979
1271.251, 2.378448
1271.733, 1.340027
1272.215, 0.3757930
1272.698, 0.7534480
1273.180, 2.130035
1273.662, 2.860474
1274.144, 1.322845
1274.626, 0.3619080
1275.108, 0.9996640
1275.590, 1.708588
1276.072, 0.9154970
1276.555, 0.6959840
1277.037, 0.6069340
1277.519, 0.6889650
1278.001, 1.749725
1278.483, 2.006775
1278.965, 1.944855
1279.447, 1.494751
1279.929, 1.005493
1280.411, 0.6150210
1280.894, 0.4407040
1281.376, 1.062897
1281.858, 2.015106
1282.340, 2.213043
1282.822, 0.6268920
1283.304, 5.6763001E-02
1283.786, 0.6777040
1284.268, 1.471741
1284.750, 1.938080
1285.233, 2.039917
1285.715, 1.248840
1286.197, 0.2582400
1286.679, 0.4244380
1287.161, 2.216736
1287.643, 3.256683
1288.125, 3.522308
1288.607, 3.488983
1289.090, 3.023651
1289.572, 2.781738
1290.054, 2.314362
1290.536, 1.851959
1291.018, 1.717255
1291.500, 1.928650
1291.982, 1.749969
1292.464, 1.238037
1292.947, 1.041687
1293.429, 1.915192
1293.911, 2.557648
1294.393, 2.260986
1294.875, 1.700043
1295.357, 1.316406
1295.839, 1.089874
1296.321, 1.148071
1296.803, 1.448120
1297.286, 1.802734
1297.768, 2.568634
1298.250, 2.561035
1298.732, 1.159546
1299.214, 3.0823000E-02
1299.696, 0.3034060
1300.178, 0.6665040
1300.660, 0.0000000E+00
##END=



