##NAMES=Magnetite
##RRUFFID=R140861
##IDEAL CHEMISTRY=Fe^2+^Fe^3+^_2_O_4_
##LOCALITY=Bon Accord, Barberton District, Mpumalanga Province, South Africa
##OWNER=RRUFF
##SOURCE=Rock Currier
##DESCRIPTION=Dark green isolated granular or octahedral crystals, associated with yellowish-green irregular veins of nimite, minute light-green opaque grains of willemseite, reevesite as yellowish-green massive earthy vug material and limonite.
##STATUS=The identification of this mineral is confirmed by single-crystal X-ray diffraction and chemical analysis.
##URL=rruff.info/R140861
##MEASURED CHEMISTRY=(Fe^2+^_0.82_Ni_0.18_)Fe^3+^_2.00_O_4_
175.6000, 0.0000000E+00
176.0821, 0.7233890
176.5642, 1.646255
177.0463, 1.574097
177.5284, 0.5989380
178.0106, 0.1065980
178.4927, 4.7302000E-02
178.9748, 0.7973790
179.4569, 1.855347
179.9390, 3.325836
180.4211, 4.621292
180.9033, 4.878098
181.3854, 4.278549
181.8675, 3.680099
182.3496, 3.430481
182.8317, 3.549042
183.3138, 4.169037
183.7960, 5.412262
184.2781, 6.830063
184.7602, 7.674622
185.2423, 8.020981
185.7244, 8.461502
186.2065, 9.469086
186.6887, 10.90672
187.1708, 12.18851
187.6529, 13.26122
188.1350, 14.16605
188.6171, 14.85158
189.0992, 15.32072
189.5814, 15.70604
190.0635, 16.13991
190.5456, 16.60478
191.0277, 16.87709
191.5098, 16.89767
191.9919, 16.74873
192.4741, 16.63551
192.9562, 16.58002
193.4383, 16.40204
193.9204, 15.83829
194.4025, 14.91708
194.8846, 14.30130
195.3668, 14.07268
195.8489, 13.99109
196.3310, 13.87486
196.8131, 13.98764
197.2952, 14.23268
197.7773, 14.09608
198.2595, 13.65146
198.7416, 13.12239
199.2237, 12.48524
199.7058, 12.00645
200.1879, 12.16570
200.6700, 12.50130
201.1522, 12.77841
201.6343, 12.90369
202.1164, 12.83899
202.5985, 12.58635
203.0806, 12.44530
203.5627, 12.36197
204.0449, 12.07613
204.5270, 12.01794
205.0091, 11.71825
205.4912, 10.86082
205.9733, 9.471725
206.4554, 8.458069
206.9376, 7.909775
207.4197, 7.822220
207.9018, 7.445648
208.3839, 6.702255
208.8660, 5.868301
209.3481, 5.110748
209.8303, 4.411636
210.3124, 3.866928
210.7945, 3.484512
211.2766, 3.262848
211.7587, 3.250092
212.2408, 3.593414
212.7230, 3.821808
213.2051, 3.525024
213.6872, 2.459320
214.1693, 1.707916
214.6514, 1.423080
215.1335, 1.539200
215.6157, 1.864471
216.0978, 2.643692
216.5799, 3.171875
217.0620, 2.852081
217.5441, 1.226120
218.0262, 7.9346001E-02
218.5084, 0.3553310
218.9905, 0.1802520
219.4726, 0.1423800
219.9547, 0.7521210
220.4368, 1.288467
220.9189, 1.499176
221.4011, 1.280121
221.8832, 1.032913
222.3653, 0.8157810
222.8474, 0.6010590
223.3295, 0.1961210
223.8116, 0.5868070
224.2938, 1.250702
224.7759, 1.445038
225.2580, 0.9146420
225.7401, 0.5356900
226.2222, 0.4005130
226.7043, 0.4659120
227.1865, 0.5618900
227.6686, 0.7676850
228.1507, 0.8907170
228.6328, 0.7787630
229.1149, 0.2372130
229.5970, 6.1446998E-02
230.0792, 3.2150000E-02
230.5613, 0.3958280
231.0434, 0.5192720
231.5255, 0.1803280
232.0076, 8.3953999E-02
232.4897, 7.4782997E-02
232.9719, 0.9968870
233.4540, 1.484238
233.9361, 1.400009
234.4182, 0.9196010
234.9003, 0.6729740
235.3824, 0.8040470
235.8646, 0.9648440
236.3467, 1.011765
236.8288, 1.061890
237.3109, 0.7116090
237.7930, 0.3348390
238.2751, 1.740860
238.7573, 2.411514
239.2394, 1.932404
239.7215, 1.303604
240.2036, 0.9502410
240.6857, 0.9215090
241.1678, 1.077942
241.6500, 1.593674
242.1321, 2.241608
242.6142, 2.423340
243.0963, 1.907684
243.5784, 1.259827
244.0605, 0.6896670
244.5427, 0.1377260
245.0248, 0.1751560
245.5069, 0.1391140
245.9890, 9.5748998E-02
246.4711, 0.1735530
246.9532, 7.1075000E-02
247.4354, 0.1887360
247.9175, 5.9937000E-02
248.3996, 0.9032750
248.8817, 1.381577
249.3638, 1.397415
249.8459, 1.110550
250.3281, 0.7763520
250.8102, 0.2740170
251.2923, 5.8196999E-02
251.7744, 8.4183000E-02
252.2565, 0.2599490
252.7386, 0.6582180
253.2208, 1.168579
253.7029, 1.690628
254.1850, 2.067657
254.6671, 2.241333
255.1492, 2.368011
255.6313, 2.428741
256.1135, 2.357651
256.5956, 2.687485
257.0777, 3.664276
257.5598, 4.788818
258.0419, 5.336075
258.5240, 5.025497
259.0062, 4.755310
259.4883, 4.795944
259.9704, 5.170395
260.4525, 5.462753
260.9346, 5.690582
261.4167, 5.811050
261.8989, 5.722519
262.3810, 5.288757
262.8631, 5.026764
263.3452, 5.129608
263.8273, 5.600098
264.3094, 5.833923
264.7916, 5.727798
265.2737, 5.572754
265.7558, 5.711655
266.2379, 6.301224
266.7200, 6.645950
267.2021, 6.470154
267.6843, 5.869537
268.1664, 5.883194
268.6485, 6.768112
269.1306, 7.729446
269.6127, 8.005371
270.0948, 7.403229
270.5770, 6.971527
271.0591, 6.903671
271.5412, 7.123062
272.0233, 7.297989
272.5054, 7.403946
272.9875, 7.538071
273.4697, 7.755493
273.9518, 8.057983
274.4339, 8.462402
274.9160, 9.013351
275.3981, 9.619858
275.8802, 10.09065
276.3624, 10.47766
276.8445, 10.63106
277.3266, 10.25511
277.8087, 9.289276
278.2908, 8.899078
278.7729, 9.340866
279.2551, 10.19370
279.7372, 10.44925
280.2193, 10.02390
280.7014, 9.551636
281.1835, 9.421936
281.6656, 9.596451
282.1478, 9.484985
282.6299, 9.013840
283.1120, 8.483917
283.5941, 8.381638
284.0762, 8.714569
284.5583, 8.982986
285.0405, 8.903564
285.5226, 8.514709
286.0047, 8.227905
286.4868, 8.057648
286.9689, 8.038483
287.4510, 8.221100
287.9332, 8.570145
288.4153, 8.865616
288.8974, 9.070282
289.3795, 9.199203
289.8616, 9.151428
290.3438, 8.887054
290.8259, 8.484085
291.3080, 8.064423
291.7901, 7.674637
292.2722, 7.400421
292.7543, 7.321335
293.2365, 7.300156
293.7186, 6.971542
294.2007, 6.337784
294.6828, 5.806793
295.1649, 5.882965
295.6470, 6.421005
296.1292, 6.861633
296.6113, 7.044891
297.0934, 7.084763
297.5755, 7.219574
298.0576, 7.427429
298.5397, 7.469513
299.0219, 6.956787
299.5040, 6.166962
299.9861, 5.736267
300.4682, 5.882965
300.9503, 6.234360
301.4324, 6.363251
301.9146, 6.312729
302.3967, 6.263687
302.8788, 6.304504
303.3609, 6.424194
303.8430, 6.634644
304.3251, 6.970657
304.8073, 7.258728
305.2894, 7.189377
305.7715, 6.934814
306.2536, 6.904861
306.7357, 7.453323
307.2178, 8.253693
307.7000, 9.001892
308.1821, 9.674652
308.6642, 10.25264
309.1463, 10.78000
309.6284, 11.18794
310.1105, 11.37779
310.5927, 11.18599
311.0748, 10.84006
311.5569, 10.30846
312.0390, 9.608307
312.5211, 9.352829
313.0032, 10.32198
313.4854, 11.75424
313.9675, 12.82822
314.4496, 13.14346
314.9317, 13.15871
315.4138, 13.01248
315.8959, 12.72604
316.3781, 12.41354
316.8602, 11.88492
317.3423, 11.49429
317.8244, 11.53275
318.3065, 12.41345
318.7886, 13.23145
319.2708, 13.61320
319.7529, 13.69096
320.2350, 13.83957
320.7171, 14.45712
321.1992, 14.95004
321.6813, 14.92877
322.1635, 13.94208
322.6456, 13.35330
323.1277, 13.74965
323.6098, 14.65034
324.0919, 15.25516
324.5740, 15.14163
325.0562, 14.97563
325.5383, 14.95801
326.0204, 15.13359
326.5025, 15.31659
326.9846, 15.69308
327.4667, 15.99420
327.9489, 15.93379
328.4310, 14.74980
328.9131, 14.07268
329.3952, 14.47517
329.8773, 16.00523
330.3594, 16.66667
330.8416, 15.81070
331.3237, 14.63333
331.8058, 13.99297
332.2879, 14.28346
332.7700, 14.43188
333.2521, 14.27042
333.7343, 13.88223
334.2164, 13.67378
334.6985, 13.68077
335.1806, 13.80774
335.6627, 14.02510
336.1448, 14.37314
336.6270, 14.69571
337.1091, 15.05495
337.5912, 15.33310
338.0733, 15.17750
338.5554, 14.38124
339.0375, 13.83508
339.5197, 14.02826
340.0018, 15.01816
340.4839, 15.64629
340.9660, 15.83926
341.4481, 15.80498
341.9302, 15.77451
342.4124, 15.74628
342.8945, 15.72820
343.3766, 15.75764
343.8587, 15.79654
344.3408, 15.62502
344.8229, 15.21294
345.3051, 14.79539
345.7872, 14.60548
346.2693, 14.61392
346.7514, 14.61392
347.2335, 14.54305
347.7156, 14.47299
348.1978, 14.61270
348.6799, 14.94260
349.1620, 15.18694
349.6441, 15.13344
350.1262, 14.86261
350.6083, 14.52829
351.0905, 14.12253
351.5726, 13.76759
352.0547, 13.60739
352.5368, 13.60898
353.0189, 13.68338
353.5010, 13.73398
353.9832, 13.87521
354.4653, 14.38626
354.9474, 15.26952
355.4295, 15.85533
355.9116, 15.25146
356.3937, 14.15088
356.8759, 13.55753
357.3580, 14.30713
357.8401, 15.16554
358.3222, 15.17786
358.8043, 14.54292
359.2864, 14.19856
359.7686, 14.87859
360.2507, 15.82050
360.7328, 16.41107
361.2149, 16.27913
361.6970, 16.22707
362.1791, 16.68623
362.6613, 17.42729
363.1434, 17.98813
363.6255, 18.20694
364.1076, 18.25150
364.5897, 18.09593
365.0718, 17.57785
365.5540, 17.36098
366.0361, 17.75310
366.5182, 18.42793
367.0003, 19.01868
367.4824, 19.80794
367.9645, 20.21545
368.4467, 19.91402
368.9288, 18.86935
369.4109, 18.24113
369.8930, 18.07477
370.3751, 18.30670
370.8572, 18.95374
371.3394, 20.59497
371.8215, 21.65701
372.3036, 21.82996
372.7857, 21.26834
373.2678, 20.67604
373.7499, 19.84944
374.2321, 19.42010
374.7142, 19.83746
375.1963, 21.45233
375.6784, 22.24649
376.1605, 21.91681
376.6426, 21.13248
377.1248, 20.96469
377.6069, 21.50208
378.0890, 22.04160
378.5711, 22.36250
379.0532, 22.48648
379.5353, 22.51462
380.0175, 22.42200
380.4996, 22.36282
380.9817, 22.56973
381.4638, 22.99469
381.9459, 23.23566
382.4280, 23.20665
382.9102, 22.95172
383.3923, 22.35291
383.8744, 21.46294
384.3565, 20.89677
384.8386, 21.44580
385.3207, 22.53751
385.8029, 22.91777
386.2850, 22.38356
386.7671, 21.57896
387.2492, 21.15366
387.7313, 20.96246
388.2134, 20.68423
388.6956, 20.02789
389.1777, 19.32266
389.6598, 18.89601
390.1419, 18.74261
390.6240, 18.61494
391.1061, 18.43250
391.5883, 18.17015
392.0704, 17.79802
392.5525, 17.27608
393.0346, 16.69548
393.5167, 16.03613
393.9988, 15.33849
394.4810, 14.70453
394.9631, 14.18088
395.4452, 13.72096
395.9273, 13.29918
396.4094, 12.90373
396.8915, 12.57178
397.3737, 12.47334
397.8558, 12.38452
398.3379, 12.02960
398.8200, 11.14549
399.3021, 10.23317
399.7842, 9.292450
400.2664, 8.322815
400.7485, 7.683243
401.2306, 7.718948
401.7127, 7.750351
402.1948, 7.280792
402.6769, 5.832809
403.1591, 4.967896
403.6412, 5.092804
404.1233, 5.707291
404.6054, 5.432205
405.0875, 3.902451
405.5696, 2.581146
406.0518, 2.265381
406.5339, 3.004364
407.0160, 2.929352
407.4981, 1.846756
407.9802, 0.5155940
408.4623, 0.1836700
408.9445, 0.2592770
409.4266, 0.1706850
409.9087, 7.1273997E-02
410.3908, 0.3190610
410.8729, 0.1047670
411.3550, 0.5542140
411.8372, 1.138962
412.3193, 1.145660
412.8014, 0.8168180
413.2835, 0.7978670
413.7656, 1.262329
414.2477, 1.692154
414.7299, 1.323776
415.2120, 0.4730990
415.6941, 9.5856003E-02
416.1762, 0.3814390
416.6583, 1.039398
417.1404, 0.9665830
417.6226, 0.1823430
418.1047, 0.4376830
418.5868, 0.2114410
419.0689, 0.3432310
419.5510, 0.7309420
420.0331, 0.6837620
420.5153, 0.6321870
420.9974, 0.7989200
421.4795, 1.085556
421.9616, 1.236130
422.4437, 1.128403
422.9258, 0.9145360
423.4080, 0.6125640
423.8901, 0.1483460
424.3722, 0.1545560
424.8543, 0.2168120
425.3364, 0.1407930
425.8185, 2.3391999E-02
426.3007, 0.1412510
426.7828, 0.3399510
427.2649, 0.5983120
427.7470, 0.8977810
428.2291, 1.153824
428.7112, 1.472458
429.1934, 1.563354
429.6755, 1.130203
430.1576, 3.0807000E-02
430.6397, 0.5977940
431.1218, 0.3896330
431.6039, 0.1887970
432.0861, 0.5418850
432.5682, 0.6605530
433.0503, 0.6768190
433.5324, 0.6824040
434.0145, 0.6122280
434.4966, 0.2271420
434.9788, 0.4785610
435.4609, 1.391953
435.9430, 2.850418
436.4251, 4.470276
436.9072, 5.034424
437.3893, 4.043640
437.8715, 2.687531
438.3536, 2.201401
438.8357, 2.437332
439.3178, 2.982315
439.7999, 3.934601
440.2820, 4.903976
440.7642, 5.493286
441.2463, 5.682159
441.7284, 5.775101
442.2105, 5.873566
442.6926, 5.984650
443.1747, 6.108826
443.6569, 6.063034
444.1390, 6.246750
444.6211, 6.954025
445.1032, 8.007660
445.5853, 8.874161
446.0674, 9.278244
446.5496, 9.646240
447.0317, 10.16660
447.5138, 10.94888
447.9959, 11.55823
448.4780, 11.88884
448.9601, 12.13518
449.4423, 12.52193
449.9244, 13.23834
450.4065, 13.68803
450.8886, 13.67964
451.3707, 13.34543
451.8528, 13.20076
452.3350, 13.20522
452.8171, 13.52136
453.2992, 14.45093
453.7813, 16.00842
454.2634, 16.86087
454.7455, 16.83798
455.2277, 16.57068
455.7098, 16.94055
456.1919, 17.84644
456.6740, 18.63641
457.1561, 19.05225
457.6382, 19.25012
458.1204, 19.42189
458.6025, 19.58286
459.0846, 19.82465
459.5667, 20.27464
460.0488, 20.82385
460.5309, 21.37843
461.0131, 21.96448
461.4952, 22.37276
461.9773, 22.24123
462.4594, 21.88223
462.9415, 21.75029
463.4236, 22.37109
463.9058, 22.92413
464.3879, 22.95995
464.8700, 22.53299
465.3521, 22.23369
465.8342, 22.21950
466.3163, 22.35326
466.7985, 22.58441
467.2806, 23.06241
467.7627, 23.36201
468.2448, 23.32831
468.7269, 23.16608
469.2090, 23.14563
469.6912, 23.33466
470.1733, 23.53726
470.6554, 23.71034
471.1375, 23.84668
471.6196, 24.05803
472.1017, 24.39175
472.5839, 24.72412
473.0660, 24.99080
473.5481, 25.16360
474.0302, 25.15327
474.5123, 24.88882
474.9944, 24.60262
475.4766, 24.63744
475.9587, 24.92836
476.4408, 25.25034
476.9229, 25.48553
477.4050, 25.68398
477.8871, 26.01735
478.3693, 26.46341
478.8514, 26.78265
479.3335, 26.51233
479.8156, 26.15349
480.2977, 26.40350
480.7798, 27.57018
481.2620, 28.71825
481.7441, 29.27367
482.2262, 29.46320
482.7083, 29.62494
483.1904, 29.64944
483.6725, 29.86340
484.1547, 30.55319
484.6368, 31.65668
485.1189, 32.42006
485.6010, 32.77258
486.0831, 32.72098
486.5652, 32.24924
487.0474, 31.19562
487.5295, 30.10170
488.0116, 28.88106
488.4937, 27.72346
488.9758, 26.96753
489.4579, 26.67752
489.9401, 26.49582
490.4222, 26.42282
490.9043, 26.40428
491.3864, 26.16016
491.8685, 25.69083
492.3506, 25.00305
492.8328, 23.86047
493.3149, 22.42151
493.7970, 21.57928
494.2791, 21.46288
494.7612, 21.62315
495.2433, 21.80656
495.7255, 21.87459
496.2076, 21.45570
496.6897, 20.06314
497.1718, 18.48474
497.6539, 17.40182
498.1360, 16.76579
498.6182, 16.38861
499.1003, 16.54593
499.5824, 16.68652
500.0645, 16.30630
500.5466, 15.15782
501.0287, 14.33870
501.5109, 14.44435
501.9930, 14.90944
502.4751, 15.16710
502.9572, 14.93150
503.4393, 14.72624
503.9214, 14.65573
504.4036, 14.65205
504.8857, 14.44714
505.3678, 13.80133
505.8499, 13.40170
506.3320, 13.72536
506.8141, 14.87910
507.2963, 15.00330
507.7784, 13.81604
508.2605, 12.32358
508.7426, 11.49922
509.2247, 11.31950
509.7068, 11.38495
510.1890, 11.64888
510.6711, 12.06654
511.1532, 12.82382
511.6353, 13.77168
512.1174, 14.18532
512.5995, 13.15730
513.0817, 11.69934
513.5638, 11.02899
514.0459, 11.12254
514.5280, 11.36800
515.0101, 11.58406
515.4922, 11.67223
515.9744, 11.51334
516.4565, 10.94371
516.9386, 10.43385
517.4207, 10.10471
517.9028, 9.922836
518.3849, 9.842728
518.8671, 10.08154
519.3492, 10.18678
519.8313, 9.918243
520.3134, 9.337845
520.7955, 9.243896
521.2776, 9.876877
521.7598, 10.58504
522.2419, 11.01683
522.7240, 11.15358
523.2061, 11.14641
523.6882, 10.97678
524.1703, 10.72853
524.6525, 10.48828
525.1346, 10.26401
525.6167, 10.09459
526.0988, 10.02005
526.5809, 9.964142
527.0630, 9.674728
527.5452, 9.219467
528.0273, 8.969574
528.5094, 9.404175
528.9915, 10.03104
529.4736, 10.24875
529.9557, 10.01064
530.4379, 9.753860
530.9200, 9.877991
531.4021, 10.01599
531.8842, 9.765930
532.3663, 8.543350
532.8484, 7.628647
533.3306, 7.599594
533.8127, 8.089767
534.2948, 8.285431
534.7769, 7.812683
535.2590, 7.398193
535.7411, 7.280014
536.2233, 7.472839
536.7054, 7.386429
537.1875, 6.943176
537.6696, 6.363541
538.1517, 5.742249
538.6339, 5.092880
539.1160, 4.513123
539.5981, 3.991150
540.0802, 3.550751
540.5623, 3.211258
541.0444, 2.967743
541.5266, 2.788025
542.0087, 2.698807
542.4908, 2.619659
542.9729, 2.282959
543.4550, 1.809708
543.9371, 1.663147
544.4193, 2.593491
544.9014, 3.693283
545.3835, 4.037277
545.8656, 3.494736
546.3477, 3.026077
546.8298, 3.245514
547.3120, 3.591049
547.7941, 3.585236
548.2762, 2.578079
548.7583, 2.046692
549.2404, 2.471771
549.7225, 3.325897
550.2047, 3.682236
550.6868, 3.231491
551.1689, 2.799133
551.6510, 2.606079
552.1331, 2.656876
552.6152, 2.822281
553.0974, 3.169037
553.5795, 3.344711
554.0616, 2.901947
554.5437, 1.998016
555.0258, 1.644104
555.5079, 1.951447
555.9901, 2.390915
556.4722, 2.403580
556.9543, 2.142120
557.4364, 1.929916
557.9185, 1.899796
558.4006, 1.861389
558.8828, 1.562073
559.3649, 1.131775
559.8470, 0.8648990
560.3291, 0.7657010
560.8112, 0.9717860
561.2933, 1.825775
561.7755, 3.325409
562.2576, 4.111557
562.7397, 3.383835
563.2218, 2.382813
563.7039, 1.670135
564.1860, 1.254272
564.6682, 1.150864
565.1503, 1.521851
565.6324, 2.009888
566.1145, 2.131363
566.5966, 1.853806
567.0787, 1.572678
567.5609, 1.385345
568.0430, 1.238098
568.5251, 1.011749
569.0072, 0.7146450
569.4893, 0.4054870
569.9714, 4.4006001E-02
570.4536, 0.4143520
570.9357, 0.3141170
571.4178, 0.2346340
571.8999, 0.8305660
572.3820, 1.400024
572.8641, 1.786331
573.3463, 1.768463
573.8284, 1.093079
574.3105, 0.6004790
574.7926, 0.7133940
575.2747, 1.082153
575.7568, 1.266617
576.2390, 1.164398
576.7211, 0.9566190
577.2032, 0.5708310
577.6853, 0.1004790
578.1674, 0.1276090
578.6495, 8.7035999E-02
579.1317, 0.1348110
579.6138, 0.6340330
580.0959, 1.333466
580.5780, 1.524094
581.0601, 1.177689
581.5422, 0.6714630
582.0244, 0.2534640
582.5065, 7.5043000E-02
582.9886, 0.3369140
583.4707, 0.5596770
583.9528, 0.5928340
584.4349, 7.4417002E-02
584.9171, 0.6632540
585.3992, 1.124802
585.8813, 0.9699400
586.3634, 0.6831050
586.8455, 0.3034520
587.3276, 7.2815001E-02
587.8098, 0.1649930
588.2919, 0.4165040
588.7740, 0.9454500
589.2561, 1.230927
589.7382, 1.270630
590.2203, 1.091721
590.7025, 0.5076900
591.1846, 3.8361002E-02
591.6667, 0.1723790
592.1488, 0.9890440
592.6309, 1.151688
593.1130, 0.4705660
593.5952, 0.3112030
594.0773, 7.4859999E-02
594.5594, 0.8844300
595.0415, 1.349045
595.5236, 0.8090670
596.0057, 6.1615001E-02
596.4879, 4.4022001E-02
596.9700, 0.5129090
597.4521, 0.8974910
597.9342, 0.8553010
598.4163, 0.7254180
598.8984, 0.6557160
599.3806, 0.6535030
599.8627, 0.7291410
600.3448, 1.221603
600.8269, 1.494537
601.3090, 1.147293
601.7911, 0.1134340
602.2733, 0.8035430
602.7554, 0.7135010
603.2375, 0.3568270
603.7196, 0.1956020
604.2017, 0.2447050
604.6838, 0.2930300
605.1660, 0.2793730
605.6481, 0.3370670
606.1302, 0.8751530
606.6123, 1.742996
607.0944, 2.234619
607.5765, 1.966827
608.0587, 1.320923
608.5408, 0.4978490
609.0229, 0.3785100
609.5050, 0.9019620
609.9871, 0.6268620
610.4692, 0.1102750
610.9514, 0.3793330
611.4335, 0.8308410
611.9156, 1.146561
612.3977, 1.221237
612.8798, 1.223877
613.3619, 1.250748
613.8441, 1.318497
614.3262, 1.371094
614.8083, 1.437881
615.2904, 1.450867
615.7725, 1.286697
616.2546, 0.9291230
616.7368, 0.6338200
617.2189, 0.4290920
617.7010, 0.3322910
618.1831, 0.4783020
618.6652, 0.7849880
619.1473, 0.9320530
619.6295, 0.6643070
620.1116, 0.2415770
620.5937, 0.1559140
621.0758, 0.4973750
621.5579, 0.6702580
622.0400, 0.3029480
622.5222, 3.1430000E-03
623.0043, 0.1697390
623.4864, 0.9669490
623.9685, 1.606262
624.4506, 1.681580
624.9327, 1.841797
625.4149, 2.610474
625.8970, 4.372498
626.3791, 5.502960
626.8612, 5.786652
627.3433, 5.691681
627.8254, 5.818115
628.3076, 6.157806
628.7897, 6.617676
629.2718, 7.268860
629.7539, 7.916870
630.2360, 8.113129
630.7181, 8.020813
631.2003, 8.160065
631.6824, 8.912140
632.1645, 9.895996
632.6466, 11.00677
633.1287, 12.18271
633.6108, 12.97107
634.0930, 12.60803
634.5751, 12.33563
635.0572, 12.92081
635.5393, 14.66022
636.0214, 15.79788
636.5035, 16.15594
636.9857, 16.17596
637.4678, 16.03751
637.9499, 15.62811
638.4320, 15.91858
638.9141, 17.13358
639.3962, 18.53918
639.8784, 19.03595
640.3605, 18.82239
640.8426, 18.85315
641.3247, 19.52957
641.8068, 20.31235
642.2889, 20.66101
642.7711, 20.69269
643.2532, 20.67157
643.7353, 20.53131
644.2174, 20.52582
644.6995, 20.77835
645.1816, 21.26608
645.6638, 21.89877
646.1459, 22.95917
646.6280, 23.90182
647.1101, 24.49188
647.5922, 24.68707
648.0743, 25.08325
648.5565, 25.68848
649.0386, 26.42111
649.5207, 27.33624
650.0028, 28.39655
650.4849, 29.09634
650.9670, 29.32513
651.4492, 29.51825
651.9313, 30.32291
652.4134, 31.49106
652.8955, 32.48508
653.3776, 33.17096
653.8597, 33.67929
654.3419, 33.97531
654.8240, 34.23352
655.3061, 34.67578
655.7882, 35.70328
656.2703, 36.53024
656.7524, 36.74829
657.2346, 36.64853
657.7167, 37.12366
658.1988, 38.40717
658.6809, 39.76205
659.1630, 41.01157
659.6451, 42.10629
660.1273, 42.87750
660.6094, 43.37823
661.0915, 43.68600
661.5736, 43.64117
662.0557, 43.46173
662.5378, 43.59348
663.0200, 44.05981
663.5021, 44.74097
663.9842, 45.71817
664.4663, 46.71500
664.9484, 47.50165
665.4305, 48.05295
665.9127, 48.57639
666.3948, 48.93311
666.8769, 49.38705
667.3590, 50.23169
667.8411, 51.92941
668.3232, 52.99799
668.8054, 53.10135
669.2875, 52.71802
669.7696, 52.63626
670.2517, 52.87222
670.7338, 53.32761
671.2159, 54.11795
671.6981, 54.89713
672.1802, 54.87180
672.6623, 54.26147
673.1444, 53.87082
673.6265, 54.42117
674.1086, 55.13046
674.5908, 55.52521
675.0729, 55.57675
675.5550, 55.27237
676.0371, 53.94333
676.5192, 52.83792
677.0013, 52.73578
677.4835, 53.82809
677.9656, 54.04282
678.4477, 52.96143
678.9298, 51.72104
679.4119, 51.14590
679.8940, 51.23618
680.3762, 51.29733
680.8583, 51.32935
681.3404, 51.19107
681.8225, 50.64905
682.3046, 49.84280
682.7867, 49.05548
683.2689, 48.36194
683.7510, 47.65372
684.2331, 46.86951
684.7152, 46.03101
685.1973, 45.18069
685.6794, 43.91544
686.1616, 43.13205
686.6437, 43.30737
687.1258, 43.98438
687.6079, 44.36557
688.0900, 44.36319
688.5721, 44.29443
689.0543, 44.28986
689.5364, 44.22717
690.0185, 43.55270
690.5006, 42.29660
690.9827, 41.34543
691.4648, 41.47586
691.9470, 42.00851
692.4291, 41.85352
692.9112, 41.10779
693.3933, 40.31525
693.8754, 39.73898
694.3575, 39.24203
694.8397, 38.65005
695.3218, 37.91870
695.8039, 37.60550
696.2860, 38.03671
696.7681, 38.66916
697.2502, 39.34024
697.7324, 40.17245
698.2145, 40.31061
698.6966, 39.54074
699.1787, 38.68674
699.6608, 38.61130
700.1429, 39.17584
700.6251, 39.68597
701.1072, 40.03033
701.5893, 40.42123
702.0714, 41.14688
702.5535, 42.03348
703.0356, 42.84131
703.5178, 43.54779
703.9999, 44.02853
704.4820, 43.93317
704.9641, 43.65387
705.4462, 43.84003
705.9283, 44.84653
706.4105, 45.80893
706.8926, 46.72238
707.3747, 47.47186
707.8568, 47.75827
708.3389, 47.53510
708.8210, 47.68896
709.3032, 48.69647
709.7853, 50.10416
710.2674, 51.03171
710.7495, 51.57227
711.2316, 52.06729
711.7137, 52.67435
712.1959, 53.32910
712.6780, 53.98447
713.1601, 54.67618
713.6422, 55.46561
714.1243, 56.48581
714.6064, 57.41678
715.0886, 58.08130
715.5707, 58.46948
716.0528, 59.08167
716.5349, 60.02747
717.0170, 60.96835
717.4991, 61.67886
717.9813, 62.19330
718.4634, 62.82916
718.9455, 63.59882
719.4276, 64.20349
719.9097, 64.26367
720.3918, 64.01917
720.8740, 63.78568
721.3561, 63.62735
721.8382, 63.60049
722.3203, 63.88809
722.8024, 64.16748
723.2845, 64.18127
723.7667, 63.54443
724.2488, 63.33624
724.7309, 63.86017
725.2130, 64.48468
725.6951, 64.40576
726.1772, 63.57135
726.6594, 62.81827
727.1415, 62.30960
727.6236, 61.84796
728.1057, 61.17627
728.5878, 60.33252
729.0699, 59.42032
729.5521, 58.55331
730.0342, 57.50500
730.5163, 55.87317
730.9984, 54.00116
731.4805, 52.49963
731.9626, 52.01395
732.4448, 51.31711
732.9269, 50.12891
733.4090, 48.60043
733.8911, 47.14044
734.3732, 45.74973
734.8553, 44.49762
735.3375, 43.48965
735.8196, 42.57037
736.3017, 41.21207
736.7838, 39.50592
737.2659, 38.00867
737.7480, 37.34821
738.2302, 36.79471
738.7123, 35.59299
739.1944, 33.84671
739.6765, 32.12012
740.1586, 30.55063
740.6407, 29.10272
741.1229, 27.86261
741.6050, 26.80099
742.0871, 25.47198
742.5692, 23.72928
743.0513, 22.04602
743.5334, 20.64923
744.0156, 19.52362
744.4977, 18.67657
744.9798, 18.10480
745.4619, 17.44479
745.9440, 16.19247
746.4261, 14.81461
746.9083, 13.91943
747.3904, 13.56531
747.8725, 13.32153
748.3546, 13.22894
748.8367, 12.99844
749.3188, 12.36084
749.8010, 11.13443
750.2831, 10.19244
750.7652, 9.753265
751.2473, 9.252899
751.7294, 8.014801
752.2115, 6.067749
752.6937, 4.982605
753.1758, 4.926849
753.6579, 5.214294
754.1400, 5.430511
754.6221, 5.426056
755.1042, 4.817322
755.5864, 3.342651
756.0685, 2.086487
756.5506, 1.824677
757.0327, 1.978851
757.5148, 1.982910
757.9969, 1.721527
758.4791, 1.354919
758.9612, 0.8110960
759.4433, 0.2388920
759.9254, 0.2012630
760.4075, 0.5185550
760.8896, 0.6438600
761.3718, 0.5617680
761.8539, 0.3153080
762.3360, 0.2877500
762.8181, 0.9809570
763.3002, 1.143616
763.7823, 0.2037660
764.2645, 0.5896910
764.7466, 0.1658020
765.2287, 0.7265630
765.7108, 0.9525450
766.1929, 0.4628300
766.6750, 1.415527
767.1572, 1.606903
767.6393, 1.337036
768.1214, 1.119934
768.6035, 0.9550780
769.0856, 0.8303830
769.5677, 0.6889650
770.0499, 0.6884460
770.5320, 1.301575
771.0141, 2.261322
771.4962, 2.878937
771.9783, 2.677704
772.4604, 2.254730
772.9426, 1.796997
773.4247, 1.354675
773.9068, 1.049896
774.3889, 0.9069520
774.8710, 0.8953550
775.3531, 1.065887
775.8353, 1.337677
776.3174, 1.522980
776.7995, 1.624023
777.2816, 1.472504
777.7637, 0.8369750
778.2458, 9.4420999E-02
778.7280, 2.9910000E-03
779.2101, 0.3645020
779.6922, 0.5495000
780.1743, 2.1360000E-03
780.6564, 0.5573430
781.1385, 0.7151790
781.6207, 0.5498960
782.1028, 0.4058840
782.5849, 0.2042540
783.0670, 0.1898500
783.5491, 0.4815980
784.0313, 0.9920650
784.5134, 1.381165
784.9955, 1.646698
785.4776, 1.905243
785.9597, 2.334381
786.4418, 2.700806
786.9240, 2.429871
787.4061, 1.721283
787.8882, 1.316528
788.3703, 1.948456
788.8524, 2.641052
789.3345, 2.940491
789.8167, 2.862579
790.2988, 2.680542
790.7809, 2.265289
791.2630, 2.011047
791.7451, 2.109467
792.2272, 2.466095
792.7094, 2.576904
793.1915, 2.459503
793.6736, 2.549896
794.1557, 3.464996
794.6378, 4.501617
795.1199, 4.538788
795.6021, 3.809845
796.0842, 3.399536
796.5663, 4.304535
797.0484, 5.125275
797.5305, 4.958801
798.0126, 3.982941
798.4948, 3.884399
798.9769, 5.022186
799.4590, 6.176910
799.9411, 6.903564
800.4232, 7.234406
800.9053, 7.119720
801.3875, 6.605560
801.8696, 6.140778
802.3517, 5.830322
802.8338, 5.814728
803.3159, 6.392090
803.7980, 7.456238
804.2802, 8.389893
804.7623, 9.084564
805.2444, 9.501068
805.7265, 9.509399
806.2086, 9.178833
806.6907, 9.141266
807.1729, 9.428040
807.6550, 9.868835
808.1371, 10.52591
808.6192, 11.21841
809.1013, 11.37152
809.5834, 11.07013
810.0656, 10.79532
810.5477, 10.85849
811.0298, 11.03000
811.5119, 11.15634
811.9940, 11.24637
812.4761, 11.39490
812.9583, 11.64346
813.4404, 11.94376
813.9225, 12.40701
814.4046, 12.92822
814.8867, 12.65540
815.3688, 11.53549
815.8510, 10.77051
816.3331, 11.20099
816.8152, 12.24493
817.2973, 12.96747
817.7794, 13.43481
818.2615, 13.93143
818.7437, 14.60886
819.2258, 15.35062
819.7079, 16.28247
820.1900, 17.29947
820.6721, 17.69775
821.1542, 17.15463
821.6364, 16.70319
822.1185, 16.68994
822.6006, 17.01843
823.0827, 17.27151
823.5648, 17.43604
824.0469, 17.44180
824.5291, 17.13828
825.0112, 16.76328
825.4933, 16.44885
825.9754, 16.23685
826.4575, 16.25027
826.9396, 16.83884
827.4218, 17.30493
827.9039, 17.45926
828.3860, 17.32602
828.8681, 16.98352
829.3502, 16.37689
829.8323, 16.02264
830.3145, 16.11115
830.7966, 16.52872
831.2787, 17.31857
831.7608, 18.27750
832.2429, 18.77277
832.7250, 18.04755
833.2072, 17.23746
833.6893, 16.80081
834.1714, 16.74182
834.6535, 17.10635
835.1356, 18.26050
835.6177, 19.21970
836.0999, 19.89194
836.5820, 20.18158
837.0641, 19.56888
837.5462, 18.19531
838.0283, 17.70969
838.5104, 18.98846
838.9926, 20.64450
839.4747, 21.06552
839.9568, 20.79855
840.4389, 20.79871
840.9210, 21.82843
841.4031, 22.62131
841.8853, 22.63898
842.3674, 22.38828
842.8495, 22.68735
843.3316, 23.75745
843.8137, 24.15381
844.2958, 23.46066
844.7780, 22.49261
845.2601, 22.51266
845.7422, 23.19913
846.2243, 23.80032
846.7064, 24.16513
847.1885, 24.28241
847.6707, 23.89932
848.1528, 23.38028
848.6349, 23.16415
849.1170, 23.51340
849.5991, 23.76157
850.0812, 23.84662
850.5634, 23.92258
851.0455, 24.20502
851.5276, 24.66119
852.0097, 25.03458
852.4918, 25.29953
852.9739, 25.43924
853.4561, 25.51398
853.9382, 25.41748
854.4203, 24.90775
854.9024, 23.65698
855.3845, 22.97684
855.8666, 23.49792
856.3488, 24.31415
856.8309, 24.84775
857.3130, 25.05670
857.7951, 25.36801
858.2772, 25.82730
858.7593, 26.03903
859.2415, 25.41641
859.7236, 24.41092
860.2057, 23.65506
860.6878, 23.18652
861.1699, 23.16498
861.6520, 24.13306
862.1342, 25.17633
862.6163, 25.78891
863.0984, 25.97650
863.5805, 25.75937
864.0626, 24.95480
864.5447, 24.09406
865.0269, 23.47971
865.5090, 23.09061
865.9911, 22.89679
866.4732, 22.88327
866.9553, 22.91852
867.4374, 22.99518
867.9196, 23.02328
868.4017, 22.76852
868.8838, 22.35907
869.3659, 22.57703
869.8480, 24.13892
870.3301, 25.02563
870.8123, 24.45087
871.2944, 22.95926
871.7765, 22.22885
872.2586, 22.16635
872.7407, 22.05600
873.2228, 21.47375
873.7050, 20.84650
874.1871, 20.69406
874.6692, 20.88095
875.1513, 20.94772
875.6334, 20.78009
876.1155, 20.19208
876.5977, 18.94824
877.0798, 17.55634
877.5619, 16.75620
878.0440, 16.51013
878.5261, 16.46100
879.0082, 16.61292
879.4904, 16.85068
879.9725, 17.18115
880.4546, 17.43202
880.9367, 17.25168
881.4188, 16.27087
881.9009, 15.49606
882.3831, 15.55351
882.8652, 15.76813
883.3473, 15.43851
883.8294, 14.35765
884.3115, 13.56374
884.7936, 13.14041
885.2758, 12.91318
885.7579, 12.66118
886.2400, 12.42772
886.7221, 12.38129
887.2042, 12.56271
887.6863, 12.70753
888.1685, 12.73981
888.6506, 12.62869
889.1327, 12.27667
889.6148, 11.65091
890.0969, 11.31007
890.5790, 11.24240
891.0612, 11.26595
891.5433, 11.39091
892.0254, 11.50658
892.5075, 11.03107
892.9896, 10.04665
893.4717, 9.264786
893.9539, 9.411560
894.4360, 9.641296
894.9181, 9.273697
895.4002, 8.416229
895.8823, 7.918701
896.3644, 8.063675
896.8466, 8.137054
897.3287, 7.913925
897.8108, 7.515518
898.2929, 7.176300
898.7750, 6.926285
899.2571, 6.960693
899.7393, 7.728195
900.2214, 8.305908
900.7035, 7.512360
901.1856, 6.090164
901.6677, 5.236786
902.1498, 6.032211
902.6320, 6.216629
903.1141, 5.314362
903.5962, 4.121170
904.0783, 3.875427
904.5604, 4.480133
905.0425, 4.653122
905.5247, 4.161697
906.0068, 3.473343
906.4889, 2.714096
906.9710, 2.181366
907.4531, 2.354507
907.9352, 3.642563
908.4174, 4.356110
908.8995, 4.107040
909.3816, 3.422226
909.8637, 2.425537
910.3458, 1.104996
910.8279, 0.6520840
911.3101, 1.085632
911.7922, 1.541901
912.2743, 1.280975
912.7564, 0.7868500
913.2385, 0.5389100
913.7206, 0.5470120
914.2028, 0.6916960
914.6849, 1.216888
915.1670, 1.547546
915.6491, 1.484238
916.1312, 1.110687
916.6133, 0.6213840
917.0955, 8.6669996E-03
917.5776, 0.1719820
918.0597, 0.4672390
918.5418, 1.355682
919.0239, 2.044083
919.5060, 2.415771
919.9882, 2.243088
920.4703, 0.5470120
920.9524, 0.5194090
921.4345, 0.3762820
921.9166, 0.3477630
922.3987, 1.027527
922.8809, 1.686432
923.3630, 1.806931
923.8451, 1.258972
924.3272, 0.5837860
924.8093, 0.4176640
925.2914, 0.4517670
925.7736, 0.2113190
926.2557, 0.4622190
926.7378, 0.8297580
927.2199, 0.1994780
927.7020, 0.3406520
928.1841, 0.1254120
928.6663, 0.8369900
929.1484, 1.207001
929.6305, 0.9716190
930.1126, 0.5138550
930.5947, 0.2839360
931.0768, 0.9309230
931.5590, 0.4373170
932.0411, 0.8668210
932.5232, 1.556015
933.0053, 0.2604520
933.4874, 0.5786900
933.9695, 5.3741001E-02
934.4517, 1.172363
934.9338, 1.384827
935.4159, 0.5563050
935.8980, 8.6639002E-02
936.3801, 0.1842350
936.8622, 4.4418000E-02
937.3444, 7.8739999E-03
937.8265, 4.3701001E-02
938.3086, 0.1912690
938.7907, 0.6391140
939.2728, 0.8817600
939.7549, 0.7719120
940.2371, 0.4995120
940.7192, 0.1329190
941.2013, 0.3369600
941.6834, 0.3888090
942.1655, 1.6205000E-02
942.6476, 0.4210970
943.1298, 0.4082790
943.6119, 0.2107540
944.0940, 0.1312100
944.5761, 0.1758420
945.0582, 3.1204000E-02
945.5403, 1.181107
946.0225, 1.813904
946.5046, 1.203308
946.9867, 0.2137760
947.4688, 0.5472110
947.9509, 0.1428380
948.4330, 0.8181150
948.9152, 1.030487
949.3973, 1.058701
949.8794, 1.161209
950.3615, 1.273300
950.8436, 1.279572
951.3257, 0.8374630
951.8079, 0.7975770
952.2900, 1.473419
952.7721, 2.203384
953.2542, 2.049057
953.7363, 1.149811
954.2184, 0.5505220
954.7006, 0.3759310
955.1827, 0.4099580
955.6648, 0.7630770
956.1469, 1.042999
956.6290, 0.6805570
957.1111, 0.5309910
957.5933, 0.6395870
958.0754, 1.140427
958.5575, 2.550369
959.0396, 2.279785
959.5217, 0.9008330
960.0038, 0.4336090
960.4860, 0.7247470
960.9681, 0.9788820
961.4502, 0.6212160
961.9323, 0.2541350
962.4144, 0.1564940
962.8965, 0.3209380
963.3787, 0.7649230
963.8608, 1.725800
964.3429, 2.327591
964.8250, 2.446289
965.3071, 2.230942
965.7892, 1.616150
966.2714, 0.8666080
966.7535, 0.6875920
967.2356, 1.256073
967.7177, 1.988312
968.1998, 3.034149
968.6819, 3.737854
969.1641, 3.390045
969.6462, 1.861435
970.1283, 1.441025
970.6104, 2.306015
971.0925, 3.244217
971.5746, 3.536804
972.0568, 3.453384
972.5389, 3.489044
973.0210, 3.578995
973.5031, 3.512726
973.9852, 2.958054
974.4673, 2.533005
974.9495, 2.545547
975.4316, 2.704269
975.9137, 2.499222
976.3958, 1.889786
976.8779, 1.384857
977.3600, 1.046036
977.8422, 0.9659580
978.3243, 1.398331
978.8064, 2.026154
979.2885, 2.609818
979.7706, 3.186951
980.2527, 3.351852
980.7349, 2.728683
981.2170, 2.111298
981.6991, 1.945297
982.1812, 2.161972
982.6633, 2.306183
983.1454, 2.384445
983.6276, 2.464096
984.1097, 2.455460
984.5918, 2.531433
985.0739, 3.008652
985.5560, 3.704544
986.0381, 4.128799
986.5203, 4.046738
987.0024, 4.009140
987.4845, 4.154846
987.9666, 4.353043
988.4487, 4.481644
988.9308, 4.471024
989.4130, 4.039795
989.8951, 2.983414
990.3772, 2.288116
990.8593, 3.056656
991.3414, 4.147064
991.8235, 4.748581
992.3057, 4.775360
992.7878, 4.554642
993.2699, 4.107285
993.7520, 3.730728
994.2341, 3.605637
994.7162, 3.569290
995.1984, 3.237915
995.6805, 2.774918
996.1626, 2.627808
996.6447, 3.355850
997.1268, 3.890961
997.6089, 4.035110
998.0911, 3.907288
998.5732, 3.510147
999.0553, 2.845718
999.5374, 2.796509
1000.020, 3.527878
1000.502, 4.218079
1000.984, 3.865417
1001.466, 3.322433
1001.948, 3.603882
1002.430, 4.929779
1002.912, 5.389771
1003.394, 4.462296
1003.876, 3.476700
1004.359, 2.931580
1004.841, 2.710800
1005.323, 2.643372
1005.805, 2.778839
1006.287, 3.035492
1006.769, 3.431305
1007.251, 3.868332
1007.733, 4.497070
1008.216, 5.034760
1008.698, 5.012695
1009.180, 4.110733
1009.662, 3.946655
1010.144, 4.742569
1010.626, 5.629562
1011.108, 5.639999
1011.590, 5.211624
1012.072, 4.928848
1012.555, 4.847382
1013.037, 5.011002
1013.519, 5.799667
1014.001, 6.414017
1014.483, 6.564026
1014.965, 6.310577
1015.447, 5.997620
1015.929, 5.710419
1016.411, 5.558121
1016.894, 5.578995
1017.376, 5.725189
1017.858, 6.208008
1018.340, 6.708038
1018.822, 6.762695
1019.304, 6.005341
1019.786, 5.582123
1020.268, 5.555954
1020.751, 5.726395
1021.233, 6.081696
1021.715, 6.489487
1022.197, 6.513138
1022.679, 6.202560
1023.161, 5.907333
1023.643, 5.762955
1024.125, 5.699051
1024.607, 5.640533
1025.090, 5.675507
1025.572, 6.066254
1026.054, 6.852158
1026.536, 7.377090
1027.018, 7.488937
1027.500, 7.447525
1027.982, 7.430664
1028.464, 7.504562
1028.947, 7.846024
1029.429, 8.628433
1029.911, 8.735046
1030.393, 7.639877
1030.875, 6.780029
1031.357, 7.011292
1031.839, 7.985397
1032.321, 8.593811
1032.803, 8.880219
1033.286, 9.036346
1033.768, 9.150711
1034.250, 9.151672
1034.732, 8.854645
1035.214, 8.500305
1035.696, 8.501053
1036.178, 8.998260
1036.660, 8.996277
1037.143, 8.343109
1037.625, 7.706116
1038.107, 7.792450
1038.589, 8.180923
1039.071, 8.247696
1039.553, 7.999023
1040.035, 8.217957
1040.517, 9.483109
1041.000, 10.62346
1041.482, 11.39511
1041.964, 11.75079
1042.446, 11.30600
1042.928, 10.28122
1043.410, 9.577606
1043.892, 9.480606
1044.374, 9.678070
1044.856, 10.37599
1045.339, 11.00923
1045.821, 11.05464
1046.303, 10.44289
1046.785, 9.732010
1047.267, 8.865189
1047.749, 8.259796
1048.231, 8.401108
1048.713, 8.886703
1049.195, 9.331680
1049.677, 9.667282
1050.160, 9.704758
1050.642, 9.082138
1051.124, 8.579453
1051.606, 8.313095
1052.088, 8.143311
1052.570, 7.849594
1053.052, 7.488342
1053.534, 7.257080
1054.017, 7.173615
1054.499, 7.378143
1054.981, 8.475616
1055.463, 9.414230
1055.945, 9.411224
1056.427, 8.638229
1056.909, 7.940903
1057.391, 7.305099
1057.874, 6.973267
1058.356, 7.164719
1058.838, 7.407730
1059.320, 7.004501
1059.802, 6.334244
1060.284, 5.935242
1060.766, 6.047012
1061.248, 6.186752
1061.730, 6.442871
1062.213, 6.506744
1062.695, 6.020874
1063.177, 5.177521
1063.659, 4.630905
1064.141, 4.349777
1064.623, 4.215714
1065.105, 4.343674
1065.587, 4.410110
1066.070, 4.202576
1066.552, 3.907578
1067.034, 3.936371
1067.516, 4.300629
1067.998, 4.320877
1068.480, 3.880676
1068.962, 3.480698
1069.444, 3.687744
1069.927, 4.066971
1070.409, 4.318985
1070.891, 4.390625
1071.373, 3.991425
1071.855, 2.787109
1072.337, 2.073654
1072.819, 2.391418
1073.301, 3.192902
1073.783, 3.647064
1074.266, 3.793976
1074.748, 3.695145
1075.230, 3.269730
1075.712, 2.885498
1076.194, 2.600952
1076.676, 2.425125
1077.158, 2.443817
1077.640, 2.610870
1078.122, 2.291962
1078.604, 1.569382
1079.087, 1.161133
1079.569, 1.769485
1080.051, 2.500931
1080.533, 2.876099
1081.015, 2.992783
1081.497, 3.084244
1081.979, 3.193024
1082.461, 3.069702
1082.944, 2.689651
1083.426, 2.128372
1083.908, 1.017578
1084.390, 5.7250999E-02
1084.872, 0.4413450
1085.354, 2.059921
1085.836, 2.842224
1086.318, 2.031769
1086.801, 1.283447
1087.283, 0.9868770
1087.765, 0.9533390
1088.247, 0.7768710
1088.729, 0.5827030
1089.211, 0.7712400
1089.693, 1.524414
1090.175, 2.124466
1090.657, 2.286789
1091.140, 2.166229
1091.622, 1.759506
1092.104, 1.123154
1092.586, 0.7599790
1093.068, 0.6538390
1093.550, 0.6070250
1094.032, 0.5347440
1094.514, 0.4784850
1094.997, 0.5575710
1095.479, 0.6239470
1095.961, 0.4434360
1096.443, 0.1477510
1096.925, 0.3984070
1097.407, 0.2671510
1097.889, 5.5817001E-02
1098.371, 2.7953999E-02
1098.854, 3.2577999E-02
1099.336, 0.1522370
1099.818, 0.4649050
1100.300, 0.7021790
1100.782, 0.8673710
1101.264, 0.8571620
1101.746, 0.6208650
1102.228, 0.2860870
1102.710, 5.7979999E-03
1103.193, 0.2323300
1103.675, 0.5323490
1104.157, 0.9017940
1104.639, 1.014267
1105.121, 0.5758820
1105.603, 6.8699999E-04
1106.085, 0.6307980
1106.567, 1.243240
1107.049, 1.592316
1107.531, 1.684601
1108.014, 1.535156
1108.496, 1.054855
1108.978, 0.6610570
1109.460, 0.7090910
1109.942, 0.9223330
1110.424, 1.092606
1110.906, 1.219437
1111.388, 1.141144
1111.871, 0.8384860
1112.353, 0.6051180
1112.835, 0.6272280
1113.317, 0.7429350
1113.799, 0.8275910
1114.281, 0.8707120
1114.763, 0.8450010
1115.245, 0.6471410
1115.728, 0.6438900
1116.210, 0.9048310
1116.692, 1.124527
1117.174, 0.9944920
1117.656, 0.6740880
1118.138, 0.3551030
1118.620, 8.9859001E-02
1119.102, 5.3665001E-02
1119.584, 0.6474460
1120.067, 0.9669190
1120.549, 0.7352290
1121.031, 0.3836820
1121.513, 0.7105560
1121.995, 1.399185
1122.477, 1.170975
1122.959, 7.3105000E-02
1123.441, 1.051315
1123.924, 1.021973
1124.406, 0.6177060
1124.888, 1.1841000E-02
1125.370, 0.7216340
1125.852, 1.154175
1126.334, 1.310562
1126.816, 1.107040
1127.298, 0.4521790
1127.781, 0.1567080
1128.263, 0.3363040
1128.745, 0.3209990
1129.227, 0.2719730
1129.709, 0.1998440
1130.191, 0.1558380
1130.673, 0.1440730
1131.155, 0.1030270
1131.637, 2.2705000E-02
1132.120, 0.1215970
1132.602, 0.4059750
1133.084, 0.7479250
1133.566, 1.044754
1134.048, 1.340866
1134.530, 1.349182
1135.012, 0.9863740
1135.494, 0.6634670
1135.976, 0.7164150
1136.458, 0.9263460
1136.941, 0.9242250
1137.423, 0.7971040
1137.905, 0.7490390
1138.387, 0.8553310
1138.869, 1.055084
1139.351, 1.421417
1139.833, 1.714493
1140.315, 1.606567
1140.798, 1.268433
1141.280, 1.060287
1141.762, 1.000381
1142.244, 1.097061
1142.726, 1.629913
1143.208, 1.962082
1143.690, 1.954697
1144.172, 1.699005
1144.655, 1.195084
1145.137, 0.5573430
1145.619, 0.1909480
1146.101, 0.1507420
1146.583, 0.3579560
1147.065, 1.277069
1147.547, 1.862534
1148.029, 1.460770
1148.511, 0.5007170
1148.994, 0.2359470
1149.476, 0.5865330
1149.958, 0.7799070
1150.440, 0.5703740
1150.922, 0.5391080
1151.404, 1.449524
1151.886, 2.403824
1152.368, 2.638412
1152.851, 2.242538
1153.333, 2.122986
1153.815, 2.278809
1154.297, 2.411148
1154.779, 2.480927
1155.261, 2.319687
1155.743, 1.372696
1156.225, 0.3230440
1156.708, 8.0246001E-02
1157.190, 0.7958070
1157.672, 1.209717
1158.154, 1.267181
1158.636, 1.552353
1159.118, 2.826080
1159.600, 3.990677
1160.082, 3.651245
1160.564, 2.514557
1161.047, 1.799896
1161.529, 1.805145
1162.011, 2.017212
1162.493, 2.566193
1162.975, 2.814789
1163.457, 1.939926
1163.939, 0.7987060
1164.421, 0.8169400
1164.903, 1.613220
1165.385, 1.985229
1165.868, 1.271484
1166.350, 0.8204190
1166.832, 0.7023010
1167.314, 0.9339900
1167.796, 1.934753
1168.278, 3.113129
1168.760, 3.219238
1169.242, 2.376038
1169.725, 1.811310
1170.207, 2.100159
1170.689, 2.500153
1171.171, 3.065506
1171.653, 3.394791
1172.135, 2.439941
1172.617, 0.9418640
1173.099, 0.7756040
1173.582, 2.113022
1174.064, 3.114914
1174.546, 2.740860
1175.028, 2.418991
1175.510, 2.585693
1175.992, 2.913055
1176.474, 2.624756
1176.956, 1.954819
1177.438, 1.648163
1177.921, 1.895798
1178.403, 2.064590
1178.885, 1.728363
1179.367, 1.461655
1179.849, 1.512085
1180.331, 1.779266
1180.813, 1.996292
1181.295, 2.120026
1181.778, 2.182388
1182.260, 2.111038
1182.742, 2.106400
1183.224, 2.450027
1183.706, 2.639099
1184.188, 2.270370
1184.670, 1.517776
1185.152, 1.409668
1185.635, 1.830780
1186.117, 2.220642
1186.599, 2.321838
1187.081, 2.466476
1187.563, 2.974792
1188.045, 3.449341
1188.527, 3.592438
1189.009, 3.426804
1189.491, 3.093597
1189.974, 2.621170
1190.456, 2.314301
1190.938, 2.483459
1191.420, 2.647156
1191.902, 2.444992
1192.384, 2.214890
1192.866, 2.384659
1193.348, 2.968521
1193.830, 2.861069
1194.313, 2.129364
1194.795, 1.608200
1195.277, 2.121460
1195.759, 2.611221
1196.241, 2.379074
1196.723, 1.861649
1197.205, 1.610428
1197.687, 1.632126
1198.169, 1.609406
1198.652, 1.536987
1199.134, 1.616226
1199.616, 2.349930
1200.098, 2.888153
1200.580, 2.456833
1201.062, 1.611938
1201.544, 1.322632
1202.026, 1.610474
1202.509, 1.560013
1202.991, 1.087585
1203.473, 0.7145390
1203.955, 1.054276
1204.437, 1.375351
1204.919, 1.050522
1205.401, 0.3964390
1205.883, 0.1232910
1206.365, 0.2292940
1206.848, 0.4371950
1207.330, 0.7170560
1207.812, 1.001450
1208.294, 1.274902
1208.776, 1.501801
1209.258, 1.668594
1209.740, 1.765610
1210.222, 1.769531
1210.705, 1.680573
1211.187, 1.401123
1211.669, 0.8807370
1212.151, 0.5083920
1212.633, 0.6566010
1213.115, 1.022659
1213.597, 1.535126
1214.079, 2.105011
1214.562, 2.258392
1215.044, 1.994522
1215.526, 1.390106
1216.008, 0.3250270
1216.490, 0.3661800
1216.972, 0.3610990
1217.454, 1.374237
1217.936, 1.904800
1218.418, 1.958878
1218.901, 1.276382
1219.383, 8.5525997E-02
1219.865, 0.5411680
1220.347, 0.5641630
1220.829, 1.833191
1221.311, 2.478745
1221.793, 2.628220
1222.275, 2.278763
1222.757, 1.542694
1223.240, 1.072189
1223.722, 0.8607030
1224.204, 0.8758090
1224.686, 1.250763
1225.168, 1.438232
1225.650, 0.7719270
1226.132, 3.6850002E-02
1226.614, 0.1466370
1227.096, 0.1620940
1227.579, 0.4773560
1228.061, 0.7861940
1228.543, 0.9675900
1229.025, 0.9522550
1229.507, 0.8449400
1229.989, 0.5402070
1230.471, 0.3161770
1230.953, 0.3833160
1231.436, 0.7103420
1231.918, 1.319748
1232.400, 2.103973
1232.882, 2.301651
1233.364, 1.195282
1233.846, 0.2200320
1234.328, 0.1113740
1234.810, 0.3836670
1235.292, 0.7767940
1235.775, 1.253876
1236.257, 1.527054
1236.739, 1.602890
1237.221, 1.525604
1237.703, 1.323883
1238.185, 0.9572910
1238.667, 0.1152650
1239.149, 0.5975800
1239.632, 0.7139130
1240.114, 0.3107450
1240.596, 0.2793120
1241.078, 0.9815520
1241.560, 1.504486
1242.042, 1.710297
1242.524, 1.689850
1243.006, 1.261261
1243.489, 0.9002380
1243.971, 1.062302
1244.453, 1.599701
1244.935, 2.062759
1245.417, 2.364014
1245.899, 2.261627
1246.381, 0.9628450
1246.863, 0.3170930
1247.345, 0.7899320
1247.828, 1.525375
1248.310, 1.855286
1248.792, 1.866089
1249.274, 1.652023
1249.756, 1.317322
1250.238, 1.212250
1250.720, 1.783142
1251.202, 2.077103
1251.684, 1.909958
1252.167, 1.707870
1252.649, 1.950958
1253.131, 2.362595
1253.613, 2.330521
1254.095, 1.976608
1254.577, 1.839066
1255.059, 2.332428
1255.541, 2.443665
1256.023, 1.977829
1256.506, 1.605148
1256.988, 2.144196
1257.470, 2.970886
1257.952, 3.225449
1258.434, 3.038544
1258.916, 2.841125
1259.398, 2.706161
1259.880, 2.342316
1260.363, 1.619110
1260.845, 0.9540860
1261.327, 0.6868440
1261.809, 0.8725430
1262.291, 1.646042
1262.773, 2.644745
1263.255, 2.938553
1263.737, 2.328964
1264.219, 1.889084
1264.702, 1.697235
1265.184, 1.648544
1265.666, 1.583023
1266.148, 1.500565
1266.630, 1.361328
1267.112, 1.260620
1267.594, 1.346680
1268.076, 1.599701
1268.559, 1.512054
1269.041, 1.109558
1269.523, 0.8691560
1270.005, 1.541061
1270.487, 1.983444
1270.969, 0.8818820
1271.451, 0.3841250
1271.933, 0.2177580
1272.416, 1.146042
1272.898, 1.625565
1273.380, 1.179825
1273.862, 0.8262180
1274.344, 1.425095
1274.826, 1.791275
1275.308, 1.422043
1275.790, 0.8475650
1276.272, 0.7647090
1276.755, 1.087112
1277.237, 1.566132
1277.719, 2.109451
1278.201, 2.226608
1278.683, 0.9147640
1279.165, 0.3395390
1279.647, 1.105453
1280.129, 2.263535
1280.611, 2.967468
1281.094, 3.187164
1281.576, 2.549271
1282.058, 1.274017
1282.540, 0.5178990
1283.022, 0.7686000
1283.504, 1.170578
1283.986, 1.722122
1284.468, 2.113403
1284.950, 1.797119
1285.433, 1.318863
1285.915, 1.593811
1286.397, 2.363647
1286.879, 2.163300
1287.361, 0.7771000
1287.843, 1.0590000E-02
1288.325, 0.1289220
1288.807, 2.2900000E-04
1289.290, 2.8426999E-02
1289.772, 3.6697000E-02
1290.254, 0.5343320
1290.736, 1.191422
1291.218, 1.442902
1291.700, 1.215332
1292.182, 1.299835
1292.664, 1.726120
1293.146, 1.966858
1293.629, 1.187866
1294.111, 0.5598910
1294.593, 1.049637
1295.075, 1.858688
1295.557, 1.992081
1296.039, 1.658142
1296.521, 1.196335
1297.003, 0.5965580
1297.486, 0.1914520
1297.968, 0.3976900
1298.450, 0.5310060
1298.932, 0.3766480
1299.414, 0.2071990
1299.896, 0.4117740
1300.378, 0.7949520
1300.860, 0.6425020
1301.343, 0.1227110
1301.825, 0.0000000E+00
##END=



