##NAMES=Magnetite
##RRUFFID=R140861
##IDEAL CHEMISTRY=Fe^2+^Fe^3+^_2_O_4_
##LOCALITY=Bon Accord, Barberton District, Mpumalanga Province, South Africa
##OWNER=RRUFF
##SOURCE=Rock Currier
##DESCRIPTION=Dark green isolated granular or octahedral crystals, associated with yellowish-green irregular veins of nimite, minute light-green opaque grains of willemseite, reevesite as yellowish-green massive earthy vug material and limonite.
##STATUS=The identification of this mineral is confirmed by single-crystal X-ray diffraction and chemical analysis.
##URL=rruff.info/R140861
##MEASURED CHEMISTRY=(Fe^2+^_0.82_Ni_0.18_)Fe^3+^_2.00_O_4_
211.6069, 0.0000000E+00
212.0890, 0.4340970
212.5711, 0.9028470
213.0533, 0.9486690
213.5354, 0.6455380
214.0175, 0.3128810
214.4996, 0.3404850
214.9817, 0.7713010
215.4638, 1.038940
215.9460, 1.265915
216.4281, 1.401642
216.9102, 1.263016
217.3923, 1.413712
217.8744, 1.044678
218.3565, 1.142120
218.8387, 1.898987
219.3208, 2.151947
219.8029, 1.716965
220.2850, 1.158646
220.7671, 0.7786100
221.2492, 0.6351320
221.7314, 0.5251310
222.2135, 0.2236630
222.6956, 0.2709960
223.1777, 0.3713070
223.6598, 0.3850100
224.1419, 1.192734
224.6240, 1.335480
225.1062, 0.8063660
225.5883, 0.2921910
226.0704, 0.4317170
226.5525, 1.130524
227.0346, 1.516251
227.5167, 1.179993
227.9989, 0.7351680
228.4810, 0.7406460
228.9631, 1.223984
229.4452, 1.928055
229.9273, 2.899063
230.4094, 3.945328
230.8916, 4.525375
231.3737, 4.187042
231.8558, 3.539352
232.3379, 3.310318
232.8200, 3.563171
233.3021, 3.789993
233.7843, 3.545776
234.2664, 3.084488
234.7485, 2.798599
235.2306, 2.860962
235.7127, 3.081451
236.1948, 3.176865
236.6770, 3.083069
237.1591, 3.055969
237.6412, 3.195190
238.1233, 3.480072
238.6054, 3.952896
239.0875, 4.726456
239.5697, 5.564957
240.0518, 6.118011
240.5339, 6.375732
241.0160, 6.412415
241.4981, 5.880432
241.9802, 5.272797
242.4624, 5.192795
242.9445, 5.788376
243.4266, 6.748093
243.9087, 7.479568
244.3908, 7.878647
244.8729, 7.975586
245.3550, 7.534256
245.8372, 7.009552
246.3193, 6.804504
246.8014, 6.946136
247.2835, 7.246384
247.7656, 7.276443
248.2477, 6.863235
248.7299, 6.682953
249.2120, 6.925156
249.6941, 7.202774
250.1762, 7.262817
250.6583, 7.032913
251.1404, 6.690613
251.6226, 6.552795
252.1047, 6.815338
252.5868, 6.793259
253.0689, 6.285477
253.5510, 5.634735
254.0331, 4.992188
254.5153, 4.435959
254.9974, 4.057343
255.4795, 4.058243
255.9616, 4.758820
256.4437, 5.122665
256.9258, 4.960342
257.4080, 4.666870
257.8901, 4.520325
258.3722, 4.557526
258.8543, 4.596802
259.3364, 4.303711
259.8185, 3.351440
260.3007, 2.962952
260.7828, 3.451416
261.2649, 4.105408
261.7470, 4.537323
262.2291, 4.694855
262.7112, 4.724274
263.1934, 4.792587
263.6755, 4.993942
264.1576, 4.907547
264.6397, 4.372177
265.1218, 3.753799
265.6039, 3.172607
266.0861, 2.676361
266.5682, 2.296310
267.0503, 2.073151
267.5324, 2.031540
268.0145, 2.001236
268.4966, 2.172165
268.9788, 2.186203
269.4609, 1.784241
269.9430, 1.024002
270.4251, 0.3167880
270.9072, 1.1597000E-02
271.3893, 0.1296540
271.8715, 0.1445920
272.3536, 6.8069004E-02
272.8357, 0.2398380
273.3178, 0.1948090
273.7999, 3.5860001E-03
274.2820, 0.1272430
274.7642, 4.8416000E-02
275.2463, 0.2216340
275.7284, 0.4209750
276.2105, 0.5845030
276.6926, 0.6586000
277.1747, 0.6087040
277.6568, 0.4592290
278.1389, 0.2330930
278.6211, 8.2703002E-02
279.1032, 8.9773476E-02
279.5853, 6.3487679E-02
280.0674, 0.1525880
280.5495, 0.1557770
281.0316, 0.1513670
281.5138, 0.2299619
281.9959, 0.2746280
282.4780, 0.3427730
282.9601, 0.3291630
283.4422, 0.3784180
283.9243, 0.6138760
284.4065, 0.6975250
284.8886, 0.3829650
285.3707, 8.6868003E-02
285.8528, 0.3520810
286.3349, 0.2881160
286.8170, 2.1360000E-03
287.2992, 0.3550570
287.7813, 0.8191990
288.2634, 1.219650
288.7455, 1.583664
289.2276, 1.844559
289.7097, 1.886444
290.1919, 1.678528
290.6740, 1.364105
291.1561, 1.067352
291.6382, 0.7725980
292.1203, 0.6678160
292.6024, 0.9863130
293.0846, 1.384003
293.5667, 1.471375
294.0488, 1.203125
294.5309, 0.9150850
295.0130, 0.9337620
295.4951, 1.267639
295.9773, 1.516052
296.4594, 1.595505
296.9415, 1.634964
297.4236, 1.737534
297.9057, 1.903122
298.3878, 2.055588
298.8700, 2.100342
299.3521, 2.088623
299.8342, 2.289078
300.3163, 2.936752
300.7984, 3.577667
301.2805, 3.972580
301.7627, 4.137772
302.2448, 4.152008
302.7269, 4.011734
303.2090, 3.776917
303.6911, 3.641251
304.1732, 3.729309
304.6554, 3.709015
305.1375, 3.206879
305.6196, 2.467972
306.1017, 2.215561
306.5838, 2.859879
307.0659, 3.861252
307.5481, 4.108795
308.0302, 3.457169
308.5123, 2.854538
308.9944, 2.560928
309.4765, 2.522537
309.9586, 2.718796
310.4408, 3.187012
310.9229, 3.705338
311.4050, 3.977371
311.8871, 4.009369
312.3692, 3.529026
312.8513, 4.064245
313.3335, 4.371096
313.8156, 4.461844
314.2977, 3.689248
314.7798, 4.031481
315.2619, 3.926942
315.7440, 3.804081
316.2262, 4.303225
316.7083, 3.656201
317.1904, 4.145478
317.6725, 4.181163
318.1546, 4.424447
318.6367, 4.218198
319.1188, 4.150795
319.6010, 4.533072
320.0831, 4.666356
320.5652, 4.408358
321.0473, 4.664837
321.5294, 4.002110
322.0115, 4.145999
322.4937, 4.637910
322.9758, 4.340210
323.4579, 4.741608
323.9400, 5.027847
324.4221, 5.171967
324.9042, 5.290451
325.3864, 5.496124
325.8685, 5.695969
326.3506, 5.672791
326.8327, 5.321976
327.3148, 4.856720
327.7969, 4.600311
328.2791, 4.554153
328.7612, 4.606247
329.2433, 4.897507
329.7254, 5.217560
330.2075, 5.272217
330.6896, 5.010956
331.1718, 4.704453
331.6539, 4.648071
332.1360, 4.857803
332.6181, 4.866165
333.1002, 4.442490
333.5823, 3.957596
334.0645, 3.661057
334.5466, 3.566696
335.0287, 3.604675
335.5108, 3.785736
335.9929, 4.062637
336.4750, 4.095871
336.9572, 3.558609
337.4393, 3.117783
337.9214, 3.133804
338.4035, 3.448349
338.8856, 3.729660
339.3677, 3.835205
339.8499, 3.795425
340.3320, 3.701920
340.8141, 3.536438
341.2962, 3.355637
341.7783, 3.015091
342.2604, 2.720901
342.7426, 2.846420
343.2247, 3.491409
343.7068, 4.231354
344.1889, 4.497437
344.6710, 4.100021
345.1531, 3.741699
345.6353, 3.296127
346.1174, 3.002274
346.5995, 3.125183
347.0816, 3.602921
347.5637, 4.067856
348.0458, 4.158234
348.5280, 3.868835
349.0101, 3.798691
349.4922, 4.056107
349.9743, 4.319565
350.4564, 4.498260
350.9385, 4.584106
351.4207, 4.544754
351.9028, 4.343582
352.3849, 4.075882
352.8670, 4.119125
353.3491, 4.816162
353.8312, 5.364227
354.3134, 5.605667
354.7955, 5.678223
355.2776, 5.691742
355.7597, 5.689377
356.2418, 5.704407
356.7239, 5.798950
357.2061, 6.083633
357.6882, 6.274918
358.1703, 6.210541
358.6524, 6.145523
359.1345, 6.326065
359.6166, 6.704742
360.0987, 6.968887
360.5808, 6.722961
361.0630, 5.863281
361.5451, 5.521454
362.0272, 6.047256
362.5093, 6.691895
362.9914, 7.392380
363.4735, 8.010040
363.9557, 8.318359
364.4378, 8.192566
364.9199, 7.744324
365.4020, 7.388260
365.8841, 6.984177
366.3662, 6.821991
366.8484, 7.091202
367.3305, 7.550308
367.8126, 7.970428
368.2947, 8.272659
368.7768, 8.495956
369.2589, 8.707855
369.7411, 8.949585
370.2232, 9.057358
370.7053, 8.867538
371.1874, 8.682129
371.6695, 8.709442
372.1516, 8.915070
372.6338, 9.077438
373.1159, 8.952271
373.5980, 8.555756
374.0801, 8.426453
374.5622, 8.816925
375.0443, 9.176987
375.5265, 9.315186
376.0086, 9.304031
376.4907, 9.276459
376.9728, 9.308121
377.4549, 9.337830
377.9370, 9.195770
378.4192, 8.785995
378.9013, 8.478195
379.3834, 8.412460
379.8655, 8.461960
380.3476, 8.554626
380.8297, 8.676788
381.3119, 8.807251
381.7940, 8.962357
382.2761, 9.139511
382.7582, 9.182327
383.2403, 9.058411
383.7224, 8.793045
384.2046, 8.303909
384.6867, 7.679993
385.1688, 7.219666
385.6509, 7.236282
386.1330, 7.506775
386.6151, 7.455490
387.0973, 6.961761
387.5794, 6.584915
388.0615, 6.873184
388.5436, 7.416153
389.0257, 7.615990
389.5078, 7.267021
389.9900, 6.722054
390.4721, 6.202278
390.9542, 5.720673
391.4363, 5.426453
391.9184, 5.458344
392.4005, 5.591446
392.8827, 5.454666
393.3648, 5.016144
393.8469, 4.741348
394.3290, 4.907143
394.8111, 5.316589
395.2932, 5.777260
395.7754, 6.300522
396.2575, 6.506859
396.7396, 5.905083
397.2217, 4.571114
397.7038, 3.564133
398.1859, 3.128677
398.6681, 2.845879
399.1501, 2.467484
399.6323, 2.009689
400.1144, 1.546257
400.5965, 1.097282
401.0786, 0.6997830
401.5607, 0.4863280
402.0428, 0.3175617
402.5250, 0.2169529
403.0071, 0.2488860
403.4892, 0.1795120
403.9713, 0.2304920
404.4534, 0.1727600
404.9355, 0.6066970
405.4177, 0.5362630
405.8998, 0.2030410
406.3819, 0.6251750
406.8640, 0.5595780
407.3461, 0.3812030
407.8282, 0.1936260
408.3104, 4.5403000E-02
408.7925, 2.0966001E-02
409.2746, 0.1896740
409.7567, 0.4860310
410.2388, 0.6152950
410.7209, 0.5479970
411.2031, 0.3253100
411.6852, 0.2570650
412.1673, 0.8767930
412.6494, 1.252884
413.1315, 1.304672
413.6136, 1.100952
414.0958, 0.6684110
414.5779, 0.1126480
415.0600, 0.6485980
415.5421, 0.9524990
416.0242, 0.9842300
416.5063, 0.5098270
416.9885, 0.2660900
417.4706, 0.8876270
417.9527, 1.054512
418.4348, 0.8676680
418.9169, 0.6452870
419.3990, 0.3354720
419.8812, 0.1133040
420.3633, 0.1798860
420.8454, 0.2764050
421.3275, 9.3895003E-02
421.8096, 0.4517290
422.2917, 0.9768750
422.7739, 1.063919
423.2560, 0.7308120
423.7381, 0.3436510
424.2202, 0.1147770
424.7023, 0.5143740
425.1844, 0.7360920
425.6666, 0.8177030
426.1487, 0.8963320
426.6308, 1.116562
427.1129, 1.326912
427.5950, 1.218681
428.0771, 0.7647710
428.5593, 0.4318920
429.0414, 0.4811100
429.5235, 0.8198320
430.0056, 1.224770
430.4877, 1.809944
430.9698, 2.202652
431.4520, 2.109718
431.9341, 1.711258
432.4162, 1.312439
432.8983, 0.9712680
433.3804, 0.7867280
433.8625, 0.9379200
434.3447, 1.488678
434.8268, 1.845901
435.3089, 1.791496
435.7910, 1.706856
436.2731, 1.876587
436.7552, 2.244896
437.2374, 2.580711
437.7195, 2.749542
438.2016, 2.785286
438.6837, 2.814957
439.1658, 2.825958
439.6479, 2.846786
440.1301, 2.815857
440.6122, 2.832260
441.0943, 3.076309
441.5764, 3.539009
442.0585, 3.936562
442.5406, 3.884773
443.0227, 3.264847
443.5049, 3.068565
443.9870, 3.764168
444.4691, 4.404922
444.9512, 4.713249
445.4333, 4.767464
445.9154, 4.699440
446.3976, 4.559097
446.8797, 4.419724
447.3618, 4.468735
447.8439, 4.788826
448.3260, 5.049995
448.8081, 5.184853
449.2903, 5.245888
449.7724, 5.194328
450.2545, 5.060966
450.7366, 5.025719
451.2187, 5.297272
451.7008, 5.794823
452.1830, 6.156075
452.6651, 6.320236
453.1472, 6.480026
453.6293, 6.849915
454.1114, 7.261925
454.5935, 7.446053
455.0757, 7.263420
455.5578, 6.997658
456.0399, 6.813713
456.5220, 6.731117
457.0041, 6.883980
457.4862, 7.409576
457.9684, 7.969917
458.4505, 8.018127
458.9326, 7.555161
459.4147, 7.323074
459.8968, 7.637291
460.3789, 8.108864
460.8611, 8.456291
461.3432, 8.638260
461.8253, 8.665794
462.3074, 8.531624
462.7895, 8.276672
463.2716, 8.137077
463.7538, 8.176262
464.2359, 8.184036
464.7180, 8.082443
465.2001, 8.021782
465.6822, 8.243042
466.1643, 8.742462
466.6465, 9.174576
467.1286, 9.118828
467.6107, 8.490067
468.0928, 8.109627
468.5749, 8.247246
469.0570, 8.383102
469.5392, 8.316757
470.0213, 8.169060
470.5034, 8.209343
470.9855, 8.566254
471.4676, 8.991386
471.9497, 8.982788
472.4319, 8.383919
472.9140, 7.950401
473.3961, 7.985298
473.8782, 8.102402
474.3603, 8.084572
474.8424, 7.974419
475.3246, 7.937088
475.8067, 8.169556
476.2888, 8.521851
476.7709, 8.618057
477.2530, 8.402161
477.7351, 8.286964
478.2173, 8.579689
478.6994, 9.029678
479.1815, 9.230827
479.6636, 9.089813
480.1457, 8.849716
480.6278, 8.600151
481.1100, 8.402603
481.5920, 8.329468
482.0742, 8.391678
482.5563, 8.533974
483.0384, 8.772041
483.5205, 9.091911
484.0026, 9.180054
484.4847, 8.859367
484.9669, 8.517319
485.4490, 8.243843
485.9311, 8.065079
486.4132, 8.064354
486.8953, 8.270859
487.3774, 8.517586
487.8596, 8.509773
488.3417, 8.085190
488.8238, 7.852089
489.3059, 7.940491
489.7880, 8.058510
490.2701, 8.082062
490.7523, 8.020973
491.2344, 7.929993
491.7165, 7.842804
492.1986, 7.751709
492.6807, 7.588127
493.1628, 7.232460
493.6450, 7.131317
494.1271, 7.761429
494.6092, 8.404724
495.0913, 8.543045
495.5734, 8.172409
496.0555, 7.689980
496.5377, 7.307159
497.0198, 7.027710
497.5019, 6.875816
497.9840, 6.862366
498.4661, 6.931038
498.9482, 7.134224
499.4304, 7.367714
499.9125, 7.430244
500.3946, 7.256523
500.8767, 7.048332
501.3588, 6.858894
501.8409, 6.713844
502.3231, 6.672935
502.8052, 6.748322
503.2873, 6.875397
503.7694, 7.037865
504.2515, 7.239563
504.7336, 7.146873
505.2158, 6.429855
505.6979, 5.819664
506.1800, 5.702637
506.6621, 5.824615
507.1442, 5.781319
507.6263, 5.433060
508.1085, 4.944931
508.5906, 4.559280
509.0727, 4.272835
509.5548, 4.102295
510.0369, 4.056976
510.5190, 4.117088
511.0012, 4.402641
511.4833, 4.773224
511.9654, 4.974724
512.4475, 4.872452
512.9296, 4.561897
513.4117, 4.190971
513.8939, 3.747269
514.3760, 3.358429
514.8581, 2.968170
515.3402, 2.740387
515.8223, 2.969055
516.3044, 3.551979
516.7866, 3.818985
517.2687, 3.117409
517.7508, 2.154106
518.2329, 2.003616
518.7150, 2.610825
519.1971, 2.977570
519.6793, 2.522453
520.1614, 1.676262
520.6435, 1.496582
521.1256, 2.258621
521.6077, 2.699043
522.0898, 2.325363
522.5720, 1.757492
523.0541, 1.571404
523.5362, 1.750542
524.0183, 1.916405
524.5004, 1.782852
524.9825, 1.432411
525.4647, 1.298820
525.9468, 1.655380
526.4289, 1.840706
526.9110, 1.661705
527.3931, 1.385094
527.8752, 1.231049
528.3574, 1.224129
528.8395, 1.250137
529.3216, 1.201767
529.8037, 1.102425
530.2858, 1.088951
530.7679, 1.203407
531.2501, 1.279526
531.7322, 1.156784
532.2143, 1.002533
532.6964, 1.023834
533.1785, 1.281944
533.6606, 1.520065
534.1428, 1.478996
534.6249, 1.271729
535.1070, 1.240051
535.5891, 1.458344
536.0712, 1.676468
536.5533, 1.706863
537.0355, 1.571114
537.5176, 1.434814
537.9997, 1.293037
538.4818, 1.155106
538.9639, 0.9967270
539.4460, 0.8570330
539.9282, 0.8189090
540.4103, 0.8821790
540.8924, 0.9047780
541.3745, 0.6998440
541.8566, 0.2521820
542.3387, 0.1437450
542.8209, 0.7738420
543.3029, 1.282631
543.7850, 1.468102
544.2672, 1.457008
544.7493, 1.363258
545.2314, 1.224464
545.7135, 1.079269
546.1956, 0.9670790
546.6777, 0.8874510
547.1599, 0.8089680
547.6420, 0.6947170
548.1241, 0.6803590
548.6062, 0.8564150
549.0883, 1.144630
549.5704, 1.494804
550.0526, 1.997673
550.5347, 2.381470
551.0168, 2.414467
551.4989, 2.196976
551.9810, 1.920052
552.4631, 1.621544
552.9453, 1.415962
553.4274, 1.442017
553.9095, 1.704384
554.3916, 1.843918
554.8737, 1.800385
555.3558, 1.722435
555.8380, 1.472923
556.3201, 1.265938
556.8022, 1.540192
557.2843, 2.339859
557.7664, 3.057007
558.2485, 2.908112
558.7307, 1.856430
559.2128, 1.102242
559.6949, 0.6864850
560.1770, 0.5680390
560.6591, 0.9537200
561.1412, 1.446213
561.6234, 1.498245
562.1055, 0.9282150
562.5876, 0.4521560
563.0697, 0.9749220
563.5518, 2.110878
564.0339, 2.418282
564.5161, 1.555717
564.9982, 0.6102980
565.4803, 0.3466340
565.9624, 0.6306300
566.4445, 0.7614360
566.9266, 0.5859530
567.4088, 0.4716490
567.8909, 0.6926420
568.3730, 0.9774400
568.8551, 0.8376920
569.3372, 0.2655110
569.8193, 0.1184080
570.3015, 0.3491590
570.7836, 1.595825
571.2657, 2.186935
571.7478, 1.557632
572.2299, 1.005005
572.7120, 0.7931980
573.1942, 0.7017520
573.6763, 0.4490590
574.1584, 2.7534001E-02
574.6405, 0.2298580
575.1226, 0.1730880
575.6047, 1.007141
576.0869, 1.248550
576.5690, 0.7654190
577.0511, 0.2348710
577.5332, 8.5258000E-02
578.0153, 0.2224430
578.4974, 0.2069780
578.9796, 7.5909998E-03
579.4617, 0.1614230
579.9438, 5.7022002E-02
580.4259, 9.9831000E-02
580.9080, 4.6009999E-03
581.3901, 0.3358690
581.8723, 0.5211560
582.3544, 0.2995990
582.8365, 0.1921080
583.3186, 0.4910960
583.8007, 0.4914320
584.2828, 0.4482040
584.7650, 0.3280940
585.2471, 0.1996990
585.7292, 9.6404999E-02
586.2113, 2.4727000E-02
586.6934, 3.2649999E-03
587.1755, 4.1634001E-02
587.6577, 9.4214998E-02
588.1398, 3.8956001E-02
588.6219, 0.4028700
589.1040, 0.6453250
589.5861, 0.6810380
590.0682, 0.5610810
590.5504, 0.6243392
591.0325, 0.2338410
591.5146, 0.4895170
591.9967, 0.2383880
592.4788, 0.1221240
592.9609, 0.2516630
593.4431, 0.2098080
593.9252, 0.1732100
594.4073, 0.2013470
594.8894, 0.3038860
595.3715, 0.5156710
595.8536, 0.8964230
596.3358, 1.110916
596.8179, 1.053795
597.3000, 0.9738010
597.7821, 1.006241
598.2642, 1.052887
598.7463, 0.9364620
599.2285, 0.6022030
599.7106, 0.2263030
600.1927, 2.1095000E-02
600.6748, 1.6876001E-02
601.1569, 2.5345000E-02
601.6390, 4.1908000E-02
602.1212, 4.0054001E-02
602.6033, 0.4528810
603.0854, 0.9511950
603.5675, 1.129539
604.0496, 0.8648300
604.5317, 0.5080570
605.0139, 0.1189580
605.4960, 0.2029190
605.9781, 0.2427290
606.4602, 7.4539999E-03
606.9423, 0.2083360
607.4244, 0.1834340
607.9066, 1.9835999E-02
608.3887, 0.1206890
608.8708, 1.9760000E-02
609.3529, 4.7134001E-02
609.8350, 8.0573998E-02
610.3171, 7.1663000E-02
610.7993, 0.1430243
611.2814, 0.1379240
611.7635, 0.2690580
612.2456, 0.3884740
612.7277, 0.4584580
613.2098, 0.3692860
613.6920, 0.3907840
614.1741, 0.3920132
614.6562, 0.2734070
615.1383, 0.3419340
615.6204, 0.2997590
616.1025, 0.1614230
616.5847, 1.5260000E-03
617.0668, 0.2960590
617.5489, 0.4835590
618.0310, 0.2677990
618.5131, 0.1538160
618.9952, 0.3640440
619.4774, 0.2409900
619.9595, 3.3668999E-02
620.4416, 0.2870030
620.9237, 0.5368500
621.4058, 0.4316020
621.8879, 0.5792010
622.3701, 0.6367063
622.8522, 0.5003071
623.3343, 0.6984790
623.8164, 0.3741150
624.2985, 0.2771150
624.7806, 0.4657820
625.2628, 1.319466
625.7448, 2.452332
626.2269, 2.645454
626.7090, 1.782753
627.1912, 1.082260
627.6733, 1.156593
628.1554, 1.663010
628.6375, 1.938850
629.1196, 1.922081
629.6017, 1.992287
630.0839, 2.292274
630.5660, 2.616096
631.0481, 2.799095
631.5302, 2.890228
632.0123, 3.036385
632.4944, 3.298546
632.9766, 3.621597
633.4587, 3.883171
633.9408, 4.075035
634.4229, 4.239067
634.9050, 4.439865
635.3871, 4.519005
635.8693, 4.337334
636.3514, 4.029823
636.8335, 3.759521
637.3156, 3.519325
637.7977, 3.479988
638.2798, 3.918327
638.7620, 4.597176
639.2441, 5.115623
639.7262, 5.416519
640.2083, 5.398232
640.6904, 4.883141
641.1725, 4.098045
641.6547, 3.850113
642.1368, 4.726204
642.6189, 5.299797
643.1010, 5.346062
643.5831, 5.290070
644.0652, 5.383362
644.5474, 5.599846
645.0295, 5.819275
645.5116, 5.988358
645.9937, 6.091606
646.4758, 6.050354
646.9579, 5.865021
647.4401, 5.708649
647.9222, 5.559067
648.4043, 5.544922
648.8864, 5.855713
649.3685, 6.371376
649.8506, 6.724045
650.3328, 6.728554
650.8149, 6.798080
651.2970, 7.237076
651.7791, 7.755173
652.2612, 7.924500
652.7433, 7.759575
653.2255, 7.698219
653.7076, 8.105728
654.1897, 8.778610
654.6718, 8.876831
655.1539, 7.964676
655.6360, 7.534416
656.1182, 8.242760
656.6003, 9.103233
657.0824, 9.625572
657.5645, 9.852722
658.0466, 10.00496
658.5287, 10.18961
659.0109, 10.30322
659.4930, 10.19479
659.9751, 9.942253
660.4572, 9.741364
660.9393, 9.629547
661.4214, 9.560852
661.9036, 9.475586
662.3857, 9.391418
662.8678, 9.496864
663.3499, 10.06886
663.8320, 10.44905
664.3141, 10.48064
664.7963, 10.40266
665.2784, 10.35596
665.7605, 10.36551
666.2426, 10.43784
666.7247, 10.59026
667.2068, 10.81595
667.6890, 11.14397
668.1711, 11.56744
668.6532, 11.92016
669.1353, 12.19234
669.6174, 12.30254
670.0995, 12.10239
670.5817, 11.63077
671.0638, 11.30540
671.5459, 11.10178
672.0280, 11.10232
672.5101, 11.55244
672.9922, 12.07576
673.4744, 12.18711
673.9565, 11.89512
674.4386, 11.64219
674.9207, 11.78606
675.4028, 12.16832
675.8849, 12.21996
676.3671, 11.82734
676.8492, 11.66292
677.3313, 12.05127
677.8134, 12.46735
678.2955, 12.43893
678.7776, 12.08591
679.2598, 11.86112
679.7419, 12.01379
680.2240, 12.16382
680.7061, 12.13161
681.1882, 11.95372
681.6703, 11.65493
682.1525, 11.25789
682.6346, 10.84452
683.1167, 10.46725
683.5988, 10.13850
684.0809, 9.937790
684.5630, 9.927994
685.0452, 9.909927
685.5273, 9.885887
686.0094, 9.821159
686.4915, 9.653465
686.9736, 9.425148
687.4557, 9.264893
687.9379, 9.262100
688.4200, 9.268539
688.9021, 9.097687
689.3842, 8.866722
689.8663, 8.816757
690.3484, 8.970848
690.8306, 9.114311
691.3127, 9.063477
691.7948, 8.871162
692.2769, 8.828102
692.7590, 9.137558
693.2411, 9.292046
693.7233, 9.249367
694.2054, 9.095490
694.6875, 8.777840
695.1696, 8.387558
695.6517, 8.139847
696.1339, 8.156235
696.6160, 8.260872
697.0981, 8.311752
697.5802, 8.297150
698.0623, 8.121384
698.5444, 7.754402
699.0266, 7.475601
699.5087, 7.506920
699.9908, 7.761185
700.4729, 7.916748
700.9550, 8.092331
701.4371, 7.989273
701.9193, 7.217712
702.4014, 6.497002
702.8835, 6.321564
703.3656, 6.549484
703.8477, 6.813492
704.3298, 6.963470
704.8120, 7.034218
705.2941, 7.011002
705.7762, 6.931870
706.2583, 7.033112
706.7404, 7.376526
707.2225, 7.624825
707.7046, 7.556572
708.1867, 7.270645
708.6688, 7.022560
709.1509, 6.798950
709.6331, 6.683983
710.1152, 6.859100
710.5973, 6.946854
711.0794, 6.633141
711.5615, 6.110283
712.0436, 5.679100
712.5258, 5.446693
713.0079, 5.332764
713.4900, 5.234634
713.9721, 5.168732
714.4542, 5.247162
714.9363, 5.493896
715.4185, 5.775345
715.9006, 6.136772
716.3827, 6.389549
716.8648, 6.103889
717.3469, 5.145744
717.8290, 4.519150
718.3112, 4.528206
718.7933, 4.653267
719.2754, 4.644760
719.7575, 4.585426
720.2396, 4.627594
720.7217, 4.803238
721.2039, 5.009880
721.6860, 5.167931
722.1681, 5.274406
722.6502, 5.315720
723.1323, 5.304016
723.6144, 5.130440
724.0966, 4.676064
724.5787, 4.172951
725.0608, 3.898148
725.5429, 3.846268
726.0250, 3.827133
726.5071, 4.053329
726.9893, 4.044777
727.4714, 3.347855
727.9535, 2.491478
728.4356, 2.079651
728.9177, 2.168289
729.3998, 2.454575
729.8820, 2.751366
730.3641, 3.037895
730.8462, 3.332199
731.3283, 3.644081
731.8104, 3.579407
732.2925, 2.913826
732.7747, 2.198586
733.2568, 1.879692
733.7389, 1.900223
734.2210, 1.908340
734.7031, 1.881073
735.1852, 1.875374
735.6674, 2.016380
736.1495, 2.091263
736.6316, 1.839096
737.1137, 1.365639
737.5958, 0.9921420
738.0779, 0.8780210
738.5601, 0.8983610
739.0422, 0.8699490
739.5243, 0.8027500
740.0064, 0.8042530
740.4885, 0.9004520
740.9706, 0.9926760
741.4528, 1.059349
741.9349, 1.064072
742.4170, 0.8874590
742.8991, 0.4321520
743.3812, 0.1470340
743.8633, 0.1165920
744.3455, 0.2149580
744.8276, 0.5768740
745.3097, 0.9473650
745.7918, 0.8674850
746.2739, 0.8853111
746.7560, 0.4026180
747.2382, 0.5635760
747.7203, 0.3851620
748.2024, 0.3527070
748.6845, 0.4717940
749.1666, 0.4624400
749.6487, 0.1741260
750.1309, 0.1353000
750.6130, 0.1392590
751.0951, 0.1856460
751.5772, 0.3935240
752.0593, 0.4756320
752.5414, 0.4648510
753.0236, 0.3275760
753.5057, 0.1317060
753.9878, 0.1149220
754.4699, 0.3679200
754.9520, 0.5007250
755.4341, 0.4028090
755.9163, 0.2325670
756.3984, 0.2730410
756.8805, 0.4465870
757.3626, 0.3538440
757.8447, 8.9584000E-02
758.3268, 0.4842380
758.8090, 0.5470050
759.2911, 0.3482670
759.7732, 0.1215210
760.2553, 0.1802980
760.7374, 0.4286190
761.2195, 0.7179180
761.7017, 0.8617320
762.1838, 0.6656950
762.6659, 0.3060380
763.1480, 6.9091998E-02
763.6301, 3.8376000E-02
764.1122, 2.4582000E-02
764.5944, 0.1649630
765.0765, 0.3988800
765.5586, 0.4154590
766.0407, 0.2585980
766.5228, 0.2569660
767.0049, 0.5535280
767.4871, 0.8422850
767.9692, 0.6880340
768.4513, 0.7675871
768.9334, 0.7267469
769.4155, 0.4913860
769.8976, 0.5264590
770.3798, 0.2953720
770.8619, 0.1295550
771.3440, 0.4429170
771.8261, 1.111534
772.3082, 1.458893
772.7903, 1.027252
773.2725, 0.5052640
773.7546, 0.3741910
774.2367, 0.4626080
774.7188, 0.4601670
775.2009, 0.3649440
775.6830, 0.4862440
776.1652, 1.063477
776.6473, 1.820786
777.1294, 2.096786
777.6115, 1.841194
778.0936, 1.412048
778.5757, 0.6575700
779.0579, 5.0712999E-02
779.5400, 0.1280820
780.0221, 1.8310000E-03
780.5042, 0.2550580
780.9863, 0.6730040
781.4684, 1.050476
781.9506, 1.362434
782.4327, 1.595406
782.9148, 1.724434
783.3969, 1.775200
783.8790, 1.764084
784.3611, 1.708191
784.8433, 1.673271
785.3254, 1.717026
785.8075, 1.829407
786.2896, 2.040367
786.7717, 2.353630
787.2538, 2.412582
787.7360, 2.040039
788.2181, 1.668449
788.7002, 1.756523
789.1823, 2.223633
789.6644, 2.381157
790.1465, 1.869324
790.6286, 1.581070
791.1107, 1.754723
791.5928, 2.011581
792.0750, 2.101547
792.5571, 2.082222
793.0392, 2.132439
793.5213, 2.325714
794.0034, 2.511742
794.4855, 2.486916
794.9677, 2.394676
795.4498, 2.584946
795.9319, 3.013748
796.4140, 3.234688
796.8961, 3.048782
797.3782, 2.741402
797.8604, 2.725380
798.3425, 3.019608
798.8246, 3.112297
799.3067, 2.825111
799.7888, 2.658119
800.2709, 2.908089
800.7531, 3.185249
801.2352, 3.149086
801.7173, 2.863045
802.1994, 2.676720
802.6815, 2.679657
803.1636, 2.802910
803.6458, 3.088120
804.1279, 3.427246
804.6100, 3.694489
805.0921, 3.882980
805.5742, 4.009598
806.0563, 4.064949
806.5385, 4.040627
807.0206, 3.884598
807.5027, 3.631836
807.9848, 3.612282
808.4669, 3.881798
808.9490, 4.081856
809.4312, 4.031288
809.9133, 3.877609
810.3954, 3.825317
810.8775, 3.889488
811.3596, 4.023643
811.8417, 4.373878
812.3239, 4.595711
812.8060, 4.556038
813.2881, 4.377205
813.7702, 4.087257
814.2523, 3.758369
814.7344, 3.598015
815.2166, 3.758598
815.6987, 4.016586
816.1808, 4.144844
816.6629, 4.197433
817.1450, 4.295273
817.6271, 4.437767
818.1093, 4.463547
818.5914, 4.255188
819.0735, 3.998299
819.5556, 4.089211
820.0377, 4.608971
820.5198, 4.959358
821.0020, 5.094467
821.4841, 5.149162
821.9662, 5.182571
822.4483, 5.142471
822.9304, 4.883331
823.4125, 4.432579
823.8947, 4.279373
824.3768, 4.737839
824.8589, 5.219254
825.3410, 5.572151
825.8231, 5.778671
826.3052, 5.761261
826.7874, 5.543777
827.2695, 5.304375
827.7516, 5.134933
828.2337, 5.026672
828.7158, 4.976418
829.1979, 4.976891
829.6801, 4.997108
830.1622, 5.034348
830.6443, 5.099007
831.1264, 5.198364
831.6085, 5.321739
832.0906, 5.458740
832.5728, 5.617271
833.0549, 5.720947
833.5370, 5.659348
834.0191, 5.702881
834.5012, 6.048050
834.9833, 6.406067
835.4655, 6.505806
835.9476, 6.389633
836.4297, 6.329643
836.9118, 6.422684
837.3939, 6.561974
837.8760, 6.769119
838.3582, 6.947830
838.8403, 6.912781
839.3224, 6.741989
839.8045, 6.727097
840.2866, 7.006554
840.7687, 7.389145
841.2509, 7.686417
841.7330, 7.871315
842.2151, 7.661972
842.6972, 7.014633
843.1793, 6.682281
843.6614, 7.008186
844.1436, 7.552025
844.6257, 7.819664
845.1078, 7.816772
845.5899, 7.791473
846.0720, 7.732010
846.5541, 7.665123
847.0363, 7.519905
847.5184, 7.435616
848.0005, 7.553070
848.4826, 7.788437
848.9647, 7.955528
849.4468, 8.008110
849.9290, 7.986618
850.4111, 7.860497
850.8932, 7.713097
851.3753, 7.616028
851.8574, 7.570038
852.3395, 7.574699
852.8217, 7.624649
853.3038, 7.671532
853.7859, 7.644714
854.2680, 7.600121
854.7501, 7.772247
855.2322, 8.161293
855.7144, 8.342361
856.1965, 8.184334
856.6786, 8.022095
857.1607, 8.144089
857.6428, 8.423065
858.1249, 8.433022
858.6071, 7.956398
859.0892, 7.679863
859.5713, 7.842529
860.0534, 7.919380
860.5355, 7.572334
861.0176, 7.145607
861.4998, 7.040817
861.9819, 7.269592
862.4640, 7.495857
862.9461, 7.534737
863.4282, 7.569183
863.9103, 7.859848
864.3925, 8.152023
864.8746, 8.006531
865.3567, 7.464401
865.8388, 6.938011
866.3209, 6.660408
866.8030, 6.564690
867.2852, 6.632034
867.7673, 6.821991
868.2494, 6.920242
868.7315, 6.902863
869.2136, 6.798943
869.6957, 6.608513
870.1779, 6.426842
870.6600, 6.371284
871.1421, 6.437172
871.6242, 6.589745
872.1063, 7.009483
872.5884, 7.214584
873.0705, 6.988663
873.5526, 6.658630
874.0347, 6.361649
874.5168, 6.105255
874.9990, 5.897751
875.4811, 5.737556
875.9632, 5.626694
876.4453, 5.668694
876.9274, 5.692207
877.4095, 5.478554
877.8917, 5.193993
878.3738, 5.197037
878.8559, 5.507217
879.3380, 5.685654
879.8201, 5.234482
880.3022, 4.635132
880.7844, 4.854630
881.2665, 5.621277
881.7486, 5.870789
882.2307, 5.451584
882.7128, 4.949966
883.1949, 4.739166
883.6771, 4.716682
884.1592, 4.680557
884.6413, 4.639870
885.1234, 4.495094
885.6055, 4.159004
886.0876, 3.934563
886.5698, 3.961868
887.0519, 4.146225
887.5340, 4.417305
888.0161, 4.746780
888.4982, 4.854469
888.9803, 4.510216
889.4625, 4.273125
889.9446, 4.403252
890.4267, 4.521255
890.9088, 4.319504
891.3909, 3.918282
891.8730, 3.554771
892.3552, 3.297806
892.8373, 3.225906
893.3194, 3.666153
893.8015, 4.083870
894.2836, 3.747292
894.7657, 2.987503
895.2479, 2.544579
895.7300, 2.547813
896.2121, 2.617760
896.6942, 2.489288
897.1763, 2.237740
897.6584, 2.012321
898.1406, 1.837418
898.6227, 1.875961
899.1048, 2.167313
899.5869, 2.363586
900.0690, 2.283005
900.5511, 2.059456
901.0333, 1.902901
901.5154, 1.819138
901.9975, 1.666229
902.4796, 1.261559
902.9617, 1.146790
903.4438, 1.761612
903.9260, 2.341515
904.4081, 2.304886
904.8902, 1.860451
905.3723, 1.521873
905.8544, 1.322876
906.3365, 1.292358
906.8187, 1.631546
907.3008, 1.935135
907.7829, 1.937241
908.2650, 1.762871
908.7471, 1.562469
909.2292, 1.384483
909.7114, 1.274788
910.1935, 1.315453
910.6756, 1.346092
911.1577, 1.123718
911.6398, 0.8199230
912.1219, 0.8204800
912.6041, 1.081055
913.0862, 1.217232
913.5683, 1.057625
914.0504, 0.7384410
914.5325, 0.3586880
915.0146, 2.7107000E-02
915.4968, 4.5380000E-02
915.9789, 0.3216630
916.4610, 0.5713810
916.9431, 0.5803380
917.4252, 0.4131160
917.9073, 4.7424000E-02
918.3895, 0.3869400
918.8716, 0.3845520
919.3537, 0.3494640
919.8358, 0.7553020
920.3179, 0.6344990
920.8000, 0.4616780
921.2822, 0.3511960
921.7643, 0.3299180
922.2464, 0.5259930
922.7285, 0.9171070
923.2106, 1.024292
923.6927, 0.5672070
924.1749, 0.1060870
924.6570, 0.3116460
925.1391, 0.5738220
925.6212, 0.4833530
926.1033, 0.2003020
926.5854, 5.2398998E-02
927.0676, 0.1367870
927.5497, 0.2477040
928.0318, 0.2882610
928.5139, 0.2562030
928.9960, 0.2735751
929.4781, 0.1645130
929.9603, 0.2175980
930.4424, 7.6293997E-02
930.9245, 7.3234998E-02
931.4066, 0.1101070
931.8887, 9.0919003E-02
932.3708, 0.1519550
932.8530, 0.2372970
933.3351, 1.1223000E-02
933.8172, 0.5112000
934.2993, 0.7449040
934.7814, 0.4533160
935.2635, 9.9259997E-03
935.7457, 0.2812270
936.2278, 0.3739010
936.7099, 0.3315200
937.1920, 9.5504999E-02
937.6741, 3.2269999E-03
938.1563, 0.1679920
938.6384, 0.3140790
939.1205, 0.3032300
939.6026, 0.1724620
940.0847, 3.4697998E-02
940.5668, 0.3459010
941.0490, 0.5700230
941.5311, 0.6664660
942.0132, 0.7357560
942.4953, 0.9146120
942.9774, 0.9675140
943.4595, 0.5983510
943.9417, 0.7468364
944.4238, 0.4412570
944.9059, 0.5732190
945.3880, 0.5384480
945.8701, 0.2410700
946.3522, 6.0619000E-02
946.8344, 0.2177890
947.3165, 0.2601510
947.7986, 0.1590000
948.2807, 2.2518000E-02
948.7628, 1.9127000E-02
949.2449, 0.3933750
949.7271, 0.8249020
950.2092, 0.8714220
950.6913, 0.7151490
951.1734, 0.6040190
951.6555, 0.5556950
952.1376, 0.5712200
952.6198, 0.4506612
953.1019, 0.6113820
953.5840, 0.2767410
954.0661, 0.1512680
954.5482, 5.3103998E-02
955.0303, 0.4719280
955.5124, 0.7512890
955.9945, 0.6910820
956.4766, 0.5123750
956.9587, 0.2957690
957.4409, 0.2518460
957.9230, 0.8489380
958.4051, 2.064297
958.8872, 2.295547
959.3693, 1.268341
959.8514, 0.4186100
960.3336, 3.5445999E-02
960.8157, 4.7207002E-02
961.2978, 0.1460000
961.7799, 0.4951480
962.2620, 0.6578560
962.7441, 0.5690920
963.2263, 0.4941290
963.7084, 0.4043960
964.1905, 0.3691410
964.6726, 0.3995900
965.1547, 0.4959110
965.6368, 0.7679980
966.1190, 1.126938
966.6011, 1.160847
967.0832, 0.5667690
967.5653, 0.1613880
968.0474, 0.3081590
968.5295, 0.4834140
969.0117, 0.3159100
969.4938, 3.6076002E-02
969.9759, 2.2834999E-02
970.4580, 0.1628880
970.9401, 0.3722920
971.4222, 0.4898570
971.9044, 0.6371650
972.3865, 0.9892350
972.8686, 1.332565
973.3507, 1.403854
973.8328, 1.281845
974.3149, 1.193096
974.7971, 1.199165
975.2792, 1.152500
975.7613, 0.8649220
976.2434, 0.5202030
976.7255, 0.3879200
977.2076, 0.4586180
977.6898, 0.7282870
978.1719, 1.132164
978.6540, 1.395500
979.1361, 1.389248
979.6182, 1.244991
980.1003, 1.079021
980.5825, 0.9234500
981.0646, 0.9609070
981.5467, 1.148472
982.0288, 1.062492
982.5109, 0.6004070
982.9930, 0.2281150
983.4752, 0.2679250
983.9573, 0.6212080
984.4394, 1.161617
984.9215, 1.878338
985.4036, 2.127163
985.8857, 1.858723
986.3679, 1.380939
986.8500, 0.6675570
987.3321, 0.1414450
987.8142, 0.1886220
988.2963, 0.6348920
988.7784, 0.9449840
989.2606, 1.116280
989.7427, 1.173851
990.2248, 1.045498
990.7069, 0.9239730
991.1890, 0.8721200
991.6711, 0.8838620
992.1533, 1.005882
992.6354, 1.198112
993.1175, 1.206688
993.5996, 0.8610040
994.0817, 0.6261220
994.5638, 0.5951690
995.0460, 0.6018940
995.5281, 0.5311780
996.0102, 0.4654050
996.4923, 0.5614510
996.9744, 0.7982860
997.4565, 0.9174000
997.9387, 0.7020420
998.4208, 0.6500970
998.9029, 1.125553
999.3850, 1.542076
999.8671, 1.436722
1000.349, 1.087177
1000.831, 0.9032440
1001.313, 0.9334980
1001.796, 0.9706420
1002.278, 0.9073180
1002.760, 0.8547860
1003.242, 0.8920590
1003.724, 0.9744420
1004.206, 1.046501
1004.688, 1.103924
1005.170, 1.188770
1005.653, 1.301544
1006.135, 1.354778
1006.617, 1.249870
1007.099, 1.157986
1007.581, 1.280506
1008.063, 1.461712
1008.545, 1.454823
1009.027, 1.304951
1009.509, 1.188004
1009.992, 1.172028
1010.474, 1.259808
1010.956, 1.529575
1011.438, 1.816929
1011.920, 1.863216
1012.402, 1.744656
1012.884, 1.470039
1013.366, 1.124290
1013.849, 1.173588
1014.331, 1.808105
1014.813, 2.425705
1015.295, 2.266830
1015.777, 1.668816
1016.259, 1.473507
1016.741, 1.594585
1017.223, 1.630856
1017.705, 1.526878
1018.188, 1.441139
1018.670, 1.464626
1019.152, 1.500889
1019.634, 1.349735
1020.116, 1.441657
1020.598, 1.492754
1021.080, 1.470600
1021.562, 1.656712
1022.044, 1.600941
1022.527, 1.574371
1023.009, 1.741512
1023.491, 1.983089
1023.973, 2.102882
1024.455, 2.107414
1024.937, 2.194099
1025.419, 2.401676
1025.901, 2.303535
1026.384, 1.742611
1026.866, 1.196480
1027.348, 0.9434700
1027.830, 0.9216380
1028.312, 1.038544
1028.794, 1.295399
1029.276, 1.585567
1029.758, 1.973736
1030.240, 2.148186
1030.723, 1.958664
1031.205, 1.762020
1031.687, 1.805656
1032.169, 1.977509
1032.651, 2.039124
1033.133, 1.963039
1033.615, 2.011257
1034.097, 2.262104
1034.579, 2.475548
1035.062, 2.698410
1035.544, 2.721184
1036.026, 2.177727
1036.508, 1.474426
1036.990, 1.557434
1037.472, 2.649357
1037.954, 3.270702
1038.436, 3.215508
1038.919, 3.009331
1039.401, 2.584156
1039.883, 2.205772
1040.365, 2.072456
1040.847, 2.097336
1041.329, 2.099190
1041.811, 2.062046
1042.293, 2.090046
1042.776, 2.277699
1043.258, 2.398014
1043.740, 2.330929
1044.222, 2.263805
1044.704, 2.349293
1045.186, 2.509998
1045.668, 2.579788
1046.150, 2.540909
1046.632, 2.513363
1047.115, 2.454422
1047.597, 2.501976
1048.079, 2.778576
1048.561, 3.044380
1049.043, 3.215004
1049.525, 3.238277
1050.007, 2.912552
1050.489, 2.161819
1050.971, 1.748775
1051.454, 2.171791
1051.936, 2.474316
1052.418, 2.227337
1052.900, 1.900799
1053.382, 1.802979
1053.864, 1.889141
1054.346, 2.092274
1054.828, 2.408955
1055.311, 2.553699
1055.793, 2.311867
1056.275, 2.078136
1056.757, 1.987354
1057.239, 1.980236
1057.721, 1.978962
1058.203, 2.007584
1058.685, 2.109093
1059.167, 2.284451
1059.650, 2.343826
1060.132, 2.191082
1060.614, 1.982513
1061.096, 1.494030
1061.578, 1.200356
1062.060, 1.727810
1062.542, 2.563328
1063.024, 2.778816
1063.506, 2.272240
1063.989, 1.837036
1064.471, 1.827621
1064.953, 1.848267
1065.435, 1.706596
1065.917, 1.542377
1066.399, 1.447643
1066.881, 1.407349
1067.363, 1.365818
1067.846, 1.327232
1068.328, 1.397804
1068.810, 1.766068
1069.292, 1.991730
1069.774, 1.709625
1070.256, 1.382053
1070.738, 1.440895
1071.220, 1.630337
1071.703, 1.502365
1072.185, 1.065311
1072.667, 0.7601970
1073.149, 0.7647320
1073.631, 0.8850440
1074.113, 1.132973
1074.595, 1.358837
1075.077, 1.491787
1075.559, 1.531799
1076.042, 1.436600
1076.524, 1.238155
1077.006, 1.069660
1077.488, 0.9598810
1077.970, 0.9796180
1078.452, 1.292091
1078.934, 1.600765
1079.416, 1.822105
1079.898, 1.845112
1080.380, 1.382851
1080.863, 0.6130980
1081.345, 0.1527370
1081.827, 0.2288970
1082.309, 0.4402200
1082.791, 0.7302780
1083.273, 0.9545820
1083.755, 0.9624600
1084.237, 0.9079130
1084.720, 1.002934
1085.202, 1.174442
1085.684, 1.165745
1086.166, 0.8882710
1086.648, 0.6464920
1087.130, 0.5223390
1087.612, 0.5201950
1088.094, 0.7907640
1088.577, 1.055599
1089.059, 0.9817430
1089.541, 0.7215420
1090.023, 0.6356890
1090.505, 0.7956350
1090.987, 0.9733810
1091.469, 1.235760
1091.951, 1.304993
1092.433, 0.8883550
1092.916, 0.4053760
1093.398, 0.1475640
1093.880, 7.3440999E-02
1094.362, 0.1350290
1094.844, 0.3096010
1095.326, 0.4433360
1095.808, 0.4665180
1096.290, 0.4753190
1096.772, 0.5513920
1097.255, 0.5686230
1097.737, 0.3124500
1098.219, 3.0300001E-02
1098.701, 0.1309550
1099.183, 0.5710750
1099.665, 0.8219340
1100.147, 0.6907080
1100.629, 0.5081940
1101.112, 0.3100200
1101.594, 0.1395720
1102.076, 4.0089000E-02
1102.558, 0.1407590
1103.040, 4.5990001E-02
1103.522, 0.4026680
1104.004, 0.4525680
1104.486, 0.4631392
1104.969, 0.3382910
1105.451, 0.4017260
1105.933, 0.2899700
1106.415, 0.1020620
1106.897, 0.5380860
1107.379, 0.9234810
1107.861, 1.178989
1108.343, 1.108234
1108.825, 0.6057240
1109.307, 0.3108630
1109.790, 0.5038530
1110.272, 0.5911980
1110.754, 0.2693100
1111.236, 3.0020000E-03
1111.718, 0.1761740
1112.200, 0.5358810
1112.682, 0.6825900
1113.164, 0.6077080
1113.647, 0.4100230
1114.129, 0.2153970
1114.611, 0.4499860
1115.093, 7.6824002E-02
1115.575, 0.5785060
1116.057, 0.7777020
1116.539, 0.7293590
1117.021, 0.3805960
1117.504, 0.1881790
1117.986, 0.3755340
1118.468, 6.2560001E-03
1118.950, 0.3353770
1119.432, 0.7009960
1119.914, 0.9220620
1120.396, 0.9360770
1120.878, 0.7933620
1121.360, 0.4664840
1121.843, 6.4021997E-02
1122.325, 9.2308000E-02
1122.807, 2.0443000E-02
1123.289, 0.2861900
1123.771, 0.7889630
1124.253, 1.152897
1124.735, 1.308624
1125.217, 1.257107
1125.699, 0.9315190
1126.182, 0.5482370
1126.664, 0.5178490
1127.146, 0.3591428
1127.628, 0.2354622
1128.110, 0.3699230
1128.592, 0.1631200
1129.074, 0.2567900
1129.556, 0.3589630
1130.039, 0.3375210
1130.521, 0.2786600
1131.003, 0.2903940
1131.485, 0.3211940
1131.967, 0.1416090
1132.449, 0.2275350
1132.931, 0.3971060
1133.413, 0.3471830
1133.896, 0.2061580
1134.378, 1.5022000E-02
1134.860, 0.1326520
1135.342, 0.1604770
1135.824, 0.1312450
1136.306, 0.1485250
1136.788, 0.2058600
1137.270, 0.2691650
1137.752, 0.3388480
1138.234, 0.4415170
1138.717, 0.5675050
1139.199, 0.5904270
1139.681, 0.4468960
1140.163, 0.3565370
1140.645, 0.6401900
1141.127, 1.067673
1141.609, 1.275955
1142.091, 1.277092
1142.574, 0.9938890
1143.056, 0.5315740
1143.538, 0.1897580
1144.020, 6.8389997E-02
1144.502, 0.1223450
1144.984, 0.3734510
1145.466, 0.6541250
1145.948, 0.8680800
1146.431, 0.9466480
1146.913, 0.6026650
1147.395, 0.1476360
1147.877, 0.2730980
1148.359, 0.9142800
1148.841, 1.298733
1149.323, 1.081207
1149.805, 0.7032780
1150.287, 0.2552870
1150.770, 4.0957998E-02
1151.252, 5.0331000E-02
1151.734, 0.3246770
1152.216, 0.5910570
1152.698, 0.8280070
1153.180, 1.044018
1153.662, 1.242073
1154.144, 1.359970
1154.626, 1.361454
1155.109, 1.303486
1155.591, 1.166496
1156.073, 1.016754
1156.555, 0.8168530
1157.037, 0.6827280
1157.519, 0.8790970
1158.001, 1.322834
1158.483, 1.368961
1158.966, 0.6244890
1159.448, 0.1957550
1159.930, 0.3892480
1160.412, 0.5719990
1160.894, 0.5011940
1161.376, 0.4711040
1161.858, 0.8089870
1162.340, 1.275002
1162.822, 1.313965
1163.305, 0.8958090
1163.787, 0.5186080
1164.269, 0.1234440
1164.751, 1.4984000E-02
1165.233, 0.2276040
1165.715, 0.5430530
1166.197, 0.8203350
1166.679, 0.9701420
1167.161, 0.8596920
1167.644, 0.5789870
1168.126, 0.4991800
1168.608, 0.6264190
1169.090, 0.7302780
1169.572, 0.8040770
1170.054, 0.7796670
1170.536, 0.6347160
1171.018, 0.5618520
1171.500, 0.7059170
1171.983, 0.6315093
1172.465, 0.8734280
1172.947, 0.7481350
1173.429, 0.8230820
1173.911, 1.007751
1174.393, 0.9588430
1174.875, 0.6903420
1175.357, 0.4633710
1175.840, 0.3956720
1176.322, 0.5092090
1176.804, 0.8644600
1177.286, 1.259304
1177.768, 1.473644
1178.250, 1.540501
1178.732, 1.509895
1179.214, 1.366539
1179.697, 0.9617420
1180.179, 0.3864860
1180.661, 9.5062003E-02
1181.143, 0.2857780
1181.625, 0.6002080
1182.107, 0.9700320
1182.589, 1.205688
1183.071, 1.032780
1183.553, 0.7991710
1184.036, 0.8092730
1184.518, 1.022892
1185.000, 1.396534
1185.482, 1.895870
1185.964, 2.143200
1186.446, 1.992748
1186.928, 1.691776
1187.410, 1.065407
1187.892, 0.5623440
1188.375, 0.3886990
1188.857, 0.4139330
1189.339, 0.6220860
1189.821, 0.8997880
1190.303, 0.8715320
1190.785, 0.8775356
1191.267, 0.8249792
1191.749, 0.5299950
1192.232, 0.5568770
1192.714, 0.1583250
1193.196, 4.9507000E-02
1193.678, 0.6972240
1194.160, 1.446526
1194.642, 1.458214
1195.124, 0.9563830
1195.606, 0.8297420
1196.089, 1.063427
1196.571, 1.300850
1197.053, 1.518974
1197.535, 1.647888
1198.017, 1.670559
1198.499, 1.610165
1198.981, 1.473473
1199.463, 1.259548
1199.945, 0.8632320
1200.427, 0.4780120
1200.910, 0.5901150
1201.392, 0.9711840
1201.874, 1.135460
1202.356, 1.085255
1202.838, 0.9882620
1203.320, 0.9042930
1203.802, 0.8530460
1204.284, 0.8266980
1204.767, 0.8933940
1205.249, 1.218994
1205.731, 1.536030
1206.213, 1.633739
1206.695, 1.579105
1207.177, 1.464989
1207.659, 1.281593
1208.141, 0.8895950
1208.624, 0.2237240
1209.106, 3.1353001E-02
1209.588, 0.8073540
1210.070, 1.280243
1210.552, 0.7053030
1211.034, 0.1639370
1211.516, 0.2216910
1211.998, 0.5010950
1212.480, 0.6409450
1212.963, 0.6725120
1213.445, 0.7043950
1213.927, 0.7218700
1214.409, 0.8144570
1214.891, 0.9936290
1215.373, 1.220020
1215.855, 1.513405
1216.337, 1.724468
1216.819, 1.779133
1217.302, 1.665955
1217.784, 1.328671
1218.266, 0.8925860
1218.748, 0.7789570
1219.230, 0.9224050
1219.712, 1.000397
1220.194, 1.009315
1220.676, 1.092018
1221.159, 1.235958
1221.641, 1.082951
1222.123, 0.4249530
1222.605, 0.2206270
1223.087, 0.3045810
1223.569, 0.1128580
1224.051, 0.1233370
1224.533, 0.3669200
1225.016, 0.5642090
1225.498, 0.7288670
1225.980, 0.9593770
1226.462, 1.219875
1226.944, 1.213013
1227.426, 0.6934430
1227.908, 0.3125500
1228.390, 0.3132060
1228.872, 0.4445150
1229.354, 0.8190080
1229.837, 1.063641
1230.319, 0.6342350
1230.801, 5.4589999E-03
1231.283, 0.1538540
1231.765, -3.1579204E-02
1232.247, -0.1078056
1232.729, 0.2529750
1233.211, 9.8511003E-02
1233.694, 0.4361190
1234.176, 0.8747600
1234.658, 0.9171980
1235.140, 0.8059120
1235.622, 0.6955030
1236.104, 0.6083300
1236.586, 0.5850260
1237.068, 0.6119310
1237.551, 0.6354450
1238.033, 0.6655880
1238.515, 0.8059010
1238.997, 1.024857
1239.479, 1.120476
1239.961, 1.054035
1240.443, 0.9338570
1240.925, 0.8112600
1241.407, 0.7807010
1241.890, 1.052410
1242.372, 1.335354
1242.854, 1.374481
1243.336, 1.231827
1243.818, 0.8725850
1244.300, 0.4443470
1244.782, 0.2278480
1245.264, 0.2615550
1245.746, 0.3667790
1246.229, 0.5539320
1246.711, 0.7047690
1247.193, 0.9170950
1247.675, 0.9169160
1248.157, 0.3139840
1248.639, 0.2329900
1249.121, 0.1976780
1249.603, 0.1261830
1250.085, 0.2017060
1250.568, 5.0808001E-02
1251.050, 0.1137120
1251.532, 0.4202000
1252.014, 0.5752980
1252.496, 0.5409930
1252.978, 0.7054020
1253.460, 1.183456
1253.942, 1.512779
1254.425, 1.411690
1254.907, 1.124897
1255.389, 0.6196440
1255.871, 0.1372150
1256.353, 0.2300260
1256.835, 0.6312290
1257.317, 0.9687880
1257.799, 1.159943
1258.281, 1.053352
1258.764, 0.7411990
1259.246, 0.5562900
1259.728, 0.7924190
1260.210, 0.9907460
1260.692, 0.9298400
1261.174, 0.7998200
1261.656, 0.5554310
1262.138, 0.4191930
1262.620, 0.7328110
1263.103, 1.153957
1263.585, 1.043095
1264.067, 0.4940760
1264.549, 0.3317570
1265.031, 0.6972920
1265.513, 0.9281310
1265.995, 1.023937
1266.477, 1.004410
1266.960, 0.7772750
1267.442, 0.4421230
1267.924, 3.8063001E-02
1268.406, 0.2010230
1268.888, 0.1306880
1269.370, 0.1479495
1269.852, 0.2474076
1270.334, 0.4275170
1270.817, 0.4531860
1271.299, 0.7505420
1271.781, 0.9890210
1272.263, 1.088161
1272.745, 0.9971580
1273.227, 0.6904600
1273.709, 0.4981730
1274.191, 0.7768020
1274.673, 1.033142
1275.156, 1.036674
1275.638, 0.9421880
1276.120, 0.7911640
1276.602, 0.6029590
1277.084, 0.2298660
1277.566, 1.5476000E-02
1278.048, 0.2071270
1278.530, 0.9053920
1279.012, 1.099583
1279.495, 0.5746610
1279.977, 0.3364330
1280.459, 0.5450290
1280.941, 0.7698550
1281.423, 0.8532940
1281.905, 0.9196820
1282.387, 1.052181
1282.869, 1.108322
1283.352, 0.6929280
1283.834, 0.1077960
1284.316, 3.4370001E-03
1284.798, 0.0000000E+00
##END=



