##NAMES=Metalodevite
##RRUFFID=R130693
##IDEAL CHEMISTRY=Zn^2+^(U^6+^O_2_)_2_(As^5+^O_4_)_2_&#183;10H_2_O
##LOCALITY=Riviéral, Lodève, Hérault, Languedoc-Roussillon, France
##OWNER=RRUFF
##SOURCE=Rock Currier
##DESCRIPTION=Aggregates of pale yellow-green platy crystals
##STATUS=The identification of this mineral has been confirmed only by single crystal X-ray diffraction.
##URL=rruff.info/R130693
145.0265, 0.0000000E+00
145.5086, 278.7500
145.9907, 329.5000
146.4728, 14.50000
146.9550, 49.00000
147.4371, 878.0000
147.9192, 1414.000
148.4013, 1604.000
148.8834, 1515.000
149.3655, 1616.500
149.8477, 1958.750
150.3298, 2555.000
150.8119, 3662.000
151.2940, 6347.000
151.7761, 7610.000
152.2583, 7056.500
152.7404, 5458.750
153.2225, 4125.250
153.7046, 3170.000
154.1867, 2451.250
154.6688, 1874.000
155.1510, 1539.750
155.6331, 1171.000
156.1152, 661.5000
156.5973, 69.00000
157.0794, 298.2500
157.5615, 273.7500
158.0437, 46.00000
158.5258, 237.5000
159.0079, 754.2500
159.4900, 1129.250
159.9721, 1067.000
160.4542, 692.5000
160.9364, 660.0000
161.4185, 1608.500
161.9006, 2805.000
162.3827, 3651.000
162.8648, 3616.250
163.3469, 3491.500
163.8291, 3648.000
164.3112, 4064.750
164.7933, 4411.000
165.2754, 4490.250
165.7575, 4431.250
166.2396, 4370.500
166.7218, 4256.500
167.2039, 4188.250
167.6860, 4195.250
168.1681, 4302.250
168.6502, 4589.750
169.1323, 5289.250
169.6145, 6200.750
170.0966, 7058.500
170.5787, 7802.000
171.0608, 8439.000
171.5429, 8841.500
172.0250, 8985.500
172.5072, 9413.500
172.9893, 10658.50
173.4714, 12450.00
173.9535, 14286.00
174.4356, 16078.75
174.9177, 17801.50
175.3999, 19378.75
175.8820, 20774.00
176.3641, 22018.75
176.8462, 23047.00
177.3283, 23897.00
177.8104, 24697.00
178.2926, 25075.75
178.7747, 25495.50
179.2568, 26981.00
179.7389, 29699.25
180.2210, 32466.00
180.7031, 33809.50
181.1853, 34008.25
181.6674, 34166.00
182.1495, 35057.25
182.6316, 36321.25
183.1137, 37273.25
183.5958, 37963.50
184.0780, 38205.25
184.5601, 37682.00
185.0422, 36294.25
185.5243, 34805.50
186.0064, 34257.50
186.4885, 34422.00
186.9707, 35017.00
187.4528, 35992.25
187.9349, 36829.75
188.4170, 37417.50
188.8991, 37843.25
189.3812, 38371.25
189.8634, 39411.75
190.3455, 40782.75
190.8276, 41210.25
191.3097, 40394.25
191.7918, 38926.75
192.2739, 37726.25
192.7561, 36725.50
193.2382, 35937.25
193.7203, 35349.00
194.2024, 34917.50
194.6845, 34560.50
195.1666, 34410.00
195.6488, 34119.00
196.1309, 32870.25
196.6130, 30492.25
197.0951, 28150.00
197.5772, 26577.50
198.0593, 25794.50
198.5415, 24765.75
199.0236, 23406.75
199.5057, 21834.25
199.9878, 20336.00
200.4699, 18915.25
200.9520, 17550.00
201.4342, 16308.25
201.9163, 15215.25
202.3984, 13989.00
202.8805, 12702.00
203.3626, 11290.25
203.8447, 9965.500
204.3269, 8702.000
204.8090, 7574.500
205.2911, 6653.750
205.7732, 5911.500
206.2553, 5402.250
206.7374, 5208.750
207.2196, 5207.000
207.7017, 5028.250
208.1838, 4635.250
208.6659, 4185.250
209.1480, 3774.500
209.6301, 3370.000
210.1123, 3207.750
210.5944, 3353.000
211.0765, 3706.250
211.5586, 3970.500
212.0407, 4093.500
212.5228, 4259.000
213.0050, 4598.250
213.4871, 5181.750
213.9692, 5711.750
214.4513, 6233.750
214.9334, 6619.750
215.4155, 6412.000
215.8977, 5258.250
216.3798, 4151.250
216.8619, 3649.250
217.3440, 3927.250
217.8261, 4120.750
218.3082, 4133.500
218.7904, 4029.000
219.2725, 4086.500
219.7546, 4504.500
220.2367, 4744.500
220.7188, 4530.000
221.2009, 3695.750
221.6831, 2873.750
222.1652, 2196.000
222.6473, 1573.500
223.1294, 695.7500
223.6115, 768.5000
224.0936, 1875.500
224.5758, 2048.750
225.0579, 580.2500
225.5400, 177.5000
226.0221, 29.75000
226.5042, 872.5000
226.9863, 1409.000
227.4685, 1535.500
227.9506, 1558.250
228.4327, 1694.500
228.9148, 2332.000
229.3969, 2282.250
229.8790, 1502.500
230.3612, 92.25000
230.8433, 1820.250
231.3254, 4601.000
231.8075, 7252.500
232.2896, 9291.750
232.7717, 10385.50
233.2539, 11580.00
233.7360, 12957.50
234.2181, 14368.50
234.7002, 15428.00
235.1823, 15853.50
235.6644, 16332.25
236.1466, 17152.25
236.6287, 18568.75
237.1108, 19413.75
237.5929, 19489.50
238.0750, 19101.00
238.5571, 18955.75
239.0393, 19503.75
239.5214, 19628.00
240.0035, 18897.50
240.4856, 17044.50
240.9677, 15202.00
241.4498, 13243.25
241.9320, 11438.75
242.4141, 10206.75
242.8962, 9974.000
243.3783, 9745.750
243.8604, 9173.500
244.3425, 8145.250
244.8247, 7371.500
245.3068, 6954.750
245.7889, 6772.250
246.2710, 6527.250
246.7531, 5996.750
247.2352, 5758.500
247.7174, 5995.250
248.1995, 6777.500
248.6816, 7606.000
249.1637, 8441.250
249.6458, 9298.750
250.1279, 10253.50
250.6101, 11400.50
251.0922, 12404.50
251.5743, 13181.50
252.0564, 13729.25
252.5385, 13982.25
253.0206, 13784.25
253.5028, 13425.00
253.9849, 13328.75
254.4670, 13591.00
254.9491, 13871.75
255.4312, 14072.25
255.9133, 14195.75
256.3955, 14513.50
256.8776, 15219.75
257.3597, 15894.50
257.8418, 16031.75
258.3239, 15336.25
258.8061, 14724.00
259.2882, 14307.50
259.7703, 14071.75
260.2524, 14273.75
260.7345, 15192.25
261.2166, 16128.00
261.6988, 16370.25
262.1809, 15672.75
262.6630, 15081.50
263.1451, 14865.25
263.6272, 14960.75
264.1093, 14882.75
264.5915, 14495.50
265.0736, 14206.50
265.5557, 14578.75
266.0378, 16185.75
266.5199, 16463.50
267.0020, 14582.00
267.4842, 11099.50
267.9663, 9061.000
268.4484, 8815.000
268.9305, 9194.500
269.4126, 9455.500
269.8947, 9500.250
270.3769, 9686.000
270.8590, 10065.00
271.3411, 10563.25
271.8232, 11030.75
272.3053, 11517.00
272.7874, 11813.00
273.2696, 11624.50
273.7517, 10801.25
274.2338, 10450.75
274.7159, 10746.00
275.1980, 11446.25
275.6801, 12074.00
276.1623, 12661.75
276.6444, 13108.50
277.1265, 13351.00
277.6086, 13367.75
278.0907, 13534.25
278.5728, 13999.25
279.0550, 14392.25
279.5371, 13871.75
280.0192, 12299.75
280.5013, 10916.75
280.9834, 10169.50
281.4655, 9989.250
281.9477, 10449.00
282.4298, 11771.75
282.9119, 13375.00
283.3940, 14151.75
283.8761, 13995.25
284.3582, 13810.50
284.8404, 13996.25
285.3225, 14465.00
285.8046, 14682.25
286.2867, 14617.00
286.7688, 14287.00
287.2509, 13864.75
287.7331, 13382.50
288.2152, 12617.25
288.6973, 11348.00
289.1794, 9730.500
289.6615, 8505.500
290.1436, 7719.750
290.6258, 6898.500
291.1079, 5550.000
291.5900, 3781.250
292.0721, 1971.250
292.5542, 94.50000
293.0363, 1554.250
293.5185, 2235.000
294.0006, 1960.000
294.4827, 1379.750
294.9648, 942.5000
295.4469, 628.2500
295.9290, 350.2500
296.4112, 104.7500
296.8933, 67.00000
297.3754, 119.0000
297.8575, 564.2500
298.3396, 633.0000
298.8217, 351.7500
299.3039, 1944.000
299.7860, 3304.250
300.2681, 4290.750
300.7502, 5070.000
301.2323, 5845.250
301.7144, 6564.000
302.1966, 7112.500
302.6787, 7396.500
303.1608, 7482.500
303.6429, 7400.500
304.1250, 7146.750
304.6071, 6900.000
305.0893, 6940.250
305.5714, 7109.750
306.0535, 7116.750
306.5356, 6770.750
307.0177, 6222.250
307.4998, 5582.000
307.9820, 4850.500
308.4641, 4191.000
308.9462, 3780.000
309.4283, 3519.250
309.9104, 3293.500
310.3925, 3010.250
310.8747, 2831.750
311.3568, 2870.750
311.8389, 3149.750
312.3210, 3680.500
312.8031, 4561.750
313.2852, 5674.250
313.7674, 6903.750
314.2495, 8238.000
314.7316, 9642.250
315.2137, 11263.25
315.6958, 12964.00
316.1779, 14319.25
316.6601, 14801.75
317.1422, 15057.50
317.6243, 15443.00
318.1064, 15897.50
318.5885, 16708.75
319.0706, 18380.50
319.5528, 20425.50
320.0349, 21922.50
320.5170, 22357.75
320.9991, 22365.75
321.4812, 22171.00
321.9633, 21765.00
322.4455, 21250.75
322.9276, 20612.25
323.4097, 19900.00
323.8918, 19178.25
324.3739, 18804.50
324.8560, 18096.50
325.3382, 16679.00
325.8203, 14438.00
326.3024, 12758.25
326.7845, 12121.00
327.2666, 11892.00
327.7487, 11568.50
328.2309, 11433.50
328.7130, 10895.75
329.1951, 9521.250
329.6772, 7465.250
330.1593, 6290.750
330.6414, 6543.000
331.1236, 7153.750
331.6057, 7489.000
332.0878, 7049.500
332.5699, 7194.500
333.0520, 8403.000
333.5341, 10121.00
334.0163, 10726.00
334.4984, 9550.750
334.9805, 8333.000
335.4626, 7829.750
335.9447, 8299.000
336.4268, 8544.250
336.9090, 8573.500
337.3911, 8382.750
337.8732, 7950.500
338.3553, 7245.500
338.8374, 6552.250
339.3195, 5932.250
339.8017, 5414.250
340.2838, 5213.750
340.7659, 5545.750
341.2480, 5748.750
341.7301, 4833.000
342.2122, 2681.500
342.6944, 1175.250
343.1765, 833.5000
343.6586, 1374.750
344.1407, 2046.250
344.6228, 2867.250
345.1049, 3519.250
345.5871, 3562.000
346.0692, 3111.250
346.5513, 3077.250
347.0334, 3665.250
347.5155, 4484.250
347.9977, 4915.250
348.4798, 4975.500
348.9619, 4887.750
349.4440, 4672.000
349.9261, 4396.500
350.4082, 4238.250
350.8904, 4187.500
351.3725, 4227.750
351.8546, 4349.500
352.3367, 4577.500
352.8188, 4927.250
353.3009, 5946.250
353.7831, 6792.500
354.2652, 6079.000
354.7473, 3886.000
355.2294, 1937.500
355.7115, 1884.250
356.1936, 2703.750
356.6758, 3049.250
357.1579, 2199.750
357.6400, 1172.750
358.1221, 618.7500
358.6042, 498.5000
359.0863, 618.2500
359.5685, 1182.250
360.0506, 1765.250
360.5327, 2062.250
361.0148, 1998.000
361.4969, 1748.750
361.9790, 982.2500
362.4612, 144.7500
362.9433, 30.50000
363.4254, 1183.750
363.9075, 2645.250
364.3896, 3959.500
364.8717, 5122.750
365.3539, 6105.250
365.8360, 6910.000
366.3181, 7412.750
366.8002, 7519.750
367.2823, 6388.750
367.7644, 5646.750
368.2466, 5816.000
368.7287, 6799.000
369.2108, 7373.250
369.6929, 7517.500
370.1750, 7283.250
370.6571, 6677.750
371.1393, 5309.250
371.6214, 4327.750
372.1035, 3886.750
372.5856, 3816.750
373.0677, 3670.000
373.5498, 3322.250
374.0320, 3154.500
374.5141, 3377.250
374.9962, 4062.000
375.4783, 4615.250
375.9604, 5080.000
376.4425, 5339.750
376.9247, 5151.250
377.4068, 4420.500
377.8889, 3913.250
378.3710, 3872.500
378.8531, 4147.500
379.3352, 4251.500
379.8174, 4196.000
380.2995, 4052.000
380.7816, 3737.750
381.2637, 3260.250
381.7458, 2981.500
382.2279, 3017.250
382.7101, 3211.000
383.1922, 3315.250
383.6743, 3384.750
384.1564, 3591.750
384.6385, 3977.500
385.1206, 4450.500
385.6028, 4904.250
386.0849, 5350.750
386.5670, 5768.750
387.0491, 6129.000
387.5312, 6435.250
388.0133, 6722.500
388.4955, 6852.250
388.9776, 7094.000
389.4597, 7921.750
389.9418, 9195.000
390.4239, 10075.25
390.9060, 9681.500
391.3882, 8863.500
391.8703, 8386.000
392.3524, 8504.500
392.8345, 8765.750
393.3166, 8816.250
393.7987, 8865.750
394.2809, 9316.750
394.7630, 10963.00
395.2451, 12466.00
395.7272, 13132.00
396.2093, 12718.25
396.6914, 12505.50
397.1736, 13025.75
397.6557, 13695.50
398.1378, 13988.75
398.6199, 13270.25
399.1020, 12776.00
399.5841, 12804.75
400.0663, 13227.50
400.5484, 13284.00
401.0305, 12913.50
401.5126, 12283.50
401.9947, 11489.00
402.4768, 10617.00
402.9590, 9427.000
403.4411, 7820.750
403.9232, 6033.500
404.4053, 4432.500
404.8874, 3029.750
405.3695, 1915.250
405.8517, 1129.000
406.3338, 686.5000
406.8159, 673.2500
407.2980, 1199.000
407.7801, 1837.500
408.2622, 2074.750
408.7444, 1937.500
409.2265, 2001.250
409.7086, 2340.750
410.1907, 2907.000
410.6728, 3727.000
411.1549, 4753.250
411.6371, 5601.500
412.1192, 5808.000
412.6013, 5632.750
413.0834, 5710.750
413.5655, 6113.250
414.0476, 6507.500
414.5298, 6710.750
415.0119, 6649.750
415.4940, 6241.250
415.9761, 5088.250
416.4582, 3862.750
416.9403, 3188.250
417.4225, 3012.500
417.9046, 2925.000
418.3867, 2786.750
418.8688, 2597.000
419.3509, 2352.000
419.8330, 2148.250
420.3152, 1774.250
420.7973, 1168.000
421.2794, 389.7500
421.7615, 466.7500
422.2436, 1685.500
422.7257, 2652.500
423.2079, 3158.750
423.6900, 3184.500
424.1721, 2823.000
424.6542, 1756.500
425.1363, 518.2500
425.6184, 529.7500
426.1006, 1096.750
426.5827, 1832.000
427.0648, 2880.000
427.5469, 4075.750
428.0290, 4810.250
428.5111, 4893.750
428.9933, 4721.500
429.4754, 4319.000
429.9575, 3574.250
430.4396, 3371.250
430.9217, 3838.500
431.4038, 4499.500
431.8860, 4756.750
432.3681, 4608.750
432.8502, 4331.000
433.3323, 4088.750
433.8144, 3756.250
434.2965, 2806.500
434.7787, 1281.000
435.2608, 113.7500
435.7429, 665.7500
436.2250, 655.0000
436.7071, 896.0000
437.1892, 1541.750
437.6714, 2051.250
438.1535, 1832.750
438.6356, 1043.000
439.1177, 51.50000
439.5998, 1629.750
440.0819, 2955.250
440.5641, 2517.000
441.0462, 486.5000
441.5283, 1027.250
442.0104, 587.0000
442.4925, 652.5000
442.9746, 1686.000
443.4568, 2110.750
443.9389, 2627.750
444.4210, 3525.000
444.9031, 4630.000
445.3852, 5638.500
445.8673, 6617.500
446.3495, 7345.500
446.8316, 7724.500
447.3137, 7720.000
447.7958, 7837.000
448.2779, 8224.500
448.7600, 8632.000
449.2422, 8849.500
449.7243, 8731.250
450.2064, 8853.250
450.6885, 9416.000
451.1706, 10223.00
451.6527, 10625.75
452.1349, 10498.00
452.6170, 10444.75
453.0991, 10622.75
453.5812, 11044.50
454.0633, 11920.75
454.5454, 13359.25
455.0276, 14769.25
455.5097, 15282.25
455.9918, 15083.25
456.4739, 15232.25
456.9560, 16231.50
457.4381, 17366.75
457.9203, 17340.00
458.4024, 16368.75
458.8845, 15541.50
459.3666, 15710.00
459.8488, 16294.75
460.3309, 16621.25
460.8130, 16632.00
461.2951, 16372.50
461.7772, 15723.75
462.2593, 14853.00
462.7415, 13909.50
463.2236, 12837.50
463.7057, 11841.00
464.1878, 11090.75
464.6699, 10518.25
465.1520, 9881.000
465.6342, 8794.000
466.1163, 7862.750
466.5984, 7399.250
467.0805, 7606.750
467.5626, 7761.500
468.0447, 7789.250
468.5269, 7824.750
469.0090, 8026.250
469.4911, 8429.750
469.9732, 8871.500
470.4553, 9272.750
470.9374, 9651.250
471.4196, 10399.00
471.9017, 11650.50
472.3838, 12714.50
472.8659, 13045.50
473.3480, 12628.75
473.8301, 12535.00
474.3123, 12818.00
474.7944, 13198.50
475.2765, 13449.50
475.7586, 13532.00
476.2407, 13271.00
476.7228, 12504.75
477.2050, 11519.00
477.6871, 10750.50
478.1692, 10181.75
478.6513, 9624.000
479.1334, 8988.250
479.6155, 8323.750
480.0977, 7680.500
480.5798, 7099.000
481.0619, 6552.500
481.5440, 5881.250
482.0261, 5342.000
482.5082, 5266.750
482.9904, 6047.500
483.4725, 6931.000
483.9546, 7652.500
484.4367, 8262.500
484.9188, 8979.500
485.4009, 9706.750
485.8831, 10664.25
486.3652, 12001.25
486.8473, 13779.75
487.3294, 15214.75
487.8115, 16188.25
488.2936, 16891.25
488.7758, 17532.50
489.2579, 18078.50
489.7400, 18484.00
490.2221, 18671.00
490.7042, 18720.25
491.1863, 18976.75
491.6685, 19545.50
492.1506, 19815.00
492.6327, 19301.00
493.1148, 18154.75
493.5969, 16905.25
494.0790, 15609.75
494.5612, 14539.75
495.0433, 14274.00
495.5254, 14528.00
496.0075, 14633.25
496.4896, 14246.50
496.9717, 13892.25
497.4539, 13925.75
497.9360, 14331.50
498.4181, 14957.25
498.9002, 15834.50
499.3823, 16783.50
499.8644, 17825.25
500.3466, 18994.00
500.8287, 20055.25
501.3108, 20663.50
501.7929, 21159.25
502.2750, 21803.75
502.7571, 22896.25
503.2393, 23767.00
503.7214, 24301.25
504.2035, 24626.00
504.6856, 25009.00
505.1677, 25446.25
505.6498, 25700.50
506.1320, 25699.75
506.6141, 25516.00
507.0962, 25548.50
507.5783, 25906.50
508.0604, 26257.50
508.5425, 26399.25
509.0247, 26350.75
509.5068, 26010.25
509.9889, 25344.00
510.4710, 24661.75
510.9531, 24243.00
511.4352, 24099.00
511.9174, 24330.75
512.3995, 25422.25
512.8816, 26657.50
513.3637, 27094.50
513.8458, 26796.25
514.3279, 26460.75
514.8101, 26434.25
515.2922, 26552.00
515.7743, 26644.00
516.2564, 26622.25
516.7385, 26609.25
517.2206, 26848.00
517.7028, 27008.75
518.1849, 26687.75
518.6670, 25178.50
519.1491, 23973.50
519.6312, 23553.00
520.1133, 23686.50
520.5955, 23346.00
521.0776, 22493.25
521.5597, 21329.50
522.0418, 19817.00
522.5239, 17927.75
523.0060, 16750.50
523.4882, 16408.50
523.9703, 16604.25
524.4524, 17371.00
524.9345, 18626.00
525.4166, 19075.75
525.8987, 18282.25
526.3809, 16969.50
526.8630, 15983.00
527.3451, 15391.75
527.8272, 15500.75
528.3093, 16830.50
528.7914, 18669.00
529.2736, 20350.00
529.7557, 21844.00
530.2378, 23015.25
530.7199, 23749.00
531.2020, 24133.00
531.6841, 24192.75
532.1663, 23914.25
532.6484, 23434.00
533.1305, 22920.25
533.6126, 22245.25
534.0947, 21267.25
534.5768, 19742.00
535.0590, 18269.50
535.5411, 16966.50
536.0232, 15865.25
536.5053, 14920.25
536.9874, 14250.75
537.4695, 13573.50
537.9517, 12718.50
538.4338, 11713.00
538.9159, 10694.00
539.3980, 9615.250
539.8801, 8647.250
540.3622, 7910.000
540.8444, 7390.750
541.3265, 7188.000
541.8086, 7438.250
542.2907, 7740.500
542.7728, 7383.500
543.2549, 6631.750
543.7371, 6219.250
544.2192, 7082.250
544.7013, 7991.750
545.1834, 7881.750
545.6655, 6820.000
546.1476, 5874.000
546.6298, 5622.250
547.1119, 5606.250
547.5940, 5595.000
548.0761, 5812.750
548.5582, 5565.500
549.0403, 4331.000
549.5225, 2890.500
550.0046, 2144.000
550.4867, 2288.750
550.9688, 2752.500
551.4509, 3647.250
551.9330, 4714.000
552.4152, 4773.750
552.8973, 3611.750
553.3794, 2629.750
553.8615, 2589.500
554.3436, 3313.250
554.8257, 4117.750
555.3079, 4973.000
555.7900, 5617.000
556.2721, 5818.750
556.7542, 5612.250
557.2363, 4948.500
557.7184, 3674.500
558.2006, 2428.500
558.6827, 1840.500
559.1648, 1618.000
559.6469, 1302.750
560.1290, 904.0000
560.6111, 226.2500
561.0933, 1121.500
561.5754, 2958.750
562.0575, 4176.750
562.5396, 4084.750
563.0217, 3839.750
563.5038, 3890.000
563.9860, 4324.000
564.4681, 4631.250
564.9502, 4845.500
565.4323, 4903.000
565.9144, 4693.000
566.3965, 4161.250
566.8787, 3885.500
567.3608, 4059.750
567.8429, 4314.500
568.3250, 3993.000
568.8071, 3184.250
569.2892, 2521.750
569.7714, 2556.750
570.2535, 2727.500
570.7356, 2241.750
571.2177, 1172.750
571.6998, 192.0000
572.1819, 215.2500
572.6641, 492.2500
573.1462, 970.5000
573.6283, 1729.250
574.1104, 2462.500
574.5925, 3358.750
575.0746, 4018.500
575.5568, 4126.250
576.0389, 2444.500
576.5210, 1845.750
577.0031, 3065.250
577.4852, 5194.250
577.9673, 6401.500
578.4495, 6637.500
578.9316, 6265.500
579.4137, 5114.000
579.8958, 3525.250
580.3779, 3244.750
580.8600, 4351.000
581.3422, 5425.750
581.8243, 5050.750
582.3064, 4031.750
582.7885, 4089.750
583.2706, 5364.750
583.7527, 7415.000
584.2349, 11301.00
584.7170, 15214.25
585.1991, 16651.50
585.6812, 13250.75
586.1633, 10269.50
586.6454, 10139.75
587.1276, 11858.75
587.6097, 13593.25
588.0918, 15529.25
588.5739, 16833.25
589.0560, 17068.75
589.5381, 16415.50
590.0203, 16234.50
590.5024, 16739.00
590.9845, 17371.25
591.4666, 17909.00
591.9487, 18401.50
592.4308, 18867.50
592.9130, 19375.25
593.3951, 19741.00
593.8772, 19508.50
594.3593, 18965.25
594.8414, 18947.75
595.3235, 19561.25
595.8057, 20851.75
596.2878, 23392.50
596.7699, 26563.25
597.2520, 29131.00
597.7341, 29929.25
598.2162, 30661.25
598.6984, 32282.00
599.1805, 34488.50
599.6626, 36418.25
600.1447, 37444.25
600.6268, 38490.00
601.1089, 39919.50
601.5911, 41813.50
602.0732, 43327.50
602.5553, 44269.00
603.0374, 45074.00
603.5195, 45879.75
604.0016, 46630.00
604.4838, 48340.25
604.9659, 51341.00
605.4480, 54350.00
605.9301, 55198.00
606.4122, 54483.25
606.8943, 54806.75
607.3765, 57392.50
607.8586, 60406.75
608.3407, 61557.25
608.8228, 61508.50
609.3049, 61769.00
609.7870, 63330.75
610.2692, 65099.75
610.7513, 66495.50
611.2334, 67510.00
611.7155, 68491.25
612.1976, 69573.75
612.6797, 70663.50
613.1619, 71679.75
613.6440, 72576.25
614.1261, 73792.75
614.6082, 75584.50
615.0903, 77376.25
615.5724, 78554.25
616.0546, 79077.75
616.5367, 80052.50
617.0188, 81695.50
617.5009, 83593.25
617.9830, 85166.25
618.4651, 86472.50
618.9473, 87719.25
619.4294, 89062.75
619.9115, 90230.00
620.3936, 90884.00
620.8757, 91179.00
621.3578, 91587.00
621.8400, 92125.25
622.3221, 93003.25
622.8042, 94638.50
623.2863, 97082.00
623.7684, 98678.75
624.2505, 98558.00
624.7327, 98292.75
625.2148, 98599.00
625.6969, 99586.00
626.1790, 100842.0
626.6611, 102471.8
627.1432, 104209.2
627.6254, 105776.2
628.1075, 107162.5
628.5896, 108328.2
629.0717, 109149.8
629.5538, 110025.5
630.0359, 111584.5
630.5181, 113551.2
631.0002, 115384.8
631.4823, 116928.8
631.9644, 118149.0
632.4465, 118916.5
632.9286, 119302.0
633.4108, 119565.8
633.8929, 119723.0
634.3750, 119827.0
634.8571, 119992.8
635.3392, 120237.8
635.8214, 120171.5
636.3035, 119716.0
636.7856, 119163.5
637.2677, 118718.0
637.7498, 118441.8
638.2319, 118066.8
638.7141, 117580.2
639.1962, 117214.8
639.6783, 117250.8
640.1604, 117645.5
640.6425, 118186.5
641.1246, 118888.0
641.6068, 119642.2
642.0889, 120231.0
642.5710, 120815.5
643.0531, 121625.2
643.5352, 123318.5
644.0173, 124635.0
644.4995, 124565.8
644.9816, 123644.2
645.4637, 123482.8
645.9458, 125268.2
646.4279, 126708.8
646.9100, 127054.8
647.3922, 126417.0
647.8743, 126267.5
648.3564, 126662.8
648.8385, 127337.5
649.3206, 128317.2
649.8027, 129529.2
650.2849, 130120.2
650.7670, 130057.0
651.2491, 129850.0
651.7312, 130209.8
652.2133, 130634.2
652.6954, 130257.5
653.1776, 128801.8
653.6597, 127106.0
654.1418, 125383.2
654.6239, 123812.0
655.1060, 122609.8
655.5881, 122248.2
656.0703, 121753.5
656.5524, 121020.8
657.0345, 120045.2
657.5166, 118840.0
657.9987, 117451.0
658.4808, 115684.2
658.9630, 113298.2
659.4451, 110550.5
659.9272, 108271.2
660.4093, 106469.0
660.8914, 105004.5
661.3735, 104264.5
661.8557, 103664.2
662.3378, 101914.2
662.8199, 99144.00
663.3020, 96432.50
663.7841, 94499.50
664.2662, 92938.00
664.7484, 91327.50
665.2305, 89555.50
665.7126, 88381.75
666.1947, 88318.50
666.6768, 88705.50
667.1589, 89158.50
667.6411, 90417.25
668.1232, 89840.00
668.6053, 86563.00
669.0874, 82504.25
669.5695, 80107.00
670.0516, 79308.75
670.5338, 78890.25
671.0159, 78796.25
671.4980, 78476.25
671.9801, 76858.50
672.4622, 74337.00
672.9443, 72048.50
673.4265, 70766.50
673.9086, 69614.25
674.3907, 68036.25
674.8728, 66127.75
675.3549, 64170.25
675.8370, 62168.50
676.3192, 60250.50
676.8013, 58445.25
677.2834, 56779.50
677.7655, 55562.50
678.2476, 54994.00
678.7297, 54535.75
679.2119, 54110.50
679.6940, 53669.25
680.1761, 52166.00
680.6582, 49496.25
681.1403, 46803.50
681.6224, 45023.75
682.1046, 43872.75
682.5867, 42918.00
683.0688, 42084.00
683.5509, 41353.25
684.0330, 40734.75
684.5151, 40164.50
684.9973, 39566.00
685.4794, 38887.50
685.9615, 38217.50
686.4436, 37652.25
686.9257, 37065.25
687.4078, 36310.25
687.8900, 35386.75
688.3721, 34306.00
688.8542, 33038.00
689.3363, 31726.25
689.8184, 30931.25
690.3005, 30588.50
690.7827, 29562.50
691.2648, 26955.50
691.7469, 23917.25
692.2290, 22020.50
692.7111, 21075.50
693.1932, 20631.50
693.6754, 20557.75
694.1575, 20778.00
694.6396, 21462.75
695.1217, 22518.25
695.6038, 23046.50
696.0859, 22699.50
696.5681, 21959.75
697.0502, 20927.25
697.5323, 19591.00
698.0144, 18364.75
698.4965, 17344.00
698.9786, 16167.25
699.4608, 14478.50
699.9429, 12400.00
700.4250, 10453.00
700.9071, 8667.500
701.3892, 7138.750
701.8713, 6139.500
702.3535, 5382.000
702.8356, 4422.000
703.3177, 2972.750
703.7998, 1958.000
704.2819, 2077.000
704.7640, 2606.500
705.2462, 2745.750
705.7283, 2074.500
706.2104, 1634.500
706.6925, 1585.250
707.1746, 1638.250
707.6567, 1241.000
708.1389, 352.0000
708.6210, 255.5000
709.1031, 294.5000
709.5852, 188.0000
710.0673, 730.2500
710.5494, 1703.250
711.0316, 2545.000
711.5137, 2840.750
711.9958, 2996.250
712.4779, 3439.000
712.9600, 3982.250
713.4421, 4052.750
713.9243, 2794.250
714.4064, 1811.000
714.8885, 1751.000
715.3706, 2466.750
715.8527, 2627.250
716.3348, 2038.750
716.8170, 1488.000
717.2991, 1345.000
717.7812, 1572.750
718.2633, 1935.000
718.7454, 2463.500
719.2275, 2838.250
719.7097, 2901.750
720.1918, 2697.250
720.6739, 2203.750
721.1560, 1392.750
721.6381, 730.2500
722.1202, 538.7500
722.6024, 452.7500
723.0845, 242.0000
723.5666, 95.25000
724.0487, 704.2500
724.5308, 1707.750
725.0129, 2825.000
725.4951, 3935.000
725.9772, 5064.500
726.4593, 5509.000
726.9414, 5095.500
727.4235, 4506.750
727.9056, 4456.250
728.3878, 4806.500
728.8699, 5288.250
729.3520, 5769.000
729.8341, 6436.500
730.3162, 7738.000
730.7983, 9171.750
731.2805, 10112.50
731.7626, 9732.750
732.2447, 9763.250
732.7268, 10661.00
733.2089, 11933.75
733.6910, 12687.50
734.1732, 12744.00
734.6553, 13248.75
735.1374, 14584.00
735.6195, 16352.25
736.1016, 17770.75
736.5837, 18923.25
737.0659, 20230.00
737.5480, 22379.75
738.0301, 24152.25
738.5122, 23807.00
738.9943, 22168.00
739.4764, 21409.25
739.9586, 23474.00
740.4407, 25236.00
740.9228, 25253.25
741.4049, 24006.00
741.8870, 23630.50
742.3691, 24498.25
742.8513, 25453.25
743.3334, 26188.50
743.8155, 26694.25
744.2976, 26799.75
744.7797, 26538.50
745.2618, 26311.00
745.7440, 26488.00
746.2261, 26755.00
746.7082, 26488.50
747.1903, 25800.25
747.6724, 25529.25
748.1545, 25913.75
748.6367, 26916.25
749.1188, 29072.50
749.6009, 32658.50
750.0830, 33745.00
750.5651, 31186.25
751.0472, 28105.75
751.5294, 26220.75
752.0115, 25465.25
752.4936, 25662.50
752.9757, 26862.50
753.4578, 27893.75
753.9399, 27553.25
754.4221, 26563.25
754.9042, 26223.75
755.3863, 26737.25
755.8684, 26924.50
756.3505, 25662.00
756.8326, 24166.75
757.3148, 23400.75
757.7969, 23777.25
758.2790, 24098.00
758.7611, 24204.00
759.2432, 24419.75
759.7253, 25078.25
760.2075, 26154.50
760.6896, 27153.00
761.1717, 28000.25
761.6538, 28590.00
762.1359, 28528.00
762.6180, 28117.25
763.1002, 28033.75
763.5823, 28514.25
764.0644, 28973.00
764.5465, 29103.75
765.0286, 29039.25
765.5107, 28954.75
765.9929, 28903.75
766.4750, 28838.75
766.9571, 28788.25
767.4392, 28718.00
767.9213, 28378.00
768.4034, 27736.00
768.8856, 27832.00
769.3677, 28953.75
769.8498, 30564.50
770.3319, 32252.00
770.8140, 33812.75
771.2961, 34807.25
771.7783, 34823.50
772.2604, 34719.25
772.7425, 34861.50
773.2246, 35143.00
773.7067, 35383.50
774.1888, 35636.00
774.6710, 35782.00
775.1531, 35766.50
775.6352, 35703.25
776.1173, 35697.50
776.5994, 35773.75
777.0815, 36252.00
777.5637, 37366.50
778.0458, 38569.75
778.5279, 38904.50
779.0100, 38728.50
779.4921, 38804.50
779.9742, 39780.50
780.4564, 40687.25
780.9385, 41089.50
781.4206, 41091.00
781.9027, 40853.75
782.3848, 39994.75
782.8669, 39728.50
783.3491, 40729.75
783.8312, 42155.00
784.3133, 41592.25
784.7954, 39142.25
785.2775, 37391.00
785.7596, 37470.50
786.2418, 38463.50
786.7239, 39209.50
787.2060, 39897.75
787.6881, 40899.00
788.1702, 42521.50
788.6523, 44436.25
789.1345, 46463.75
789.6166, 48660.25
790.0987, 51148.00
790.5808, 54069.25
791.0629, 56921.75
791.5450, 59571.00
792.0272, 62069.00
792.5093, 64597.75
792.9914, 67157.50
793.4735, 70099.50
793.9556, 73707.25
794.4377, 77635.75
794.9199, 81381.50
795.4020, 85105.75
795.8841, 89249.75
796.3662, 93898.25
796.8483, 99059.25
797.3304, 104856.2
797.8126, 111199.5
798.2947, 117804.0
798.7768, 124674.0
799.2589, 131758.5
799.7410, 138993.8
800.2231, 146436.8
800.7053, 154096.0
801.1874, 162034.5
801.6695, 170668.0
802.1516, 180215.2
802.6337, 190506.2
803.1158, 201718.0
803.5980, 213515.8
804.0801, 225255.5
804.5622, 235835.8
805.0443, 247365.8
805.5264, 261026.0
806.0085, 275872.5
806.4907, 289058.0
806.9728, 300523.5
807.4549, 310696.5
807.9370, 319716.0
808.4191, 327589.0
808.9012, 334778.5
809.3834, 340936.2
809.8655, 344836.8
810.3476, 345521.2
810.8297, 344126.2
811.3118, 341190.8
811.7939, 336789.5
812.2761, 331061.8
812.7582, 322865.2
813.2403, 315000.5
813.7224, 308064.5
814.2045, 301825.8
814.6866, 295401.5
815.1688, 288954.2
815.6509, 283108.0
816.1330, 278495.0
816.6151, 274142.8
817.0972, 268659.2
817.5793, 262290.2
818.0615, 255404.5
818.5436, 249695.2
819.0257, 241933.0
819.5078, 230298.0
819.9899, 215673.8
820.4720, 200810.8
820.9542, 185701.8
821.4363, 170656.0
821.9184, 155477.5
822.4005, 140675.0
822.8826, 127213.0
823.3647, 114908.2
823.8469, 103655.5
824.3290, 93449.25
824.8111, 84018.75
825.2932, 74648.50
825.7753, 65702.75
826.2574, 58277.25
826.7396, 53449.75
827.2217, 48979.75
827.7038, 44344.50
828.1859, 39823.00
828.6681, 35657.50
829.1502, 31886.75
829.6323, 28733.50
830.1144, 26449.00
830.5966, 24514.00
831.0787, 21514.25
831.5608, 18088.50
832.0429, 15693.50
832.5250, 15610.75
833.0071, 15531.25
833.4893, 14040.75
833.9714, 11867.75
834.4535, 10028.00
834.9356, 8700.500
835.4177, 7397.500
835.8998, 5906.500
836.3820, 4755.250
836.8641, 5030.000
837.3462, 6524.750
837.8283, 7195.000
838.3104, 6490.500
838.7925, 5465.750
839.2747, 5185.500
839.7568, 5191.500
840.2389, 4807.500
840.7210, 3625.750
841.2031, 2447.750
841.6852, 1520.250
842.1674, 675.2500
842.6495, 246.0000
843.1316, 1285.000
843.6137, 1914.250
844.0958, 2034.250
844.5779, 2050.750
845.0601, 2551.000
845.5422, 3272.500
846.0243, 3813.250
846.5064, 4135.000
846.9885, 4144.000
847.4706, 3716.750
847.9528, 3079.500
848.4349, 2450.250
848.9170, 1957.250
849.3991, 1323.750
849.8812, 476.0000
850.3633, 222.7500
850.8455, 428.5000
851.3276, 166.2500
851.8097, 241.0000
852.2918, 819.5000
852.7739, 1323.250
853.2560, 1541.000
853.7382, 1592.250
854.2203, 1546.750
854.7024, 1351.250
855.1845, 1464.750
855.6666, 2325.000
856.1487, 3044.250
856.6309, 3209.000
857.1130, 2745.750
857.5951, 2156.750
858.0772, 1460.500
858.5593, 742.0000
859.0414, 179.5000
859.5236, 365.0000
860.0057, 1115.500
860.4878, 2045.000
860.9699, 3078.750
861.4520, 4508.500
861.9341, 5703.500
862.4163, 6052.000
862.8984, 5734.000
863.3805, 6294.000
863.8626, 8046.750
864.3447, 9428.250
864.8268, 9618.750
865.3090, 9153.750
865.7911, 9293.750
866.2732, 9969.250
866.7553, 11081.50
867.2374, 12931.00
867.7195, 14759.25
868.2017, 16312.25
868.6838, 17443.25
869.1659, 17826.25
869.6480, 16949.50
870.1301, 16308.50
870.6122, 16323.75
871.0944, 16606.75
871.5765, 16283.50
872.0586, 15452.50
872.5407, 14748.75
873.0228, 14507.50
873.5049, 14293.75
873.9871, 13500.50
874.4692, 12525.00
874.9513, 11934.75
875.4334, 12027.25
875.9155, 12438.50
876.3976, 13256.00
876.8798, 14234.25
877.3619, 14878.00
877.8440, 15124.75
878.3261, 16334.75
878.8082, 18806.50
879.2903, 21301.75
879.7725, 22105.00
880.2546, 22155.25
880.7367, 22867.50
881.2188, 24591.25
881.7009, 26326.25
882.1830, 27942.25
882.6652, 29192.50
883.1473, 29912.50
883.6294, 30007.25
884.1115, 30154.75
884.5936, 30374.50
885.0757, 30647.00
885.5579, 30985.75
886.0400, 31356.00
886.5221, 31816.75
887.0042, 32377.00
887.4863, 32472.25
887.9684, 31125.75
888.4506, 29897.50
888.9327, 29757.50
889.4148, 30648.00
889.8969, 31394.25
890.3790, 31957.75
890.8611, 32482.75
891.3433, 32824.75
891.8254, 33232.75
892.3075, 34517.25
892.7896, 36443.00
893.2717, 38129.00
893.7538, 38848.00
894.2360, 39368.50
894.7181, 40024.50
895.2002, 40854.00
895.6823, 42055.75
896.1644, 44065.50
896.6465, 45485.88
897.1287, 45931.75
897.6108, 45964.75
898.0929, 46943.38
898.5750, 48524.38
899.0571, 49022.88
899.5392, 47674.25
900.0214, 46140.25
900.5035, 45846.00
900.9856, 46032.75
901.4677, 45766.38
901.9498, 44591.88
902.4319, 43677.75
902.9141, 43185.88
903.3962, 42608.62
903.8783, 41338.75
904.3604, 39479.62
904.8425, 37784.12
905.3246, 36260.62
905.8068, 35164.00
906.2889, 34999.00
906.7710, 35058.12
907.2531, 34709.62
907.7352, 33901.25
908.2173, 32790.38
908.6995, 30988.75
909.1816, 29370.62
909.6637, 28500.62
910.1458, 28212.62
910.6279, 27485.12
911.1100, 26355.75
911.5922, 25241.75
912.0743, 24273.38
912.5564, 23500.75
913.0385, 23066.12
913.5206, 22821.38
914.0027, 22351.50
914.4849, 21253.38
914.9670, 20444.62
915.4491, 20282.25
915.9312, 20387.88
916.4133, 19776.88
916.8954, 18447.75
917.3776, 17738.75
917.8597, 18125.00
918.3418, 18682.75
918.8239, 18261.12
919.3060, 17403.75
919.7881, 16829.50
920.2703, 16593.12
920.7524, 16794.25
921.2345, 17857.25
921.7166, 18975.88
922.1987, 19375.12
922.6808, 18984.38
923.1630, 18844.88
923.6451, 19019.25
924.1272, 19157.88
924.6093, 18699.88
925.0914, 18207.25
925.5735, 18504.25
926.0557, 19628.25
926.5378, 20269.88
927.0199, 19556.88
927.5020, 18806.88
927.9841, 18462.50
928.4662, 18476.00
928.9484, 18481.12
929.4305, 18462.00
929.9126, 18249.38
930.3947, 17690.00
930.8768, 17047.00
931.3589, 16841.25
931.8411, 16790.88
932.3232, 16344.88
932.8053, 14998.62
933.2874, 13743.25
933.7695, 12709.38
934.2516, 11933.00
934.7338, 11606.38
935.2159, 11706.62
935.6980, 11652.38
936.1801, 11331.12
936.6622, 11049.62
937.1443, 11165.75
937.6265, 11415.88
938.1086, 11485.88
938.5907, 11181.25
939.0728, 11161.00
939.5549, 11671.50
940.0370, 12285.88
940.5192, 12828.50
941.0013, 13277.50
941.4834, 13452.12
941.9655, 13339.50
942.4476, 13326.88
942.9297, 13954.38
943.4119, 14568.00
943.8940, 14538.50
944.3761, 13938.00
944.8582, 13133.88
945.3403, 11949.12
945.8224, 10931.12
946.3046, 10253.75
946.7867, 9815.500
947.2688, 9453.375
947.7509, 9151.250
948.2330, 8769.000
948.7151, 8245.250
949.1973, 7758.500
949.6794, 7542.250
950.1615, 7450.500
950.6436, 7289.000
951.1257, 7035.125
951.6078, 6751.500
952.0900, 6344.500
952.5721, 6084.875
953.0542, 6226.250
953.5363, 6723.250
954.0184, 7389.500
954.5005, 8207.875
954.9827, 8838.875
955.4648, 8835.625
955.9469, 8720.625
956.4290, 8762.750
956.9111, 8979.875
957.3932, 9596.000
957.8754, 10904.00
958.3575, 11774.38
958.8396, 11662.38
959.3217, 11076.62
959.8038, 11403.62
960.2859, 12376.00
960.7681, 13135.62
961.2502, 13375.12
961.7323, 13281.00
962.2144, 12881.38
962.6965, 12263.38
963.1786, 11542.88
963.6608, 10828.38
964.1429, 9801.875
964.6250, 8333.375
965.1071, 7171.125
965.5892, 7605.625
966.0714, 8826.125
966.5535, 8783.875
967.0356, 7358.500
967.5177, 5912.500
967.9998, 5053.000
968.4819, 4484.125
968.9641, 3980.875
969.4462, 3768.625
969.9283, 3541.750
970.4104, 3904.375
970.8925, 4416.500
971.3746, 5024.625
971.8568, 5600.250
972.3389, 5866.875
972.8210, 5922.000
973.3031, 5982.375
973.7852, 5852.375
974.2673, 6075.875
974.7495, 7012.375
975.2316, 8074.375
975.7137, 8608.625
976.1958, 8587.500
976.6779, 8868.125
977.1600, 9565.250
977.6422, 9994.500
978.1243, 9312.125
978.6064, 8203.125
979.0885, 7335.375
979.5706, 6798.375
980.0527, 6408.875
980.5349, 6120.250
981.0170, 5981.125
981.4991, 6069.000
981.9812, 6267.875
982.4633, 6020.875
982.9454, 5430.750
983.4276, 5230.000
983.9097, 5967.125
984.3918, 6783.500
984.8739, 7065.375
985.3560, 6987.875
985.8381, 6796.250
986.3203, 6343.000
986.8024, 6255.250
987.2845, 6720.250
987.7666, 7219.500
988.2487, 7200.125
988.7308, 6804.750
989.2130, 6308.625
989.6951, 5762.625
990.1772, 5202.250
990.6593, 4387.625
991.1414, 3790.875
991.6235, 3842.125
992.1057, 4366.750
992.5878, 4281.625
993.0699, 3462.750
993.5520, 2786.000
994.0341, 2591.500
994.5162, 2560.500
994.9984, 2248.375
995.4805, 1770.750
995.9626, 1338.375
996.4447, 1019.375
996.9268, 749.6250
997.4089, 627.6250
997.8911, 541.5000
998.3732, 460.8750
998.8553, 409.6250
999.3374, 98.50000
999.8195, 1065.375
1000.302, 1836.875
1000.784, 1870.875
1001.266, 1562.125
1001.748, 1226.125
1002.230, 904.0000
1002.712, 591.2500
1003.194, 349.0000
1003.676, 93.25000
1004.159, 140.8750
1004.641, 412.0000
1005.123, 972.2500
1005.605, 1658.500
1006.087, 1923.000
1006.569, 1414.875
1007.051, 964.6250
1007.533, 1134.625
1008.016, 1453.750
1008.498, 1452.250
1008.980, 1073.250
1009.462, 892.1250
1009.944, 927.5000
1010.426, 983.0000
1010.908, 748.0000
1011.390, 568.2500
1011.872, 1042.125
1012.355, 2008.250
1012.837, 2737.125
1013.319, 2712.250
1013.801, 2690.625
1014.283, 2797.500
1014.765, 2980.875
1015.247, 3201.125
1015.729, 3422.500
1016.211, 3423.000
1016.694, 3133.125
1017.176, 2770.000
1017.658, 2608.125
1018.140, 2439.125
1018.622, 2003.125
1019.104, 1238.625
1019.586, 709.5000
1020.068, 495.0000
1020.551, 345.1250
1021.033, 144.0000
1021.515, 89.50000
1021.997, 293.2500
1022.479, 487.3750
1022.961, 713.8750
1023.443, 1399.875
1023.925, 1580.000
1024.407, 632.3750
1024.890, 677.2500
1025.372, 1395.750
1025.854, 1512.750
1026.336, 1617.000
1026.818, 1751.875
1027.300, 1829.125
1027.782, 1619.625
1028.264, 1402.000
1028.746, 1523.375
1029.229, 2017.250
1029.711, 2173.750
1030.193, 1787.375
1030.675, 1377.250
1031.157, 1002.375
1031.639, 839.2500
1032.121, 1656.750
1032.603, 3018.125
1033.086, 3522.875
1033.568, 2284.875
1034.050, 1070.875
1034.532, 839.7500
1035.014, 931.0000
1035.496, 765.1250
1035.978, 327.2500
1036.460, 179.1250
1036.943, 734.6250
1037.425, 1090.375
1037.907, 903.5000
1038.389, 513.5000
1038.871, 307.6250
1039.353, 233.6250
1039.835, 17.12500
1040.317, 563.1250
1040.799, 1146.000
1041.281, 1733.375
1041.764, 2289.000
1042.246, 2667.500
1042.728, 2953.750
1043.210, 3647.375
1043.692, 4938.625
1044.174, 5650.000
1044.656, 4449.875
1045.138, 3049.250
1045.621, 2611.250
1046.103, 3073.375
1046.585, 3457.000
1047.067, 3774.500
1047.549, 3909.750
1048.031, 3735.125
1048.513, 3494.000
1048.995, 3498.875
1049.478, 3633.875
1049.960, 3703.500
1050.442, 3634.875
1050.924, 3568.375
1051.406, 3526.375
1051.888, 3416.250
1052.370, 3034.125
1052.852, 2520.750
1053.334, 2425.375
1053.817, 2719.500
1054.299, 2885.750
1054.781, 2493.375
1055.263, 2067.000
1055.745, 1785.375
1056.227, 1637.625
1056.709, 1645.750
1057.191, 1811.625
1057.673, 1862.625
1058.156, 1679.500
1058.638, 1603.500
1059.120, 2071.500
1059.602, 2756.375
1060.084, 3319.000
1060.566, 3695.625
1061.048, 3989.500
1061.530, 4298.125
1062.013, 4293.250
1062.495, 3659.375
1062.977, 2728.875
1063.459, 2291.250
1063.941, 2258.875
1064.423, 2300.875
1064.905, 2376.875
1065.387, 2295.500
1065.870, 1733.875
1066.352, 1177.875
1066.834, 1124.125
1067.316, 1598.750
1067.798, 1991.750
1068.280, 2275.000
1068.762, 2406.875
1069.244, 2272.125
1069.726, 2042.375
1070.208, 1847.500
1070.691, 1693.750
1071.173, 1622.875
1071.655, 1617.375
1072.137, 1711.750
1072.619, 1884.000
1073.101, 2161.000
1073.583, 2712.750
1074.065, 3341.250
1074.548, 3692.625
1075.030, 3678.625
1075.512, 3514.500
1075.994, 3152.375
1076.476, 2809.125
1076.958, 2639.250
1077.440, 2586.875
1077.922, 2353.375
1078.405, 1961.875
1078.887, 1611.750
1079.369, 1356.375
1079.851, 1213.250
1080.333, 1323.875
1080.815, 1477.250
1081.297, 1445.875
1081.779, 1185.250
1082.261, 1090.125
1082.744, 1149.875
1083.226, 1263.875
1083.708, 1298.500
1084.190, 1377.500
1084.672, 1693.000
1085.154, 2165.750
1085.636, 2530.625
1086.118, 2706.875
1086.601, 2853.500
1087.083, 2999.500
1087.565, 3104.250
1088.047, 3023.875
1088.529, 2879.500
1089.011, 2989.750
1089.493, 3391.250
1089.975, 3597.875
1090.458, 3104.125
1090.940, 2733.750
1091.422, 2888.250
1091.904, 3334.000
1092.386, 3378.250
1092.868, 3041.625
1093.350, 2549.875
1093.832, 1861.750
1094.314, 1378.625
1094.797, 1657.000
1095.279, 2078.875
1095.761, 2031.375
1096.243, 1505.125
1096.725, 1148.250
1097.207, 972.6250
1097.689, 958.0000
1098.171, 1231.375
1098.653, 1527.375
1099.136, 1489.625
1099.618, 1238.125
1100.100, 968.1250
1100.582, 609.1250
1101.064, 446.5000
1101.546, 514.2500
1102.028, 662.6250
1102.510, 645.1250
1102.993, 602.5000
1103.475, 1060.875
1103.957, 1893.375
1104.439, 2244.000
1104.921, 1345.750
1105.403, 449.7500
1105.885, 176.1250
1106.367, 543.6250
1106.849, 571.0000
1107.332, 312.1250
1107.814, 130.5000
1108.296, 94.12500
1108.778, 106.7500
1109.260, 1071.375
1109.742, 1880.875
1110.224, 1747.000
1110.706, 912.6250
1111.188, 649.5000
1111.671, 951.1250
1112.153, 1141.625
1112.635, 898.0000
1113.117, 667.5000
1113.599, 970.3750
1114.081, 1477.625
1114.563, 1828.000
1115.045, 1968.125
1115.528, 1998.375
1116.010, 1903.000
1116.492, 1738.250
1116.974, 1500.750
1117.456, 1255.250
1117.938, 1163.000
1118.420, 1151.750
1118.902, 1045.000
1119.385, 626.7500
1119.867, 428.2500
1120.349, 653.1250
1120.831, 783.1250
1121.313, 176.8750
1121.795, 844.6250
1122.277, 1444.625
1122.759, 1620.875
1123.241, 1532.750
1123.724, 1082.000
1124.206, 615.8750
1124.688, 271.0000
1125.170, 38.87500
1125.652, 537.0000
1126.134, 1154.375
1126.616, 1413.875
1127.098, 1252.000
1127.580, 946.2500
1128.063, 624.0000
1128.545, 283.3750
1129.027, 60.00000
1129.509, 385.7500
1129.991, 610.6250
1130.473, 723.3750
1130.955, 823.2500
1131.437, 960.7500
1131.920, 971.3750
1132.402, 655.6250
1132.884, 176.3750
1133.366, 373.6250
1133.848, 1004.375
1134.330, 1180.750
1134.812, 774.6250
1135.294, 585.7500
1135.776, 1029.125
1136.259, 1727.125
1136.741, 2274.250
1137.223, 2682.375
1137.705, 2960.375
1138.187, 2973.625
1138.669, 3166.875
1139.151, 3620.750
1139.633, 4013.500
1140.115, 4107.250
1140.598, 4000.750
1141.080, 3891.625
1141.562, 3755.875
1142.044, 3514.125
1142.526, 2944.500
1143.008, 2618.875
1143.490, 2767.125
1143.972, 2933.000
1144.455, 2532.625
1144.937, 1803.875
1145.419, 1532.375
1145.901, 1704.500
1146.383, 1863.750
1146.865, 1737.250
1147.347, 1654.750
1147.829, 1769.000
1148.312, 1913.125
1148.794, 1697.500
1149.276, 1221.125
1149.758, 1237.125
1150.240, 1833.125
1150.722, 2484.500
1151.204, 2931.375
1151.686, 3235.125
1152.168, 3391.625
1152.651, 3449.625
1153.133, 3551.750
1153.615, 3690.000
1154.097, 3696.250
1154.579, 3512.875
1155.061, 3325.000
1155.543, 3227.750
1156.025, 3222.000
1156.507, 3349.500
1156.990, 3591.000
1157.472, 3867.000
1157.954, 4194.500
1158.436, 4338.625
1158.918, 4105.625
1159.400, 3945.750
1159.882, 4434.000
1160.364, 5175.000
1160.847, 5736.375
1161.329, 6078.500
1161.811, 6252.625
1162.293, 6247.375
1162.775, 6091.625
1163.257, 5612.875
1163.739, 5186.625
1164.221, 5496.125
1164.703, 6132.000
1165.186, 6378.875
1165.668, 5794.875
1166.150, 5523.500
1166.632, 5656.375
1167.114, 5786.625
1167.596, 5488.375
1168.078, 5057.750
1168.560, 5108.125
1169.042, 5447.375
1169.525, 5557.375
1170.007, 5203.375
1170.489, 4735.625
1170.971, 4080.625
1171.453, 3571.375
1171.935, 3724.500
1172.417, 4157.625
1172.899, 3953.625
1173.382, 3259.125
1173.864, 2949.250
1174.346, 3895.625
1174.828, 4354.000
1175.310, 3923.250
1175.792, 3237.625
1176.274, 3079.875
1176.756, 3284.750
1177.239, 3440.375
1177.721, 3515.250
1178.203, 3712.625
1178.685, 4225.375
1179.167, 4721.500
1179.649, 5135.375
1180.131, 5329.250
1180.613, 4932.500
1181.095, 4205.625
1181.578, 3900.375
1182.060, 4135.125
1182.542, 4360.000
1183.024, 4299.875
1183.506, 4289.375
1183.988, 4398.000
1184.470, 4583.750
1184.952, 4967.875
1185.434, 5486.000
1185.917, 5848.750
1186.399, 5986.125
1186.881, 5810.750
1187.363, 4629.375
1187.845, 3839.625
1188.327, 4206.250
1188.809, 5400.875
1189.291, 6399.375
1189.774, 7154.750
1190.256, 7433.875
1190.738, 6975.750
1191.220, 6566.500
1191.702, 6626.875
1192.184, 6784.250
1192.666, 6762.250
1193.148, 6624.500
1193.630, 6810.250
1194.113, 7247.125
1194.595, 7539.625
1195.077, 7479.625
1195.559, 7334.875
1196.041, 7362.875
1196.523, 7257.500
1197.005, 6692.125
1197.487, 5714.500
1197.969, 5156.250
1198.452, 4988.875
1198.934, 4956.375
1199.416, 5131.000
1199.898, 5169.750
1200.380, 4712.875
1200.862, 4183.375
1201.344, 4034.375
1201.826, 4257.625
1202.309, 4267.000
1202.791, 4085.125
1203.273, 4080.375
1203.755, 4851.500
1204.237, 5437.875
1204.719, 5097.125
1205.201, 4433.625
1205.683, 4163.000
1206.166, 4276.375
1206.648, 4297.750
1207.130, 4198.875
1207.612, 4135.500
1208.094, 4195.875
1208.576, 4328.375
1209.058, 4634.250
1209.540, 4925.875
1210.022, 4917.750
1210.505, 4621.000
1210.987, 4335.875
1211.469, 4085.000
1211.951, 3848.000
1212.433, 3512.250
1212.915, 3304.875
1213.397, 3489.750
1213.879, 3831.375
1214.361, 3956.125
1214.844, 3876.125
1215.326, 3644.500
1215.808, 3265.875
1216.290, 2967.500
1216.772, 2824.125
1217.254, 2894.250
1217.736, 3353.875
1218.218, 3960.375
1218.701, 4209.375
1219.183, 4120.875
1219.665, 4033.875
1220.147, 3986.875
1220.629, 3983.750
1221.111, 3984.625
1221.593, 4049.250
1222.075, 4268.750
1222.557, 4540.500
1223.040, 4619.875
1223.522, 4509.375
1224.004, 4161.000
1224.486, 3550.375
1224.968, 3027.875
1225.450, 2998.875
1225.932, 2917.250
1226.414, 2429.250
1226.896, 1752.750
1227.379, 1567.500
1227.861, 1797.500
1228.343, 2035.125
1228.825, 2211.875
1229.307, 2257.375
1229.789, 2048.375
1230.271, 1768.875
1230.753, 1457.250
1231.236, 1156.875
1231.718, 1101.500
1232.200, 1223.250
1232.682, 1212.750
1233.164, 955.1250
1233.646, 711.5000
1234.128, 656.3750
1234.610, 613.6250
1235.093, 532.8750
1235.575, 396.7500
1236.057, 44.37500
1236.539, 412.1250
1237.021, 582.7500
1237.503, 264.6250
1237.985, 13.12500
1238.467, 10.25000
1238.949, 30.62500
1239.432, 19.12500
1239.914, 87.50000
1240.396, 169.5000
1240.878, 593.7500
1241.360, 692.0000
1241.842, 171.7500
1242.324, 165.7500
1242.806, 26.37500
1243.288, 131.5000
1243.771, 140.1250
1244.253, 215.7500
1244.735, 626.7500
1245.217, 593.7500
1245.699, 687.2500
1246.181, 955.7500
1246.663, 1409.875
1247.145, 2150.500
1247.628, 2829.875
1248.110, 3188.875
1248.592, 3433.250
1249.074, 4231.125
1249.556, 4141.500
1250.038, 5411.250
1250.520, 4274.500
1251.002, 3687.750
1251.484, 3825.750
1251.967, 4218.000
1252.449, 4691.000
1252.931, 5142.875
1253.413, 5339.000
1253.895, 5407.000
1254.377, 5531.250
1254.859, 5697.625
1255.341, 6146.375
1255.823, 6966.375
1256.306, 7571.750
1256.788, 7544.625
1257.270, 7199.500
1257.752, 6718.125
1258.234, 6273.625
1258.716, 6195.125
1259.198, 6630.125
1259.680, 7108.000
1260.163, 7686.500
1260.645, 7842.875
1261.127, 6994.625
1261.609, 6008.125
1262.091, 5676.000
1262.573, 5686.875
1263.055, 5554.500
1263.537, 5205.875
1264.020, 5209.750
1264.502, 5566.250
1264.984, 6034.125
1265.466, 6381.000
1265.948, 6798.250
1266.430, 7702.625
1266.912, 8537.500
1267.394, 8543.125
1267.876, 7704.875
1268.359, 7145.375
1268.841, 6748.875
1269.323, 6377.750
1269.805, 6203.375
1270.287, 5932.625
1270.769, 5355.750
1271.251, 4625.625
1271.733, 4281.625
1272.215, 4153.250
1272.698, 4232.250
1273.180, 4440.875
1273.662, 4268.875
1274.144, 3099.750
1274.626, 2190.125
1275.108, 1701.000
1275.590, 1616.250
1276.072, 2135.125
1276.555, 2988.250
1277.037, 3100.875
1277.519, 2694.375
1278.001, 2456.250
1278.483, 2810.375
1278.965, 3080.250
1279.447, 3119.750
1279.929, 3135.875
1280.411, 3379.125
1280.894, 3378.625
1281.376, 3674.125
1281.858, 3456.250
1282.340, 3321.250
1282.822, 3378.750
1283.304, 3520.875
1283.786, 3792.000
1284.268, 4028.750
1284.750, 4009.500
1285.233, 3921.250
1285.715, 3914.125
1286.197, 3992.250
1286.679, 4229.250
1287.161, 4711.250
1287.643, 4991.250
1288.125, 5001.375
1288.607, 4963.375
1289.090, 5153.875
1289.572, 5145.250
1290.054, 4345.875
1290.536, 3450.125
1291.018, 3424.250
1291.500, 4317.250
1291.982, 4545.000
1292.464, 4165.125
1292.947, 3641.750
1293.429, 3291.750
1293.911, 2795.625
1294.393, 1841.500
1294.875, 925.2500
1295.357, 442.3750
1295.839, 304.0000
1296.321, 188.7500
1296.803, 122.1250
1297.286, 76.37500
1297.768, 16.25000
1298.250, 48.75000
1298.732, 227.1250
1299.214, 400.2500
1299.696, 199.1250
1300.178, 12.25000
1300.660, 0.0000000E+00
##END=



