##NAMES=Metavivianite
##RRUFFID=R130545
##IDEAL CHEMISTRY=Fe^2+^Fe^3+^_2_(PO_4_)_2_(OH)_2_&#183;6H_2_O
##LOCALITY=Rapid Creek, Yukon Territory, Canada
##OWNER=RRUFF
##SOURCE=Rock Currier
##DESCRIPTION=Dull olive-green platy mass, associated with masses of brighter green acicular gormanite on brown siderite. Metavivianite is twinned around [1 -1 0].
##STATUS=The identification of this mineral is not yet confirmed.
##URL=rruff.info/R130545
122.2947, 0.0000000E+00
122.7769, 0.1329350
123.2590, 1.6860999E-02
123.7411, 0.1660770
124.2232, 0.6039120
124.7053, 0.9002690
125.1874, 1.005280
125.6696, 1.070999
126.1517, 1.086548
126.6338, 1.077148
127.1159, 1.154800
127.5980, 1.474319
128.0801, 1.968430
128.5623, 2.274200
129.0444, 2.307358
129.5265, 2.261703
130.0086, 2.302414
130.4907, 2.436035
130.9728, 2.500076
131.4550, 2.322037
131.9371, 2.072525
132.4192, 1.816788
132.9013, 1.564240
133.3834, 1.400421
133.8655, 1.439850
134.3477, 1.829422
134.8298, 2.189240
135.3119, 2.363037
135.7940, 2.454407
136.2761, 2.562256
136.7582, 2.684998
137.2404, 2.799866
137.7225, 3.076080
138.2046, 3.797287
138.6867, 4.364380
139.1688, 4.667862
139.6509, 4.718597
140.1331, 4.524933
140.6152, 4.014145
141.0973, 2.993835
141.5794, 2.489822
142.0615, 2.770599
142.5436, 3.133606
143.0258, 3.249863
143.5079, 3.110733
143.9900, 2.982483
144.4721, 2.899338
144.9542, 2.869370
145.4363, 2.974548
145.9185, 3.117249
146.4006, 3.067383
146.8827, 2.977829
147.3648, 2.876266
147.8469, 2.716064
148.3290, 2.371689
148.8112, 2.027405
149.2933, 1.882309
149.7754, 1.800522
150.2575, 1.665848
150.7396, 1.629990
151.2217, 1.800858
151.7039, 1.983536
152.1860, 1.999344
152.6681, 1.892532
153.1502, 1.812256
153.6323, 2.050751
154.1144, 2.670013
154.5966, 3.090775
155.0787, 3.037918
155.5608, 2.775314
156.0429, 2.427246
156.5250, 1.989838
157.0071, 1.589417
157.4893, 1.398270
157.9714, 1.464432
158.4535, 1.608536
158.9356, 1.936157
159.4177, 2.215424
159.8998, 2.182220
160.3820, 1.763046
160.8641, 1.212128
161.3462, 1.193802
161.8283, 2.471344
162.3104, 3.238358
162.7925, 3.140472
163.2747, 2.540161
163.7568, 1.772064
164.2389, 0.9923860
164.7210, 0.2505040
165.2031, 0.2190550
165.6852, 0.2418060
166.1674, 0.1931300
166.6495, 4.3549001E-02
167.1316, 0.1154940
167.6137, 0.1323700
168.0958, 0.1090850
168.5779, 0.5287170
169.0601, 0.6231540
169.5422, 0.1336820
170.0243, 0.3319400
170.5064, 0.5470280
170.9885, 0.5550840
171.4706, 0.4699550
171.9528, 0.3256530
172.4349, 0.1534580
172.9170, 7.9131998E-02
173.3991, 0.2900700
173.8812, 0.4608610
174.3633, 0.2702790
174.8455, 0.2879330
175.3276, 0.8130800
175.8097, 1.065338
176.2918, 1.097000
176.7739, 0.9847110
177.2560, 0.6306760
177.7382, 0.2125700
178.2203, 1.1856000E-02
178.7024, 1.2660000E-03
179.1845, 8.1923999E-02
179.6666, 0.1821290
180.1487, 0.1233830
180.6309, 2.3285000E-02
181.1130, 0.1776580
181.5951, 0.4094850
182.0772, 0.4303280
182.5593, 2.3575000E-02
183.0414, 0.2263030
183.5236, 6.2409998E-03
184.0057, 0.4726410
184.4878, 0.8104400
184.9699, 0.7756350
185.4520, 0.4423830
185.9341, 0.2880250
186.4163, 0.4301450
186.8984, 0.6450810
187.3805, 0.9615780
187.8626, 1.303650
188.3447, 1.543350
188.8268, 1.570084
189.3090, 1.396103
189.7911, 1.389252
190.2732, 1.778992
190.7553, 2.103165
191.2374, 2.163025
191.7195, 2.051300
192.2017, 2.016983
192.6838, 2.282928
193.1659, 2.876083
193.6480, 3.033539
194.1301, 2.355804
194.6122, 1.729263
195.0944, 1.530609
195.5765, 1.729507
196.0586, 2.121841
196.5407, 2.600494
197.0228, 3.160629
197.5049, 3.390549
197.9871, 2.926697
198.4692, 2.462143
198.9513, 2.500229
199.4334, 3.021896
199.9155, 3.565948
200.3976, 3.758484
200.8798, 3.604706
201.3619, 3.484634
201.8440, 3.324203
202.3261, 3.256226
202.8082, 3.509003
203.2903, 4.110031
203.7725, 4.618729
204.2546, 4.611893
204.7367, 4.231476
205.2188, 3.875900
205.7009, 3.592392
206.1830, 3.380737
206.6652, 3.220810
207.1473, 3.090775
207.6294, 3.100937
208.1115, 3.562210
208.5936, 4.194046
209.0757, 4.523026
209.5579, 4.155838
210.0400, 3.465286
210.5221, 3.243240
211.0042, 3.681900
211.4863, 4.167374
211.9685, 4.497559
212.4506, 4.656479
212.9327, 4.578644
213.4148, 4.134857
213.8969, 3.480331
214.3790, 3.109955
214.8612, 3.148422
215.3433, 3.283783
215.8254, 3.362091
216.3075, 3.461624
216.7896, 3.738266
217.2717, 4.347885
217.7539, 5.140549
218.2360, 5.424561
218.7181, 4.733429
219.2002, 4.124054
219.6823, 3.889099
220.1644, 3.885651
220.6466, 3.908463
221.1287, 3.827408
221.6108, 3.680984
222.0929, 3.715668
222.5750, 4.260162
223.0571, 4.601486
223.5393, 4.519119
224.0214, 4.215088
224.5035, 4.002518
224.9856, 4.077377
225.4677, 4.361496
225.9498, 4.397186
226.4320, 3.751572
226.9141, 3.321762
227.3962, 3.410843
227.8783, 3.816315
228.3604, 4.224426
228.8425, 4.463013
229.3247, 4.556168
229.8068, 4.644394
230.2889, 4.698929
230.7710, 4.774704
231.2531, 4.981888
231.7352, 5.215424
232.2174, 5.259445
232.6995, 4.953506
233.1816, 4.393738
233.6637, 4.061890
234.1458, 4.088516
234.6279, 4.178406
235.1101, 4.322128
235.5922, 4.489502
236.0743, 4.593719
236.5564, 4.572769
237.0385, 4.472702
237.5206, 4.457108
238.0028, 4.599548
238.4849, 4.709061
238.9670, 4.700012
239.4491, 4.610428
239.9312, 4.509628
240.4133, 4.409500
240.8955, 4.327972
241.3776, 4.345642
241.8597, 4.467438
242.3418, 4.624573
242.8239, 4.839890
243.3060, 5.069580
243.7882, 5.202759
244.2703, 5.201691
244.7524, 5.087372
245.2345, 4.873642
245.7166, 4.531754
246.1987, 4.248444
246.6809, 4.133453
247.1630, 4.151352
247.6451, 4.200760
248.1272, 4.291794
248.6093, 4.357422
249.0914, 4.293549
249.5736, 4.096497
250.0557, 3.942474
250.5378, 4.017944
251.0199, 4.244904
251.5020, 4.263016
251.9841, 3.862488
252.4663, 3.424606
252.9484, 3.286179
253.4305, 3.425720
253.9126, 3.644119
254.3947, 3.866669
254.8768, 4.083511
255.3590, 4.248657
255.8411, 4.375458
256.3232, 4.405991
256.8053, 4.217712
257.2874, 3.890884
257.7695, 3.707413
258.2516, 3.983704
258.7338, 4.599899
259.2159, 4.896530
259.6980, 4.687775
260.1801, 4.385941
260.6622, 4.200638
261.1443, 4.107040
261.6265, 4.045120
262.1086, 3.997772
262.5907, 3.951599
263.0728, 3.842041
263.5549, 3.576111
264.0370, 3.394699
264.5192, 3.445114
265.0013, 3.623672
265.4834, 3.763794
265.9655, 3.774857
266.4476, 3.686691
266.9297, 3.600494
267.4119, 3.556671
267.8940, 3.435089
268.3761, 3.104401
268.8582, 2.723816
269.3403, 2.505035
269.8224, 2.574188
270.3046, 2.807877
270.7867, 2.843445
271.2688, 2.485855
271.7509, 2.279724
272.2330, 2.482056
272.7151, 2.804367
273.1973, 2.927826
273.6794, 2.719154
274.1615, 2.354340
274.6436, 2.220039
275.1257, 2.492462
275.6078, 2.659035
276.0900, 2.513176
276.5721, 2.327065
277.0542, 2.375580
277.5363, 2.725906
278.0184, 3.168571
278.5005, 3.325798
278.9827, 2.997864
279.4648, 2.820709
279.9469, 2.950119
280.4290, 3.129456
280.9111, 3.189873
281.3932, 3.100243
281.8754, 2.938988
282.3575, 2.807678
282.8396, 2.721054
283.3217, 2.625259
283.8038, 2.424477
284.2859, 2.287682
284.7681, 2.399467
285.2502, 2.710197
285.7323, 2.964470
286.2144, 2.856918
286.6965, 2.272423
287.1786, 1.981819
287.6608, 2.165100
288.1429, 2.443275
288.6250, 2.790863
289.1071, 3.120453
289.5892, 3.265190
290.0714, 3.067802
290.5535, 2.524002
291.0356, 2.031273
291.5177, 1.367996
291.9998, 0.9915240
292.4819, 1.286667
292.9641, 1.948662
293.4462, 2.381332
293.9283, 2.175964
294.4104, 1.466461
294.8925, 1.143456
295.3746, 1.624321
295.8568, 2.053688
296.3389, 2.370125
296.8210, 2.562767
297.3031, 2.592552
297.7852, 2.430878
298.2673, 2.157799
298.7495, 2.032372
299.2316, 2.167793
299.7137, 2.268982
300.1958, 2.371368
300.6779, 2.458313
301.1600, 2.496574
301.6422, 2.485405
302.1243, 2.456192
302.6064, 2.452766
303.0885, 2.439255
303.5706, 2.473328
304.0527, 2.633972
304.5349, 2.816071
305.0170, 2.958374
305.4991, 3.041092
305.9812, 3.065704
306.4633, 3.021744
306.9454, 2.859772
307.4276, 2.713806
307.9097, 2.646751
308.3918, 2.590248
308.8739, 2.478081
309.3560, 2.329651
309.8381, 2.240379
310.3203, 2.305336
310.8024, 2.542412
311.2845, 2.686882
311.7666, 2.671677
312.2487, 2.648170
312.7308, 2.694405
313.2130, 2.778885
313.6951, 2.827492
314.1772, 2.794403
314.6593, 2.682640
315.1414, 2.498497
315.6235, 1.984329
316.1057, 1.645325
316.5878, 1.694977
317.0699, 1.953590
317.5520, 2.188507
318.0341, 2.294785
318.5162, 2.307236
318.9984, 2.316841
319.4805, 2.336014
319.9626, 2.335701
320.4447, 2.284073
320.9268, 2.233803
321.4089, 2.224838
321.8911, 2.272255
322.3732, 2.381172
322.8553, 2.571823
323.3374, 2.954132
323.8195, 3.122307
324.3016, 2.979004
324.7838, 2.715210
325.2659, 2.395081
325.7480, 2.064323
326.2301, 1.828209
326.7122, 1.797699
327.1943, 1.999184
327.6765, 2.121696
328.1586, 2.161896
328.6407, 2.139633
329.1228, 2.014977
329.6049, 1.829613
330.0870, 1.666763
330.5692, 1.583061
331.0513, 1.569305
331.5334, 1.563393
332.0155, 1.699738
332.4976, 1.685150
332.9797, 1.294792
333.4619, 0.7866440
333.9440, 0.5318600
334.4261, 0.6983570
334.9082, 1.080315
335.3904, 1.159454
335.8725, 0.5443950
336.3546, 0.2386930
336.8367, 0.4399340
337.3188, 0.8333440
337.8009, 1.253571
338.2831, 1.623451
338.7652, 1.840424
339.2473, 1.729149
339.7294, 1.124802
340.2115, 0.7026980
340.6936, 0.5037380
341.1758, 0.4209210
341.6579, 0.4767840
342.1400, 0.6154630
342.6221, 0.6977010
343.1042, 0.5764620
343.5863, 0.2519610
344.0685, 0.1236420
344.5506, 0.4811480
345.0327, 0.7483830
345.5148, 0.7669600
345.9969, 0.6194920
346.4790, 0.4283750
346.9612, 0.2502290
347.4433, 0.1099320
347.9254, 9.2964001E-02
348.4075, 0.3185810
348.8896, 0.4752500
349.3717, 0.5277100
349.8539, 0.4967580
350.3360, 0.3679120
350.8181, 0.1475450
351.3002, 8.1032000E-02
351.7823, 0.1826170
352.2644, 0.1120990
352.7466, 6.9443002E-02
353.2287, 2.0927001E-02
353.7108, 3.3500999E-02
354.1929, 0.1970670
354.6750, 0.4787900
355.1571, 0.7386250
355.6393, 0.8730770
356.1214, 0.8839110
356.6035, 0.7298430
357.0856, 0.1579130
357.5677, 0.2763980
358.0498, 0.3232270
358.5320, 0.1133190
359.0141, 0.1419600
359.4962, 0.3554760
359.9783, 0.5010910
360.4604, 0.4660570
360.9425, 0.1231310
361.4247, 9.9182002E-02
361.9068, 8.0800001E-03
362.3889, 0.2391130
362.8710, 0.4514850
363.3531, 0.6113970
363.8352, 0.6557080
364.3174, 0.4304730
364.7995, 0.1081770
365.2816, 0.4603270
365.7637, 0.3729400
366.2458, 0.2151180
366.7279, 0.2716670
367.2101, 0.5111920
367.6922, 0.6684880
368.1743, 0.4640120
368.6564, 1.7499999E-04
369.1385, 0.2411190
369.6206, 0.1644590
370.1028, 1.6457001E-02
370.5849, 0.1096950
371.0670, 0.1947780
371.5491, 0.1845470
372.0312, 1.7410001E-02
372.5133, 0.2464070
372.9955, 0.2278590
373.4776, 6.8314001E-02
373.9597, 0.3055190
374.4418, 0.2999650
374.9239, 0.1850130
375.4060, 0.1342470
375.8882, 0.1758650
376.3703, 0.2163700
376.8524, 0.1811980
377.3345, 8.7867998E-02
377.8166, 8.8269999E-03
378.2987, 3.4926999E-02
378.7809, 6.9358997E-02
379.2630, 0.1326680
379.7451, 0.2203140
380.2272, 0.2799680
380.7093, 0.3081050
381.1914, 0.2918850
381.6736, 0.1771320
382.1557, 4.5722999E-02
382.6378, 0.2185590
383.1199, 0.1788560
383.6020, 9.4910003E-03
384.0841, 5.0484002E-02
384.5663, 0.1821750
385.0484, 0.4446030
385.5305, 0.5730210
386.0126, 0.6109090
386.4947, 0.7107700
386.9768, 0.9539950
387.4590, 1.253197
387.9411, 1.421440
388.4232, 1.453201
388.9053, 1.413734
389.3874, 1.208481
389.8695, 0.9903340
390.3517, 0.9720540
390.8338, 1.182800
391.3159, 1.417664
391.7980, 1.440468
392.2801, 1.206490
392.7622, 1.230118
393.2444, 1.861702
393.7265, 2.390877
394.2086, 2.373863
394.6907, 1.952950
395.1728, 1.521446
395.6549, 1.302460
396.1371, 1.263542
396.6192, 1.287903
397.1013, 1.336792
397.5834, 1.498238
398.0655, 1.871590
398.5476, 2.315941
399.0298, 2.740601
399.5119, 3.101952
399.9940, 3.320198
400.4761, 3.250732
400.9582, 2.746796
401.4403, 2.471130
401.9225, 2.591217
402.4046, 2.753288
402.8867, 2.780106
403.3688, 2.708900
403.8509, 2.669868
404.3330, 2.751236
404.8152, 2.940567
405.2973, 3.173035
405.7794, 3.524925
406.2615, 3.804451
406.7436, 3.972870
407.2257, 4.061073
407.7079, 4.063469
408.1900, 3.983566
408.6721, 3.923241
409.1542, 4.089180
409.6363, 4.570374
410.1184, 4.771454
410.6006, 4.252609
411.0827, 3.775543
411.5648, 3.794136
412.0469, 4.199738
412.5290, 4.575500
413.0111, 4.652519
413.4933, 4.510971
413.9754, 4.376450
414.4575, 4.246864
414.9396, 4.196198
415.4217, 4.284103
415.9038, 4.405930
416.3860, 4.429535
416.8681, 4.278900
417.3502, 4.134850
417.8323, 4.213753
418.3144, 4.498619
418.7965, 4.774178
419.2787, 4.993759
419.7608, 5.123451
420.2429, 5.067886
420.7250, 4.846611
421.2071, 4.734184
421.6892, 4.969009
422.1714, 5.324181
422.6535, 5.464828
423.1356, 5.337723
423.6177, 5.155914
424.0998, 5.007645
424.5819, 4.933823
425.0641, 5.058960
425.5462, 5.611824
426.0283, 6.071365
426.5104, 6.165596
426.9925, 6.003555
427.4746, 5.801941
427.9568, 5.619453
428.4389, 5.498657
428.9210, 5.516663
429.4031, 5.748238
429.8852, 5.909561
430.3673, 6.014526
430.8495, 6.037079
431.3316, 5.880478
431.8137, 5.591621
432.2958, 5.399117
432.7779, 5.478508
433.2600, 5.792885
433.7422, 6.040161
434.2243, 6.259331
434.7064, 6.356544
435.1885, 6.216774
435.6706, 5.993286
436.1527, 5.843246
436.6349, 5.816574
437.1170, 5.870117
437.5991, 5.963539
438.0812, 6.134674
438.5633, 6.213631
439.0454, 6.157784
439.5276, 6.058990
440.0097, 5.853439
440.4918, 5.626343
440.9739, 5.596001
441.4560, 5.960793
441.9381, 6.530396
442.4203, 6.711372
442.9024, 6.317284
443.3845, 6.014572
443.8666, 6.101067
444.3487, 6.305222
444.8308, 6.445465
445.3130, 6.489479
445.7951, 6.419510
446.2772, 6.062462
446.7593, 5.525780
447.2414, 5.434525
447.7235, 6.026146
448.2057, 6.720665
448.6878, 7.100273
449.1699, 7.247749
449.6520, 7.319351
450.1341, 7.375473
450.6162, 7.351746
451.0984, 7.085953
451.5805, 6.634781
452.0626, 6.375595
452.5447, 6.477348
453.0268, 6.825256
453.5089, 7.290695
453.9911, 7.966660
454.4732, 8.361107
454.9553, 8.164200
455.4374, 7.748001
455.9195, 7.480927
456.4016, 7.402710
456.8838, 7.398788
457.3659, 7.380165
457.8480, 7.349678
458.3301, 7.360367
458.8122, 7.398193
459.2943, 7.485481
459.7765, 7.668678
460.2586, 7.890503
460.7407, 8.084343
461.2228, 8.225082
461.7049, 8.317490
462.1870, 8.371674
462.6692, 8.400230
463.1513, 8.348228
463.6334, 7.961128
464.1155, 7.746162
464.5976, 8.087921
465.0797, 8.770767
465.5619, 9.312645
466.0440, 9.422134
466.5261, 9.204826
467.0082, 8.905289
467.4903, 8.431709
467.9724, 8.126190
468.4546, 8.183289
468.9367, 8.366943
469.4188, 8.554817
469.9009, 8.730850
470.3830, 8.866768
470.8651, 8.898071
471.3473, 8.857864
471.8294, 8.891197
472.3115, 9.026131
472.7936, 9.164429
473.2757, 9.260124
473.7578, 9.318489
474.2400, 9.336540
474.7221, 9.337326
475.2042, 9.239670
475.6863, 8.891930
476.1684, 8.419014
476.6505, 8.188927
477.1327, 8.328926
477.6148, 8.587227
478.0969, 8.666389
478.5790, 8.550034
479.0611, 8.381210
479.5432, 8.051315
480.0254, 7.772583
480.5075, 7.724136
480.9896, 7.849243
481.4717, 7.968796
481.9538, 7.999374
482.4359, 7.963158
482.9181, 7.891106
483.4002, 7.681206
483.8823, 7.596649
484.3644, 7.774345
484.8465, 7.957115
485.3286, 7.938866
485.8108, 7.723160
486.2929, 7.454231
486.7750, 7.251648
487.2571, 7.107040
487.7392, 6.924934
488.2213, 6.613510
488.7035, 6.420692
489.1856, 6.484100
489.6677, 6.643616
490.1498, 6.744598
490.6319, 6.749100
491.1140, 6.695404
491.5962, 6.598145
492.0783, 6.465187
492.5604, 6.369751
493.0425, 6.328941
493.5246, 6.308327
494.0067, 6.339874
494.4889, 6.372635
494.9710, 6.268967
495.4531, 5.889816
495.9352, 5.491173
496.4173, 5.267815
496.8994, 5.195305
497.3816, 5.206070
497.8637, 5.303505
498.3458, 5.391594
498.8279, 5.306961
499.3100, 4.994148
499.7921, 4.791176
500.2743, 4.876244
500.7564, 4.941521
501.2385, 4.734650
501.7206, 4.324760
502.2027, 3.955437
502.6848, 3.766670
503.1670, 3.698830
503.6491, 3.576355
504.1312, 3.302094
504.6133, 3.133583
505.0954, 3.154388
505.5775, 3.212334
506.0597, 3.235367
506.5418, 3.200912
507.0239, 3.086281
507.5060, 2.850098
507.9881, 2.528099
508.4702, 2.292007
508.9524, 2.161217
509.4345, 2.074242
509.9166, 2.036751
510.3987, 2.019730
510.8808, 1.998299
511.3629, 1.968361
511.8451, 1.945557
512.3271, 1.998856
512.8093, 2.067245
513.2914, 1.927406
513.7735, 1.511444
514.2556, 1.144768
514.7377, 1.097420
515.2198, 1.277786
515.7020, 1.345314
516.1841, 1.260887
516.6662, 1.107452
517.1483, 0.8489990
517.6304, 0.5654300
518.1125, 0.4023670
518.5947, 0.3931730
519.0768, 0.4382860
519.5589, 0.4305420
520.0410, 0.3622440
520.5231, 0.3101730
521.0052, 0.2567980
521.4874, 0.2361220
521.9695, 0.2822570
522.4516, 0.3593830
522.9337, 0.4278410
523.4158, 0.4710770
523.8979, 0.4779970
524.3801, 0.4192280
524.8622, 0.2778240
525.3443, 0.1662980
525.8264, 0.1433640
526.3085, 8.8096999E-02
526.7906, 9.2597999E-02
527.2728, 0.3353040
527.7549, 0.5202980
528.2370, 0.5966840
528.7191, 0.6037290
529.2012, 0.5634040
529.6833, 0.4819640
530.1655, 0.4681590
530.6476, 0.6016920
531.1297, 0.7244420
531.6118, 0.5726050
532.0939, 0.1964300
532.5760, 1.5144000E-02
533.0582, 0.3201750
533.5403, 0.6712190
534.0224, 0.7049060
534.5045, 0.4972880
534.9866, 0.3022000
535.4688, 0.2287220
535.9509, 0.2303770
536.4330, 0.2222440
536.9151, 0.1894870
537.3972, 0.1825750
537.8793, 0.2983130
538.3615, 0.3483960
538.8436, 0.1322060
539.3257, 0.2303770
539.8078, 0.4419060
540.2899, 0.3223840
540.7720, 2.9499000E-02
541.2542, 6.2359001E-02
541.7363, 0.1133540
542.2184, 0.2659380
542.7005, 0.3183170
543.1826, 0.3637160
543.6647, 0.4855230
544.1469, 0.6554110
544.6290, 0.7534560
545.1111, 0.6294670
545.5932, 0.4654310
546.0753, 0.6025350
546.5574, 1.026886
547.0396, 1.324650
547.5217, 1.301579
548.0038, 1.132565
548.4859, 1.096020
548.9680, 1.205215
549.4501, 1.273857
549.9323, 1.155449
550.4144, 1.075512
550.8965, 1.273430
551.3786, 1.680023
551.8607, 2.040192
552.3428, 2.217880
552.8250, 2.260105
553.3071, 2.279022
553.7892, 2.256100
554.2713, 2.242706
554.7534, 2.201691
555.2355, 2.202023
555.7177, 2.313522
556.1998, 2.501171
556.6819, 2.670704
557.1640, 2.764652
557.6461, 2.809570
558.1282, 2.875633
558.6104, 2.978043
559.0925, 2.999031
559.5746, 2.853214
560.0567, 2.670612
560.5388, 2.552109
561.0209, 2.497158
561.5031, 2.493748
561.9852, 2.611202
562.4673, 2.726360
562.9494, 2.642487
563.4315, 2.417057
563.9136, 2.373875
564.3958, 2.690701
564.8779, 3.103378
565.3600, 3.121029
565.8421, 2.469704
566.3242, 2.228207
566.8063, 2.777660
567.2885, 3.367229
567.7706, 3.597301
568.2527, 3.534840
568.7348, 3.361336
569.2169, 3.160793
569.6990, 2.983341
570.1812, 2.954800
570.6633, 3.138588
571.1454, 3.209099
571.6275, 2.940418
572.1096, 2.766151
572.5917, 3.022495
573.0739, 3.530403
573.5560, 3.855656
574.0381, 3.759281
574.5202, 3.550014
575.0023, 3.608295
575.4844, 3.877323
575.9666, 4.017483
576.4487, 3.907043
576.9308, 3.782558
577.4129, 3.950935
577.8950, 4.416187
578.3771, 4.608994
578.8593, 4.282742
579.3414, 3.935215
579.8235, 3.726608
580.3056, 3.663700
580.7877, 3.788101
581.2698, 4.098236
581.7520, 4.455631
582.2341, 4.703644
582.7162, 4.849796
583.1984, 4.811001
583.6805, 4.361431
584.1626, 4.007965
584.6447, 3.938641
585.1268, 3.998501
585.6089, 4.004372
586.0911, 3.912586
586.5732, 3.829258
587.0553, 3.887604
587.5374, 4.042221
588.0195, 4.098827
588.5016, 4.022285
588.9838, 3.894207
589.4659, 3.782986
589.9480, 3.686619
590.4301, 3.529942
590.9122, 3.149220
591.3943, 2.942715
591.8765, 3.259094
592.3586, 3.721237
592.8407, 3.865364
593.3228, 3.674610
593.8049, 3.469418
594.2870, 3.496952
594.7692, 3.696644
595.2513, 3.768875
595.7334, 3.599617
596.2155, 3.487129
596.6976, 3.573807
597.1797, 3.656593
597.6619, 3.527798
598.1440, 3.238300
598.6261, 3.042965
599.1082, 3.143661
599.5903, 3.394112
600.0724, 3.502796
600.5546, 3.468498
601.0367, 3.392845
601.5188, 3.266026
602.0009, 3.172829
602.4830, 3.270729
602.9651, 3.552990
603.4473, 3.724136
603.9294, 3.654461
604.4115, 3.549805
604.8936, 3.533062
605.3757, 3.576149
605.8578, 3.615417
606.3400, 3.627323
606.8221, 3.624519
607.3042, 3.626644
607.7863, 3.638691
608.2684, 3.626377
608.7505, 3.557095
609.2327, 3.503525
609.7148, 3.482376
610.1969, 3.491123
610.6790, 3.551525
611.1611, 3.672783
611.6432, 3.739479
612.1254, 3.580872
612.6075, 3.286377
613.0896, 3.157669
613.5717, 3.233780
614.0538, 3.339828
614.5359, 3.393986
615.0181, 3.391415
615.5002, 3.311016
615.9823, 3.099064
616.4644, 2.936981
616.9465, 2.872364
617.4286, 2.864029
617.9108, 2.883106
618.3929, 2.925297
618.8750, 2.999500
619.3571, 3.114525
619.8392, 3.250244
620.3214, 3.349846
620.8035, 3.397858
621.2856, 3.456085
621.7677, 3.604626
622.2498, 3.692486
622.7319, 3.609791
623.2141, 3.405445
623.6962, 3.200043
624.1783, 3.007343
624.6604, 2.884617
625.1425, 2.932896
625.6246, 3.101109
626.1068, 3.216354
626.5889, 3.238434
627.0710, 3.217113
627.5531, 3.186386
628.0352, 3.150204
628.5173, 3.180614
628.9995, 3.331337
629.4816, 3.473171
629.9637, 3.604187
630.4458, 3.700451
630.9279, 3.688618
631.4100, 3.585316
631.8922, 3.542488
632.3743, 3.735188
632.8564, 4.063999
633.3385, 4.109707
633.8206, 3.804779
634.3027, 3.524036
634.7849, 3.270485
635.2670, 3.140617
635.7491, 3.309650
636.2312, 3.750786
636.7133, 4.079361
637.1954, 4.072731
637.6776, 3.986423
638.1597, 4.049736
638.6418, 4.207527
639.1239, 4.315609
639.6060, 4.321518
640.0881, 4.265446
640.5703, 4.198372
641.0524, 4.120960
641.5345, 4.062527
642.0166, 4.052132
642.4987, 4.024357
642.9808, 3.930317
643.4630, 3.842388
643.9451, 3.844379
644.4272, 3.947159
644.9093, 4.055653
645.3914, 4.088566
645.8735, 4.056721
646.3557, 3.983974
646.8378, 3.878147
647.3199, 3.842781
647.8020, 3.959843
648.2841, 4.114094
648.7662, 4.107895
649.2484, 3.912930
649.7305, 3.720737
650.2126, 3.527401
650.6947, 3.360321
651.1768, 3.217636
651.6589, 3.117744
652.1411, 3.128380
652.6232, 3.239674
653.1053, 3.343849
653.5874, 3.256538
654.0695, 2.975601
654.5516, 2.847244
655.0338, 2.963211
655.5159, 3.048676
655.9980, 2.915943
656.4801, 2.725941
656.9622, 2.673809
657.4443, 2.791363
657.9265, 2.864079
658.4086, 2.709644
658.8907, 2.522461
659.3728, 2.572376
659.8549, 2.798916
660.3370, 2.911324
660.8192, 2.772217
661.3013, 2.497620
661.7834, 2.274155
662.2655, 2.071175
662.7476, 2.032715
663.2297, 2.433132
663.7119, 2.692444
664.1940, 2.499435
664.6761, 2.120525
665.1582, 1.918797
665.6403, 1.988899
666.1224, 2.127567
666.6046, 2.193302
667.0867, 2.196388
667.5688, 2.159138
668.0509, 2.084438
668.5330, 1.961365
669.0151, 1.766159
669.4973, 1.544823
669.9794, 1.391003
670.4615, 1.332428
670.9436, 1.271824
671.4257, 1.186134
671.9078, 1.119705
672.3900, 1.115765
672.8721, 1.142963
673.3542, 1.133347
673.8363, 1.064701
674.3184, 1.006062
674.8005, 1.081841
675.2827, 1.266727
675.7648, 1.290661
676.2469, 1.105125
676.7290, 0.9027900
677.2111, 0.7255250
677.6932, 0.6199340
678.1754, 0.7047460
678.6575, 1.047897
679.1396, 1.215530
679.6217, 0.9398920
680.1038, 0.6002460
680.5859, 0.4864920
681.0681, 0.5417750
681.5502, 0.6114120
682.0323, 0.6307490
682.5144, 0.5935480
682.9965, 0.4646070
683.4786, 0.2320860
683.9608, 0.1326370
684.4429, 0.2762530
684.9250, 0.3550030
685.4071, 0.1657520
685.8892, 0.1106110
686.3713, 0.2834510
686.8535, 0.3310170
687.3356, 0.3534320
687.8177, 0.4206430
688.2998, 0.4628180
688.7819, 0.3756290
689.2640, 0.1972500
689.7462, 4.6760999E-02
690.2283, 3.0471999E-02
690.7104, 2.6683999E-02
691.1925, 9.2106000E-02
691.6746, 0.3553890
692.1567, 0.4599760
692.6389, 0.2621650
693.1210, 9.9655002E-02
693.6031, 0.1023830
694.0852, 0.1551130
694.5673, 0.1240810
695.0494, 9.4200001E-04
695.5316, 9.3764998E-02
696.0137, 4.1476998E-02
696.4958, 5.9788000E-02
696.9779, 7.7399999E-02
697.4600, 2.6333001E-02
697.9421, 1.3809000E-02
698.4243, 1.4771000E-02
698.9064, 7.7099999E-04
699.3885, 6.0999999E-03
699.8706, 3.6518000E-02
700.3527, 2.2125000E-02
700.8348, 7.4378997E-02
701.3170, 0.1722830
701.7991, 0.3147960
702.2812, 0.4143640
702.7633, 0.3770600
703.2454, 0.2049710
703.7275, 1.8276000E-02
704.2097, 0.3026350
704.6918, 0.5557330
705.1739, 0.5870970
705.6560, 0.4357340
706.1381, 0.3649100
706.6202, 0.4592700
707.1024, 0.5824510
707.5845, 0.6028520
708.0666, 0.5205420
708.5487, 0.3899310
709.0308, 3.1513002E-02
709.5129, 0.1336360
709.9951, 0.1345250
710.4772, 0.4835930
710.9593, 0.6047970
711.4414, 0.5163570
711.9235, 0.4384770
712.4056, 0.5178030
712.8878, 0.6406820
713.3699, 0.5386010
713.8520, 0.2794270
714.3341, 0.4141540
714.8162, 1.144264
715.2983, 1.759243
715.7805, 1.603271
716.2626, 0.8442960
716.7447, 0.4471780
717.2268, 0.7145960
717.7089, 0.8837390
718.1910, 0.8695410
718.6732, 0.7606700
719.1553, 0.5553970
719.6374, 0.3142740
720.1195, 0.1633070
720.6016, 0.1731720
721.0837, 0.2412910
721.5659, 0.2049100
722.0480, 9.5210999E-02
722.5301, 0.1074330
723.0122, 0.2773550
723.4943, 0.4759100
723.9764, 0.6583520
724.4586, 0.7954750
724.9407, 0.7930680
725.4228, 0.5480270
725.9049, 0.4174310
726.3870, 0.5160900
726.8691, 0.6372410
727.3513, 0.6441610
727.8334, 0.6032370
728.3155, 0.6673700
728.7976, 0.8793750
729.2797, 1.064087
729.7618, 0.9903870
730.2440, 0.7379230
730.7261, 0.5972060
731.2082, 0.5805470
731.6903, 0.5970270
732.1724, 0.6002200
732.6545, 0.6352650
733.1367, 0.7867050
733.6188, 1.089031
734.1009, 1.306122
734.5830, 1.468254
735.0651, 1.513351
735.5472, 1.290337
736.0294, 1.013760
736.5115, 0.9746630
736.9936, 1.176128
737.4757, 1.327267
737.9578, 1.163124
738.4399, 0.8553960
738.9221, 0.7707370
739.4042, 0.8919530
739.8863, 0.9703330
740.3684, 0.9457740
740.8505, 0.8641740
741.3326, 0.7421380
741.8148, 0.5912170
742.2969, 0.5483280
742.7790, 0.7224080
743.2611, 0.8409840
743.7432, 0.8126720
744.2253, 0.7547490
744.7075, 0.7895010
745.1896, 0.8841090
745.6717, 0.9107400
746.1538, 0.7973330
746.6359, 0.6673810
747.1180, 0.6660880
747.6002, 0.7682650
748.0823, 0.9140280
748.5644, 1.099884
749.0465, 1.172825
749.5286, 0.9989810
750.0107, 0.7126960
750.4929, 0.6352730
750.9750, 0.8962970
751.4571, 1.025604
751.9392, 0.9664540
752.4213, 0.8494530
752.9034, 0.6932600
753.3856, 0.5248490
753.8677, 0.3677330
754.3498, 0.2257920
754.8319, 0.1418530
755.3140, 0.1537090
755.7961, 0.2428050
756.2783, 0.4342120
756.7604, 0.6912380
757.2425, 0.7901310
757.7246, 0.6419450
758.2067, 0.4731060
758.6888, 0.5740280
759.1710, 0.9413530
759.6531, 1.040787
760.1352, 0.6038930
760.6173, 0.3214570
761.0994, 0.4092250
761.5815, 0.5957680
762.0637, 0.7015340
762.5458, 0.7151990
763.0279, 0.6583600
763.5100, 0.4932980
763.9921, 0.3456760
764.4742, 0.3245430
764.9564, 0.3918760
765.4385, 0.5129810
765.9206, 0.6645740
766.4027, 0.7253760
766.8848, 0.5996780
767.3669, 0.4003560
767.8491, 0.4972880
768.3312, 1.067280
768.8133, 1.196793
769.2954, 0.4855770
769.7775, 0.1287380
770.2596, 0.1740230
770.7418, 8.1638001E-02
771.2239, 0.3269270
771.7060, 0.5339130
772.1881, 0.6792220
772.6702, 0.7562410
773.1523, 0.7670560
773.6345, 0.6681330
774.1166, 0.5148850
774.5987, 0.4251520
775.0808, 0.4307480
775.5629, 0.4542200
776.0450, 0.4042930
776.5272, 0.3140030
777.0093, 0.3818240
777.4914, 0.6650920
777.9735, 0.7774160
778.4556, 0.5297280
778.9377, 0.2447430
779.4199, 0.2199970
779.9020, 0.4056400
780.3841, 0.5552670
780.8662, 0.7070160
781.3483, 0.7542500
781.8304, 0.5492900
782.3126, 0.3307150
782.7947, 0.3071860
783.2768, 0.4388890
783.7589, 0.5979120
784.2410, 0.7312770
784.7231, 0.8065760
785.2053, 0.7381250
785.6874, 0.5745890
786.1695, 0.5158420
786.6516, 0.5763850
787.1337, 0.6670230
787.6158, 0.7649840
788.0980, 0.8292050
788.5801, 0.7846150
789.0622, 0.6046180
789.5443, 0.4983330
790.0264, 0.4721760
790.5085, 0.5093040
790.9907, 0.6851430
791.4728, 0.8684580
791.9549, 0.9427220
792.4370, 0.9043660
792.9191, 0.8048520
793.4012, 0.6155660
793.8834, 0.4581150
794.3655, 0.5092620
794.8476, 0.6691970
795.3297, 0.6755330
795.8118, 0.5164530
796.2939, 0.4803540
796.7761, 0.7806820
797.2582, 1.224411
797.7403, 1.315231
798.2224, 0.9419670
798.7045, 0.6835590
799.1866, 0.5575180
799.6688, 0.5373880
800.1509, 0.6862750
800.6330, 0.8990100
801.1151, 1.067905
801.5972, 1.188747
802.0793, 1.220272
802.5615, 1.074295
803.0436, 0.9143450
803.5257, 0.8303720
804.0078, 0.8040730
804.4899, 0.8109780
804.9720, 0.8416750
805.4542, 0.8895950
805.9363, 0.9585950
806.4184, 1.025955
806.9005, 0.9950410
807.3826, 0.8761290
807.8647, 0.9688000
808.3469, 1.389786
808.8290, 1.708061
809.3111, 1.575397
809.7932, 1.147892
810.2753, 0.9036100
810.7574, 0.8984030
811.2396, 0.9646680
811.7217, 1.229111
812.2038, 1.424232
812.6859, 1.372894
813.1680, 1.216713
813.6501, 1.147732
814.1323, 1.203159
814.6144, 1.298576
815.0965, 1.446213
815.5786, 1.553196
816.0607, 1.438335
816.5428, 1.204601
817.0250, 1.152092
817.5071, 1.335609
817.9892, 1.526772
818.4713, 1.532940
818.9534, 1.409027
819.4355, 1.347225
819.9177, 1.364513
820.3998, 1.358578
820.8819, 1.316563
821.3640, 1.246666
821.8461, 1.119614
822.3282, 0.9798810
822.8104, 0.9150730
823.2925, 0.9387470
823.7746, 1.009903
824.2567, 1.141670
824.7388, 1.291737
825.2209, 1.481411
825.7031, 1.653671
826.1852, 1.707581
826.6673, 1.637280
827.1494, 1.564644
827.6315, 1.606022
828.1136, 1.701752
828.5958, 1.706345
829.0779, 1.607594
829.5600, 1.490604
830.0421, 1.382431
830.5242, 1.338154
831.0063, 1.406567
831.4885, 1.553516
831.9706, 1.656689
832.4527, 1.700626
832.9348, 1.724419
833.4169, 1.697414
833.8990, 1.695320
834.3812, 1.753166
834.8633, 1.834702
835.3454, 1.915325
835.8275, 2.000458
836.3096, 2.060959
836.7917, 2.076859
837.2739, 2.075130
837.7560, 2.016483
838.2381, 1.958344
838.7202, 2.060001
839.2023, 2.302570
839.6844, 2.428288
840.1666, 2.214523
840.6487, 1.887226
841.1308, 1.912167
841.6129, 2.223110
842.0950, 2.318275
842.5771, 2.126486
843.0593, 1.967085
843.5414, 2.028080
844.0235, 2.212843
844.5056, 2.322075
844.9877, 2.327381
845.4698, 2.298552
845.9520, 2.202389
846.4341, 2.151665
846.9162, 2.192842
847.3983, 2.246061
847.8804, 2.252811
848.3625, 2.235739
848.8447, 2.236843
849.3268, 2.227470
849.8089, 2.267500
850.2910, 2.460463
850.7731, 2.679483
851.2552, 2.765844
851.7374, 2.757977
852.2195, 2.762747
852.7016, 2.799530
853.1837, 2.814722
853.6658, 2.754761
854.1479, 2.644003
854.6301, 2.574034
855.1122, 2.548378
855.5943, 2.458395
856.0764, 2.245975
856.5585, 2.040529
857.0406, 1.998360
857.5228, 2.100594
858.0049, 2.102924
858.4870, 1.932138
858.9691, 1.783602
859.4512, 1.620279
859.9333, 1.536314
860.4155, 1.654633
860.8976, 1.866322
861.3797, 1.958630
861.8618, 1.874477
862.3439, 1.794086
862.8260, 1.823246
863.3082, 1.855831
863.7903, 1.803505
864.2724, 1.696125
864.7545, 1.572388
865.2366, 1.451687
865.7188, 1.376026
866.2009, 1.389095
866.6830, 1.445171
867.1651, 1.439510
867.6472, 1.390480
868.1293, 1.431690
868.6115, 1.587463
869.0936, 1.757946
869.5757, 1.904472
870.0578, 1.974976
870.5399, 1.840580
871.0220, 1.434196
871.5042, 1.159748
871.9863, 1.062588
872.4684, 1.027672
872.9505, 1.050018
873.4326, 1.099220
873.9147, 1.163792
874.3969, 1.236588
874.8790, 1.280071
875.3611, 1.318665
875.8432, 1.284389
876.3253, 1.088428
876.8074, 0.8649790
877.2896, 0.7113270
877.7717, 0.6321980
878.2538, 0.6133960
878.7359, 0.6490100
879.2180, 0.7163160
879.7001, 0.8502010
880.1823, 0.9736210
880.6644, 0.9004860
881.1465, 0.6794930
881.6286, 0.5252760
882.1107, 0.4944340
882.5928, 0.5250240
883.0750, 0.5708430
883.5571, 0.6195370
884.0392, 0.6531520
884.5213, 0.6997530
885.0034, 0.5274660
885.4855, 4.0034998E-02
885.9677, 0.4599990
886.4498, 0.3828620
886.9319, 4.6714999E-02
887.4140, 0.1661300
887.8961, 0.2477650
888.3782, 0.2546200
888.8604, 0.1157650
889.3425, 2.9720000E-03
889.8246, 4.2179000E-02
890.3067, 5.4485001E-02
890.7888, 9.9537000E-02
891.2709, 0.1603050
891.7531, 0.1599270
892.2352, 4.4151001E-02
892.7173, 4.9274001E-02
893.1994, 5.1380000E-03
893.6815, 9.6805997E-02
894.1636, 0.2052760
894.6458, 0.2854460
895.1279, 0.2296330
895.6100, 2.1915000E-02
896.0921, 0.1402930
896.5742, 3.6579002E-02
897.0563, 0.2204900
897.5385, 0.3285450
898.0206, 0.2979430
898.5027, 0.2557870
898.9848, 0.2213590
899.4669, 0.1964950
899.9490, 0.1767850
900.4312, 0.1810070
900.9133, 0.2686310
901.3954, 0.4880290
901.8775, 0.5538140
902.3596, 0.3415870
902.8417, 0.1889310
903.3239, 0.2718160
903.8060, 0.3993000
904.2881, 0.3536110
904.7702, 0.1735880
905.2523, 0.1188050
905.7344, 0.3664250
906.2166, 0.5252990
906.6987, 0.4509390
907.1808, 0.3048820
907.6629, 9.9972002E-02
908.1450, 5.6232002E-02
908.6271, 8.1988998E-02
909.1093, 0.5587460
909.5914, 0.9131010
910.0735, 0.7197460
910.5556, 0.3338700
911.0377, 0.1049310
911.5198, 3.4070001E-03
912.0020, 5.5755999E-02
912.4841, 7.2146997E-02
912.9662, 7.2890997E-02
913.4483, 7.1067996E-02
913.9304, 5.8940999E-02
914.4125, 1.0311000E-02
914.8947, 6.5021999E-02
915.3768, 8.6471997E-02
915.8589, 4.9183000E-02
916.3410, 1.5934000E-02
916.8231, 1.8314000E-02
917.3052, 1.0452000E-02
917.7874, 0.1692730
918.2695, 0.4331820
918.7516, 0.5217670
919.2337, 0.3273660
919.7158, 0.2147710
920.1979, 0.2644580
920.6801, 0.3435250
921.1622, 0.3420830
921.6443, 0.3386840
922.1264, 0.4943010
922.6085, 0.8521960
923.0906, 1.078167
923.5728, 0.9958340
924.0549, 0.9379200
924.5370, 1.108517
925.0191, 1.295223
925.5012, 1.232285
925.9833, 0.9989320
926.4655, 0.8955150
926.9476, 1.038750
927.4297, 1.302887
927.9118, 1.743267
928.3939, 2.145599
928.8760, 2.182381
929.3582, 1.998283
929.8403, 1.976166
930.3224, 2.191048
930.8045, 2.372452
931.2866, 2.289532
931.7687, 2.070244
932.2509, 1.917576
932.7330, 1.835911
933.2151, 1.858532
933.6972, 1.985512
934.1793, 2.173965
934.6614, 2.413307
935.1436, 2.622681
935.6257, 2.672653
936.1078, 2.573898
936.5899, 2.489594
937.0720, 2.387684
937.5541, 2.469021
938.0363, 2.911324
938.5184, 3.242050
939.0005, 2.999069
939.4826, 2.441410
939.9647, 2.322227
940.4468, 2.861076
940.9290, 3.245213
941.4111, 3.398479
941.8932, 3.501606
942.3753, 3.599846
942.8574, 3.670601
943.3395, 3.622742
943.8217, 3.496361
944.3038, 3.531570
944.7859, 3.925438
945.2680, 4.230858
945.7501, 4.207279
946.2322, 4.098915
946.7144, 4.060188
947.1965, 4.074173
947.6786, 4.076477
948.1607, 4.063461
948.6428, 4.124287
949.1249, 4.369534
949.6071, 4.646358
950.0892, 4.820904
950.5713, 4.912605
951.0534, 4.888790
951.5355, 4.796562
952.0176, 4.826332
952.4998, 5.062912
952.9819, 5.352589
953.4640, 5.527462
953.9461, 5.606579
954.4282, 5.639091
954.9103, 5.616436
955.3925, 5.555550
955.8746, 5.466805
956.3567, 5.384239
956.8388, 5.321812
957.3209, 5.311459
957.8030, 5.458294
958.2852, 5.786976
958.7673, 5.940750
959.2494, 5.857727
959.7315, 5.818466
960.2136, 5.952293
960.6957, 6.109943
961.1779, 6.124931
961.6600, 6.028759
962.1421, 6.016678
962.6242, 6.186573
963.1063, 6.259434
963.5884, 6.019646
964.0706, 5.918446
964.5527, 6.248234
965.0348, 6.738384
965.5169, 7.125278
965.9990, 7.391235
966.4811, 7.529892
966.9633, 7.456566
967.4454, 7.325851
967.9275, 7.193871
968.4096, 7.066113
968.8917, 6.858669
969.3738, 6.661194
969.8560, 6.649834
970.3381, 6.853596
970.8202, 7.073410
971.3023, 7.231766
971.7844, 7.356033
972.2665, 7.484436
972.7487, 7.573036
973.2308, 7.507259
973.7129, 7.359798
974.1950, 7.366989
974.6771, 7.618523
975.1592, 7.855534
975.6414, 7.796589
976.1235, 7.620838
976.6056, 7.575809
977.0877, 7.621986
977.5698, 7.683247
978.0519, 7.731003
978.5341, 7.687923
979.0162, 7.496758
979.4983, 7.324791
979.9804, 7.454559
980.4625, 7.808605
980.9446, 8.140980
981.4268, 8.430313
981.9089, 8.486279
982.3910, 8.256634
982.8731, 8.040882
983.3552, 8.086109
983.8373, 8.292217
984.3195, 8.430790
984.8016, 8.503654
985.2837, 8.434288
985.7658, 8.180298
986.2479, 8.016087
986.7300, 8.051159
987.2122, 8.172253
987.6943, 8.291542
988.1764, 8.389351
988.6585, 8.344929
989.1406, 8.074646
989.6227, 7.901798
990.1049, 7.839680
990.5870, 7.881634
991.0691, 8.123283
991.5512, 8.372841
992.0333, 8.357174
992.5154, 8.088253
992.9976, 7.965450
993.4797, 8.140297
993.9618, 8.229889
994.4439, 8.098877
994.9260, 8.009293
995.4081, 8.115978
995.8903, 8.321175
996.3724, 8.530701
996.8545, 8.732395
997.3366, 8.791084
997.8187, 8.575840
998.3008, 8.359058
998.7830, 8.162983
999.2651, 8.043892
999.7472, 8.106651
1000.229, 8.248840
1000.711, 8.306793
1001.194, 8.247665
1001.676, 8.110672
1002.158, 7.813549
1002.640, 7.561813
1003.122, 7.471684
1003.604, 7.488388
1004.086, 7.606785
1004.568, 7.770927
1005.050, 7.871311
1005.533, 7.874550
1006.015, 7.857178
1006.497, 7.889313
1006.979, 7.909214
1007.461, 7.781757
1007.943, 7.642452
1008.425, 7.782696
1008.907, 8.124207
1009.390, 8.288345
1009.872, 8.115490
1010.354, 7.863968
1010.836, 7.767281
1011.318, 7.765079
1011.800, 7.827663
1012.282, 7.889427
1012.764, 7.703026
1013.246, 7.306374
1013.729, 7.130032
1014.211, 7.407867
1014.693, 7.768944
1015.175, 7.664959
1015.657, 7.277340
1016.139, 7.163624
1016.621, 7.266525
1017.103, 7.270481
1017.586, 7.123726
1018.068, 7.018204
1018.550, 7.073807
1019.032, 7.224808
1019.514, 7.421234
1019.996, 7.628033
1020.478, 7.500858
1020.960, 7.053719
1021.442, 6.869595
1021.925, 7.095837
1022.407, 7.341541
1022.889, 7.332020
1023.371, 7.189632
1023.853, 7.183826
1024.335, 7.317097
1024.817, 7.211750
1025.299, 6.811607
1025.781, 6.648502
1026.264, 6.927757
1026.746, 7.118504
1027.228, 6.770123
1027.710, 6.164066
1028.192, 6.013657
1028.674, 6.414177
1029.156, 6.478420
1029.638, 6.058846
1030.120, 5.813839
1030.603, 5.967094
1031.085, 6.203579
1031.567, 6.290459
1032.049, 6.270748
1032.531, 6.263790
1033.013, 6.294777
1033.495, 6.213772
1033.977, 5.932232
1034.460, 5.731266
1034.942, 5.723564
1035.424, 5.766220
1035.906, 5.701115
1036.388, 5.588234
1036.870, 5.652256
1037.352, 6.019493
1037.834, 6.128101
1038.317, 5.739719
1038.799, 5.459599
1039.281, 5.508827
1039.763, 5.629078
1040.245, 5.665684
1040.727, 5.616196
1041.209, 5.442902
1041.691, 5.033638
1042.173, 4.860485
1042.656, 5.163502
1043.138, 5.399498
1043.620, 5.409145
1044.102, 5.322498
1044.584, 5.193295
1045.066, 5.038952
1045.548, 4.897633
1046.030, 4.766876
1046.512, 4.711056
1046.995, 4.789764
1047.477, 4.844757
1047.959, 4.831158
1048.441, 4.784515
1048.923, 4.742535
1049.405, 4.696007
1049.887, 4.580002
1050.369, 4.358547
1050.852, 4.190598
1051.334, 4.161385
1051.816, 4.128307
1052.298, 3.994251
1052.780, 3.871861
1053.262, 3.848301
1053.744, 3.903511
1054.226, 4.008148
1054.708, 4.180996
1055.191, 4.210857
1055.673, 3.933575
1056.155, 3.652611
1056.637, 3.425766
1057.119, 3.281555
1057.601, 3.311943
1058.083, 3.422657
1058.565, 3.398438
1059.047, 3.187927
1059.530, 3.057934
1060.012, 3.181656
1060.494, 3.287651
1060.976, 3.256283
1061.458, 3.161194
1061.940, 3.043076
1062.422, 2.922649
1062.904, 2.815556
1063.387, 2.725365
1063.869, 2.671112
1064.351, 2.705910
1064.833, 2.717018
1065.315, 2.616131
1065.797, 2.502079
1066.279, 2.489895
1066.761, 2.513809
1067.244, 2.428261
1067.726, 2.223297
1068.208, 2.071293
1068.690, 2.134495
1069.172, 2.141434
1069.654, 1.819355
1070.136, 1.519333
1070.618, 1.611710
1071.100, 1.897762
1071.583, 2.012787
1072.065, 1.915451
1072.547, 1.843288
1073.029, 1.982853
1073.511, 2.015034
1073.993, 1.658401
1074.475, 1.265461
1074.957, 1.089348
1075.439, 1.064396
1075.922, 1.080631
1076.404, 1.117195
1076.886, 1.197350
1077.368, 1.368736
1077.850, 1.504223
1078.332, 1.509228
1078.814, 1.483269
1079.297, 1.554428
1079.779, 1.600315
1080.261, 1.408688
1080.743, 1.024677
1081.225, 0.7416950
1081.707, 0.6857680
1082.189, 0.6472590
1082.671, 0.4767000
1083.153, 0.3634760
1083.635, 0.5172840
1084.118, 0.7434460
1084.600, 0.8040470
1085.082, 0.7045670
1085.564, 0.5924800
1086.046, 0.5245510
1086.528, 0.4194070
1087.010, 7.6866001E-02
1087.492, 0.1139030
1087.975, 0.2337000
1088.457, 0.7022550
1088.939, 0.9044230
1089.421, 0.8559190
1089.903, 0.6717680
1090.385, 0.3627360
1090.867, 0.1437640
1091.349, 0.2411420
1091.832, 0.2617030
1092.314, 0.1525500
1092.796, 0.5565950
1093.278, 0.5026780
1093.760, 0.1755490
1094.242, 4.0791001E-02
1094.724, 8.0387004E-02
1095.206, 9.0163998E-02
1095.688, 0.1062660
1096.171, 0.1145320
1096.653, 6.6432998E-02
1097.135, 5.8029000E-02
1097.617, 0.2164420
1098.099, 0.4134220
1098.581, 0.4829330
1099.063, 0.4088360
1099.545, 0.2346610
1100.027, 0.1293720
1100.510, 0.4234770
1100.992, 0.6485180
1101.474, 0.7193980
1101.956, 0.4103280
1102.438, 4.0984999E-02
1102.920, 4.5605000E-02
1103.402, 0.3562090
1103.884, 0.4856450
1104.367, 0.2757950
1104.849, 8.1672996E-02
1105.331, 0.1032220
1105.813, 0.1725120
1106.295, 4.3343000E-02
1106.777, 0.2800980
1107.259, 0.2589340
1107.741, 6.9874004E-02
1108.224, 9.9449996E-03
1108.706, 0.1646350
1109.188, 0.1954690
1109.670, 9.1430999E-02
1110.152, 0.2772140
1110.634, 0.1585770
1111.116, 1.8486001E-02
1111.598, 9.4387002E-02
1112.080, 0.2563320
1112.563, 0.2328640
1113.045, 9.4680004E-03
1113.527, 0.1479260
1114.009, 9.7267002E-02
1114.491, 8.2915999E-02
1114.973, 0.1453900
1115.455, 0.2229420
1115.937, 0.3047260
1116.419, 0.3652990
1116.902, 0.3796040
1117.384, 0.3501130
1117.866, 0.2652510
1118.348, 4.7263999E-02
1118.830, 4.4792000E-02
1119.312, 7.3527999E-02
1119.794, 0.1704670
1120.276, 0.1465190
1120.759, 9.7355001E-02
1121.241, 0.1247100
1121.723, 0.1954420
1122.205, 0.1839290
1122.687, 5.3265002E-02
1123.169, 2.2808000E-02
1123.651, 0.1525190
1124.133, 0.1743280
1124.615, 3.5858002E-02
1125.098, 0.1881680
1125.580, 4.6824999E-02
1126.062, 0.2144050
1126.544, 0.2529950
1127.026, 7.2479002E-02
1127.508, 0.1457480
1127.990, 0.4304280
1128.472, 0.5582050
1128.954, 0.4557690
1129.437, 0.3466380
1129.919, 0.3478280
1130.401, 0.3355480
1130.883, 0.1194000
1131.365, 0.1976090
1131.847, 0.1917720
1132.329, 0.1224630
1132.811, 0.6054760
1133.294, 1.233227
1133.776, 1.412163
1134.258, 0.9442710
1134.740, 0.4088250
1135.222, 0.2881510
1135.704, 0.4120220
1136.186, 0.4471890
1136.668, 0.4422680
1137.151, 0.6321870
1137.633, 0.9431920
1138.115, 0.9497950
1138.597, 0.6236950
1139.079, 0.4827310
1139.561, 0.8221240
1140.043, 1.209915
1140.525, 1.093739
1141.007, 0.6953960
1141.490, 0.3247070
1141.972, 5.1647000E-02
1142.454, 0.1045840
1142.936, 0.4108770
1143.418, 0.6587560
1143.900, 0.7406640
1144.382, 0.7501530
1144.864, 0.7410910
1145.346, 0.7213310
1145.829, 0.6759200
1146.311, 0.6436440
1146.793, 0.6875900
1147.275, 0.7829740
1147.757, 0.8919370
1148.239, 0.9949150
1148.721, 1.054165
1149.203, 1.049114
1149.686, 1.020134
1150.168, 0.9374690
1150.650, 0.8930450
1151.132, 1.057203
1151.614, 1.256212
1152.096, 1.252483
1152.578, 1.098738
1153.060, 0.9782640
1153.542, 0.9363520
1154.025, 0.8730410
1154.507, 0.6611210
1154.989, 0.5546150
1155.471, 0.7228980
1155.953, 0.9358370
1156.435, 1.104010
1156.917, 1.189335
1157.399, 1.094658
1157.881, 0.8455370
1158.364, 0.7262860
1158.846, 0.8788720
1159.328, 0.9486520
1159.810, 0.8442900
1160.292, 0.7930770
1160.774, 0.9135700
1161.256, 1.019661
1161.738, 0.9496920
1162.221, 0.7967340
1162.703, 0.7499900
1163.185, 0.8105930
1163.667, 0.8514100
1164.149, 0.8547950
1164.631, 0.9088440
1165.113, 1.072819
1165.595, 1.197977
1166.078, 1.196165
1166.560, 1.120815
1167.042, 1.045004
1167.524, 0.9803070
1168.006, 0.9199100
1168.488, 0.8605100
1168.970, 0.8495500
1169.452, 0.8911950
1169.934, 0.9192010
1170.417, 0.9139790
1170.899, 0.9769590
1171.381, 1.194487
1171.863, 1.420904
1172.345, 1.379543
1172.827, 1.140198
1173.309, 0.9036850
1173.791, 0.6955970
1174.273, 0.6601120
1174.756, 0.7803310
1175.238, 0.8519060
1175.720, 0.7995000
1176.202, 0.7505400
1176.684, 0.8118930
1177.166, 0.8985500
1177.648, 0.8970390
1178.130, 0.8766060
1178.613, 0.9791130
1179.095, 1.118530
1179.577, 1.083693
1180.059, 0.8910730
1180.541, 0.7764910
1181.023, 0.8486350
1181.505, 0.9020040
1181.987, 0.7851370
1182.469, 0.6690140
1182.952, 0.6503680
1183.434, 0.6745680
1183.916, 0.7499490
1184.398, 0.8075710
1184.880, 0.6507450
1185.362, 0.2683870
1185.844, 0.1337170
1186.326, 0.6092380
1186.808, 0.9370310
1187.291, 0.9116210
1187.773, 0.8025610
1188.255, 0.6579800
1188.737, 0.5364990
1189.219, 0.5114190
1189.701, 0.5583170
1190.183, 0.5583950
1190.665, 0.4844460
1191.148, 0.4243530
1191.630, 0.3393170
1192.112, 0.4123760
1192.594, 0.7766110
1193.076, 0.9672780
1193.558, 0.6905710
1194.040, 0.3019640
1194.522, 0.2634390
1195.005, 0.4881250
1195.487, 0.6254540
1195.969, 0.6767140
1196.451, 0.6270220
1196.933, 0.4819180
1197.415, 0.4381200
1197.897, 0.5373880
1198.379, 0.6376760
1198.861, 0.6467650
1199.344, 0.6022070
1199.826, 0.5557140
1200.308, 0.5161000
1200.790, 0.4859090
1201.272, 0.4539680
1201.754, 0.3824460
1202.236, 0.2946830
1202.718, 0.2551140
1203.200, 0.2864880
1203.683, 0.4117770
1204.165, 0.7006590
1204.647, 0.9337900
1205.129, 0.8697830
1205.611, 0.7574290
1206.093, 0.8424280
1206.575, 0.9792400
1207.057, 0.9924530
1207.540, 0.8886340
1208.022, 0.7056270
1208.504, 0.4330020
1208.986, 0.3057060
1209.468, 0.4535870
1209.950, 0.6408290
1210.432, 0.9515500
1210.914, 1.129797
1211.396, 0.9342750
1211.879, 0.6368980
1212.361, 0.5195640
1212.843, 0.5329150
1213.325, 0.4826490
1213.807, 0.3497890
1214.289, 0.2315310
1214.771, 0.1087020
1215.253, 8.0426998E-02
1215.735, 0.1737730
1216.218, 0.3440760
1216.700, 0.5964950
1217.182, 0.7921450
1217.664, 0.7379190
1218.146, 0.5183620
1218.628, 0.3975600
1219.110, 0.3556290
1219.592, 0.2449040
1220.075, 0.1005990
1220.557, 0.2113290
1221.039, 0.5902540
1221.521, 0.8327830
1222.003, 0.7083300
1222.485, 0.5194640
1222.967, 0.5784420
1223.449, 0.7267680
1223.932, 0.8499530
1224.414, 0.9011140
1224.896, 0.7503850
1225.378, 0.5260640
1225.860, 0.4239220
1226.342, 0.4764190
1226.824, 0.5891020
1227.306, 0.7958410
1227.788, 0.8771320
1228.271, 0.5935970
1228.753, 0.3749290
1229.235, 0.5014820
1229.717, 0.6737790
1230.199, 0.6246970
1230.681, 0.4818920
1231.163, 0.5103650
1231.645, 0.6983660
1232.127, 0.7959710
1232.610, 0.7679710
1233.092, 0.7402480
1233.574, 0.7351970
1234.056, 0.6699600
1234.538, 0.5118060
1235.020, 0.4286040
1235.502, 0.4934860
1235.984, 0.6335030
1236.467, 0.7541280
1236.949, 0.8418620
1237.431, 0.8708290
1237.913, 0.8771650
1238.395, 0.8510760
1238.877, 0.8153610
1239.359, 0.8639050
1239.841, 0.9764250
1240.323, 0.9731180
1240.806, 0.7160420
1241.288, 0.4767380
1241.770, 0.5676440
1242.252, 0.7574650
1242.734, 0.8742810
1243.216, 0.9197080
1243.698, 0.8422930
1244.180, 0.7067360
1244.662, 0.7031780
1245.145, 0.8507000
1245.627, 0.9533980
1246.109, 1.016960
1246.591, 0.9741230
1247.073, 0.5965160
1247.555, 0.3529260
1248.037, 0.5729710
1248.519, 0.7870730
1249.002, 0.6094340
1249.484, 0.7378710
1249.966, 0.7304590
1250.448, 0.6528590
1250.930, 0.6919290
1251.412, 0.4119340
1251.894, 0.3519690
1252.376, 0.5600700
1252.859, 0.7542690
1253.341, 0.8739320
1253.823, 0.8946340
1254.305, 0.7841430
1254.787, 0.6197830
1255.269, 0.4374580
1255.751, 0.2844640
1256.233, 0.3547610
1256.715, 0.5423340
1257.198, 0.6956180
1257.680, 0.8000340
1258.162, 0.8490240
1258.644, 0.8449290
1259.126, 0.8000280
1259.608, 0.7198470
1260.090, 0.6774620
1260.572, 0.7870220
1261.054, 0.8288310
1261.537, 0.6136590
1262.019, 0.3693010
1262.501, 0.2954750
1262.983, 0.3334080
1263.465, 0.3893170
1263.947, 0.4507940
1264.429, 0.4006960
1264.911, 0.1406100
1265.394, 7.2173998E-02
1265.876, 0.2720640
1266.358, 0.4587760
1266.840, 0.5753350
1267.322, 0.5873030
1267.804, 0.4929200
1268.286, 0.3513570
1268.768, 0.2273520
1269.250, 0.1193900
1269.733, 7.8057997E-02
1270.215, 8.6493000E-02
1270.697, 9.1642000E-02
1271.179, 9.0085998E-02
1271.661, 7.7229999E-02
1272.143, 5.5319000E-02
1272.625, 1.0426000E-02
1273.107, 4.7346000E-02
1273.589, 3.2494001E-02
1274.072, 0.1424010
1274.554, 0.3284550
1275.036, 0.4213710
1275.518, 0.4643970
1276.000, 0.4936730
1276.482, 0.4676820
1276.964, 0.2714410
1277.446, 0.3008140
1277.929, 0.2266810
1278.411, 0.1172010
1278.893, 0.2157650
1279.375, 0.1140860
1279.857, 4.1942999E-02
1280.339, 3.1900000E-02
1280.821, 5.7489000E-02
1281.303, 0.1066150
1281.786, 0.1076450
1282.268, 0.0000000E+00
##END=



