##NAMES=Metavivianite
##RRUFFID=R130545
##IDEAL CHEMISTRY=Fe^2+^Fe^3+^_2_(PO_4_)_2_(OH)_2_&#183;6H_2_O
##LOCALITY=Rapid Creek, Yukon Territory, Canada
##OWNER=RRUFF
##SOURCE=Rock Currier
##DESCRIPTION=Dull olive-green platy mass, associated with masses of brighter green acicular gormanite on brown siderite. Metavivianite is twinned around [1 -1 0].
##STATUS=The identification of this mineral is not yet confirmed.
##URL=rruff.info/R130545
8.806445e+001, 4.341462e+002
8.854657e+001, 4.336115e+002
8.902869e+001, 4.334472e+002
8.951080e+001, 4.333317e+002
8.999292e+001, 4.337151e+002
9.047504e+001, 4.353525e+002
9.095715e+001, 4.386382e+002
9.143927e+001, 4.423664e+002
9.192139e+001, 4.446831e+002
9.240350e+001, 4.456050e+002
9.288562e+001, 4.466753e+002
9.336774e+001, 4.457113e+002
9.384985e+001, 4.398842e+002
9.433197e+001, 4.290974e+002
9.481409e+001, 4.197315e+002
9.529620e+001, 4.098397e+002
9.577832e+001, 4.003842e+002
9.626044e+001, 3.915510e+002
9.674255e+001, 3.832723e+002
9.722467e+001, 3.753250e+002
9.770679e+001, 3.674769e+002
9.818890e+001, 3.603021e+002
9.867102e+001, 3.537817e+002
9.915314e+001, 3.477293e+002
9.963525e+001, 3.419073e+002
1.001174e+002, 3.361714e+002
1.005995e+002, 3.306179e+002
1.010816e+002, 3.256290e+002
1.015637e+002, 3.210759e+002
1.020458e+002, 3.171941e+002
1.025280e+002, 3.142859e+002
1.030101e+002, 3.119579e+002
1.034922e+002, 3.095576e+002
1.039743e+002, 3.065891e+002
1.044564e+002, 3.030340e+002
1.049385e+002, 3.003438e+002
1.054207e+002, 2.991670e+002
1.059028e+002, 2.980286e+002
1.063849e+002, 2.962908e+002
1.068670e+002, 2.938875e+002
1.073491e+002, 2.908400e+002
1.078312e+002, 2.867735e+002
1.083134e+002, 2.817903e+002
1.087955e+002, 2.777944e+002
1.092776e+002, 2.755555e+002
1.097597e+002, 2.742719e+002
1.102418e+002, 2.728148e+002
1.107239e+002, 2.709871e+002
1.112061e+002, 2.690761e+002
1.116882e+002, 2.672458e+002
1.121703e+002, 2.654989e+002
1.126524e+002, 2.640120e+002
1.131345e+002, 2.630765e+002
1.136166e+002, 2.626405e+002
1.140988e+002, 2.618602e+002
1.145809e+002, 2.603916e+002
1.150630e+002, 2.587147e+002
1.155451e+002, 2.569722e+002
1.160272e+002, 2.552111e+002
1.165093e+002, 2.535901e+002
1.169915e+002, 2.523897e+002
1.174736e+002, 2.519184e+002
1.179557e+002, 2.510397e+002
1.184378e+002, 2.490872e+002
1.189199e+002, 2.471291e+002
1.194020e+002, 2.459723e+002
1.198842e+002, 2.458663e+002
1.203663e+002, 2.464166e+002
1.208484e+002, 2.467318e+002
1.213305e+002, 2.468246e+002
1.218126e+002, 2.465959e+002
1.222947e+002, 2.458058e+002
1.227769e+002, 2.447473e+002
1.232590e+002, 2.438022e+002
1.237411e+002, 2.431696e+002
1.242232e+002, 2.427715e+002
1.247053e+002, 2.422200e+002
1.251874e+002, 2.414633e+002
1.256696e+002, 2.406572e+002
1.261517e+002, 2.397961e+002
1.266338e+002, 2.389109e+002
1.271159e+002, 2.381149e+002
1.275980e+002, 2.375403e+002
1.280801e+002, 2.371035e+002
1.285623e+002, 2.365106e+002
1.290444e+002, 2.356573e+002
1.295265e+002, 2.347122e+002
1.300086e+002, 2.338552e+002
1.304907e+002, 2.331175e+002
1.309728e+002, 2.323212e+002
1.314550e+002, 2.312915e+002
1.319371e+002, 2.301385e+002
1.324192e+002, 2.290025e+002
1.329013e+002, 2.278929e+002
1.333834e+002, 2.268464e+002
1.338655e+002, 2.259969e+002
1.343477e+002, 2.254976e+002
1.348298e+002, 2.249790e+002
1.353119e+002, 2.242763e+002
1.357940e+002, 2.234496e+002
1.362761e+002, 2.226080e+002
1.367582e+002, 2.218003e+002
1.372404e+002, 2.210275e+002
1.377225e+002, 2.204288e+002
1.382046e+002, 2.203303e+002
1.386867e+002, 2.201304e+002
1.391688e+002, 2.196696e+002
1.396509e+002, 2.189331e+002
1.401331e+002, 2.179537e+002
1.406152e+002, 2.166971e+002
1.410973e+002, 2.149714e+002
1.415794e+002, 2.137419e+002
1.420615e+002, 2.133317e+002
1.425436e+002, 2.130680e+002
1.430258e+002, 2.125392e+002
1.435079e+002, 2.116754e+002
1.439900e+002, 2.106695e+002
1.444721e+002, 2.097731e+002
1.449542e+002, 2.090257e+002
1.454363e+002, 2.083033e+002
1.459185e+002, 2.076254e+002
1.464006e+002, 2.069571e+002
1.468827e+002, 2.062694e+002
1.473648e+002, 2.055593e+002
1.478469e+002, 2.047978e+002
1.483290e+002, 2.038834e+002
1.488112e+002, 2.027907e+002
1.492933e+002, 2.017776e+002
1.497754e+002, 2.009245e+002
1.502575e+002, 2.002217e+002
1.507396e+002, 1.996477e+002
1.512217e+002, 1.992648e+002
1.517039e+002, 1.989400e+002
1.521860e+002, 1.984734e+002
1.526681e+002, 1.978371e+002
1.531502e+002, 1.972688e+002
1.536323e+002, 1.970470e+002
1.541144e+002, 1.971911e+002
1.545966e+002, 1.971466e+002
1.550787e+002, 1.966494e+002
1.555608e+002, 1.959565e+002
1.560429e+002, 1.951751e+002
1.565250e+002, 1.943180e+002
1.570071e+002, 1.935017e+002
1.574893e+002, 1.928969e+002
1.579714e+002, 1.925619e+002
1.584535e+002, 1.922943e+002
1.589356e+002, 1.922063e+002
1.594177e+002, 1.920821e+002
1.598998e+002, 1.916591e+002
1.603820e+002, 1.908446e+002
1.608641e+002, 1.899013e+002
1.613462e+002, 1.895039e+002
1.618283e+002, 1.904029e+002
1.623104e+002, 1.907904e+002
1.627925e+002, 1.903215e+002
1.632747e+002, 1.893619e+002
1.637568e+002, 1.882301e+002
1.642389e+002, 1.870826e+002
1.647210e+002, 1.859718e+002
1.652031e+002, 1.851383e+002
1.656852e+002, 1.847660e+002
1.661674e+002, 1.844618e+002
1.666495e+002, 1.842576e+002
1.671316e+002, 1.840749e+002
1.676137e+002, 1.837554e+002
1.680958e+002, 1.831714e+002
1.685779e+002, 1.824048e+002
1.690601e+002, 1.819682e+002
1.695422e+002, 1.821210e+002
1.700243e+002, 1.822639e+002
1.705064e+002, 1.821619e+002
1.709885e+002, 1.818445e+002
1.714706e+002, 1.814350e+002
1.719528e+002, 1.809671e+002
1.724349e+002, 1.804761e+002
1.729170e+002, 1.800920e+002
1.733991e+002, 1.799924e+002
1.738812e+002, 1.798566e+002
1.743633e+002, 1.793614e+002
1.748455e+002, 1.784960e+002
1.753276e+002, 1.776722e+002
1.758097e+002, 1.771278e+002
1.762918e+002, 1.768076e+002
1.767739e+002, 1.766347e+002
1.772560e+002, 1.767054e+002
1.777382e+002, 1.768410e+002
1.782203e+002, 1.767830e+002
1.787024e+002, 1.764927e+002
1.791845e+002, 1.761373e+002
1.796666e+002, 1.757637e+002
1.801487e+002, 1.753934e+002
1.806309e+002, 1.750688e+002
1.811130e+002, 1.748489e+002
1.815951e+002, 1.746609e+002
1.820772e+002, 1.742644e+002
1.825593e+002, 1.734430e+002
1.830414e+002, 1.727812e+002
1.835236e+002, 1.726047e+002
1.840057e+002, 1.726649e+002
1.844878e+002, 1.725993e+002
1.849699e+002, 1.721639e+002
1.854520e+002, 1.714329e+002
1.859341e+002, 1.708839e+002
1.864163e+002, 1.706343e+002
1.868984e+002, 1.704604e+002
1.873805e+002, 1.703910e+002
1.878626e+002, 1.703501e+002
1.883447e+002, 1.702096e+002
1.888268e+002, 1.698589e+002
1.893090e+002, 1.693102e+002
1.897911e+002, 1.689316e+002
1.902732e+002, 1.689526e+002
1.907553e+002, 1.689123e+002
1.912374e+002, 1.686117e+002
1.917195e+002, 1.681427e+002
1.922017e+002, 1.677529e+002
1.926838e+002, 1.676652e+002
1.931659e+002, 1.679073e+002
1.936480e+002, 1.677169e+002
1.941301e+002, 1.666947e+002
1.946122e+002, 1.657269e+002
1.950944e+002, 1.651900e+002
1.955765e+002, 1.650525e+002
1.960586e+002, 1.651105e+002
1.965407e+002, 1.652572e+002
1.970228e+002, 1.654878e+002
1.975049e+002, 1.653906e+002
1.979871e+002, 1.646021e+002
1.984692e+002, 1.638152e+002
1.989513e+002, 1.635374e+002
1.994334e+002, 1.637479e+002
1.999155e+002, 1.639820e+002
2.003976e+002, 1.638651e+002
2.008798e+002, 1.634035e+002
2.013619e+002, 1.629789e+002
2.018440e+002, 1.625184e+002
2.023261e+002, 1.621542e+002
2.028082e+002, 1.621136e+002
2.032903e+002, 1.624245e+002
2.037725e+002, 1.626461e+002
2.042546e+002, 1.623544e+002
2.047367e+002, 1.616914e+002
2.052188e+002, 1.610557e+002
2.057009e+002, 1.604947e+002
2.061830e+002, 1.600088e+002
2.066652e+002, 1.595804e+002
2.071473e+002, 1.591885e+002
2.076294e+002, 1.589418e+002
2.081115e+002, 1.591495e+002
2.085936e+002, 1.595299e+002
2.090757e+002, 1.596077e+002
2.095579e+002, 1.589892e+002
2.100400e+002, 1.580484e+002
2.105221e+002, 1.575787e+002
2.110042e+002, 1.577716e+002
2.114863e+002, 1.580098e+002
2.119685e+002, 1.580878e+002
2.124506e+002, 1.579939e+002
2.129327e+002, 1.576655e+002
2.134148e+002, 1.569732e+002
2.138969e+002, 1.560724e+002
2.143790e+002, 1.554594e+002
2.148612e+002, 1.552603e+002
2.153433e+002, 1.551620e+002
2.158254e+002, 1.550065e+002
2.163075e+002, 1.548718e+002
2.167896e+002, 1.549108e+002
2.172717e+002, 1.552807e+002
2.177539e+002, 1.558358e+002
2.182360e+002, 1.558872e+002
2.187181e+002, 1.549688e+002
2.192002e+002, 1.541322e+002
2.196823e+002, 1.536596e+002
2.201644e+002, 1.534171e+002
2.206466e+002, 1.532019e+002
2.211287e+002, 1.528860e+002
2.216108e+002, 1.525112e+002
2.220929e+002, 1.523257e+002
2.225750e+002, 1.526643e+002
2.230571e+002, 1.528254e+002
2.235393e+002, 1.525643e+002
2.240214e+002, 1.520786e+002
2.245035e+002, 1.516751e+002
2.249856e+002, 1.515501e+002
2.254677e+002, 1.516337e+002
2.259498e+002, 1.514827e+002
2.264320e+002, 1.506766e+002
2.269141e+002, 1.500918e+002
2.273962e+002, 1.499957e+002
2.278783e+002, 1.501958e+002
2.283604e+002, 1.503949e+002
2.288425e+002, 1.504246e+002
2.293247e+002, 1.503100e+002
2.298068e+002, 1.501920e+002
2.302889e+002, 1.500452e+002
2.307710e+002, 1.499230e+002
2.312531e+002, 1.499268e+002
2.317352e+002, 1.499542e+002
2.322174e+002, 1.497954e+002
2.326995e+002, 1.493131e+002
2.331816e+002, 1.486097e+002
2.336637e+002, 1.481486e+002
2.341458e+002, 1.480450e+002
2.346279e+002, 1.479958e+002
2.351101e+002, 1.479792e+002
2.355922e+002, 1.479625e+002
2.360743e+002, 1.478697e+002
2.365564e+002, 1.476517e+002
2.370385e+002, 1.473562e+002
2.375206e+002, 1.471497e+002
2.380028e+002, 1.471003e+002
2.384849e+002, 1.470142e+002
2.389670e+002, 1.468066e+002
2.394491e+002, 1.465160e+002
2.399312e+002, 1.462147e+002
2.404133e+002, 1.459210e+002
2.408955e+002, 1.456595e+002
2.413776e+002, 1.454835e+002
2.418597e+002, 1.454056e+002
2.423418e+002, 1.453607e+002
2.428239e+002, 1.453756e+002
2.433060e+002, 1.454096e+002
2.437882e+002, 1.453499e+002
2.442703e+002, 1.451549e+002
2.447524e+002, 1.448447e+002
2.452345e+002, 1.444329e+002
2.457166e+002, 1.438906e+002
2.461987e+002, 1.434057e+002
2.466809e+002, 1.430899e+002
2.471630e+002, 1.429092e+002
2.476451e+002, 1.427607e+002
2.481272e+002, 1.426515e+002
2.486093e+002, 1.425161e+002
2.490914e+002, 1.422514e+002
2.495736e+002, 1.418546e+002
2.500557e+002, 1.415016e+002
2.505378e+002, 1.413776e+002
2.510199e+002, 1.414030e+002
2.515020e+002, 1.412191e+002
2.519841e+002, 1.406194e+002
2.524663e+002, 1.399852e+002
2.529484e+002, 1.396525e+002
2.534305e+002, 1.395982e+002
2.539126e+002, 1.396221e+002
2.543947e+002, 1.396486e+002
2.548768e+002, 1.396675e+002
2.553590e+002, 1.396343e+002
2.558411e+002, 1.395652e+002
2.563232e+002, 1.394023e+002
2.568053e+002, 1.390209e+002
2.572874e+002, 1.384992e+002
2.577695e+002, 1.381183e+002
2.582516e+002, 1.381945e+002
2.587338e+002, 1.386103e+002
2.592159e+002, 1.387077e+002
2.596980e+002, 1.383019e+002
2.601801e+002, 1.378047e+002
2.606622e+002, 1.374238e+002
2.611443e+002, 1.371325e+002
2.616265e+002, 1.368712e+002
2.621086e+002, 1.366249e+002
2.625907e+002, 1.363817e+002
2.630728e+002, 1.360767e+002
2.635549e+002, 1.356166e+002
2.640370e+002, 1.352421e+002
2.645192e+002, 1.351005e+002
2.650013e+002, 1.350881e+002
2.654834e+002, 1.350381e+002
2.659655e+002, 1.348577e+002
2.664476e+002, 1.345755e+002
2.669297e+002, 1.342940e+002
2.674119e+002, 1.340565e+002
2.678940e+002, 1.337430e+002
2.683761e+002, 1.332201e+002
2.688582e+002, 1.326446e+002
2.693403e+002, 1.322289e+002
2.698224e+002, 1.321008e+002
2.703046e+002, 1.321373e+002
2.707867e+002, 1.319764e+002
2.712688e+002, 1.314243e+002
2.717509e+002, 1.310261e+002
2.722330e+002, 1.310373e+002
2.727151e+002, 1.311678e+002
2.731973e+002, 1.310987e+002
2.736794e+002, 1.306972e+002
2.741615e+002, 1.301393e+002
2.746436e+002, 1.298115e+002
2.751257e+002, 1.298880e+002
2.756078e+002, 1.298539e+002
2.760900e+002, 1.295042e+002
2.765721e+002, 1.291162e+002
2.770542e+002, 1.289662e+002
2.775363e+002, 1.291208e+002
2.780184e+002, 1.293683e+002
2.785005e+002, 1.293279e+002
2.789827e+002, 1.288016e+002
2.794648e+002, 1.284277e+002
2.799469e+002, 1.283620e+002
2.804290e+002, 1.283457e+002
2.809111e+002, 1.282104e+002
2.813932e+002, 1.279261e+002
2.818754e+002, 1.275708e+002
2.823575e+002, 1.272437e+002
2.828396e+002, 1.269592e+002
2.833217e+002, 1.266635e+002
2.838038e+002, 1.262622e+002
2.842859e+002, 1.259275e+002
2.847681e+002, 1.258434e+002
2.852502e+002, 1.259581e+002
2.857323e+002, 1.260142e+002
2.862144e+002, 1.257055e+002
2.866965e+002, 1.249184e+002
2.871786e+002, 1.244264e+002
2.876608e+002, 1.244091e+002
2.881429e+002, 1.244866e+002
2.886250e+002, 1.246326e+002
2.891071e+002, 1.247596e+002
2.895892e+002, 1.247012e+002
2.900714e+002, 1.243003e+002
2.905535e+002, 1.235530e+002
2.910356e+002, 1.228587e+002
2.915177e+002, 1.219954e+002
2.919998e+002, 1.214185e+002
2.924819e+002, 1.215123e+002
2.929641e+002, 1.219717e+002
2.934462e+002, 1.222010e+002
2.939283e+002, 1.217878e+002
2.944104e+002, 1.208650e+002
2.948925e+002, 1.203327e+002
2.953746e+002, 1.206065e+002
2.958568e+002, 1.208312e+002
2.963389e+002, 1.209425e+002
2.968210e+002, 1.209210e+002
2.973031e+002, 1.207190e+002
2.977852e+002, 1.203093e+002
2.982673e+002, 1.197798e+002
2.987495e+002, 1.193973e+002
2.992316e+002, 1.192854e+002
2.997137e+002, 1.191753e+002
3.001958e+002, 1.190778e+002
3.006779e+002, 1.189653e+002
3.011600e+002, 1.188035e+002
3.016422e+002, 1.185826e+002
3.021243e+002, 1.183304e+002
3.026064e+002, 1.180950e+002
3.030885e+002, 1.178519e+002
3.035706e+002, 1.176781e+002
3.040527e+002, 1.176402e+002
3.045349e+002, 1.176212e+002
3.050170e+002, 1.175490e+002
3.054991e+002, 1.174041e+002
3.059812e+002, 1.171913e+002
3.064633e+002, 1.169074e+002
3.069454e+002, 1.165199e+002
3.074276e+002, 1.161775e+002
3.079097e+002, 1.159158e+002
3.083918e+002, 1.156646e+002
3.088739e+002, 1.153574e+002
3.093560e+002, 1.150145e+002
3.098381e+002, 1.147321e+002
3.103203e+002, 1.146049e+002
3.108024e+002, 1.146497e+002
3.112845e+002, 1.145974e+002
3.117666e+002, 1.143715e+002
3.122487e+002, 1.141424e+002
3.127308e+002, 1.139919e+002
3.132130e+002, 1.138838e+002
3.136951e+002, 1.137405e+002
3.141772e+002, 1.135158e+002
3.146593e+002, 1.132085e+002
3.151414e+002, 1.128156e+002
3.156235e+002, 1.120942e+002
3.161057e+002, 1.115644e+002
3.165878e+002, 1.114247e+002
3.170699e+002, 1.114943e+002
3.175520e+002, 1.115401e+002
3.180341e+002, 1.114574e+002
3.185162e+002, 1.112814e+002
3.189984e+002, 1.111031e+002
3.194805e+002, 1.109346e+002
3.199626e+002, 1.107466e+002
3.204447e+002, 1.105053e+002
3.209268e+002, 1.102634e+002
3.214089e+002, 1.100613e+002
3.218911e+002, 1.099124e+002
3.223732e+002, 1.098201e+002
3.228553e+002, 1.098062e+002
3.233374e+002, 1.099826e+002
3.238195e+002, 1.099463e+002
3.243016e+002, 1.096061e+002
3.247838e+002, 1.091578e+002
3.252659e+002, 1.086546e+002
3.257480e+002, 1.081410e+002
3.262301e+002, 1.077191e+002
3.267122e+002, 1.075016e+002
3.271943e+002, 1.075229e+002
3.276765e+002, 1.074664e+002
3.281586e+002, 1.073275e+002
3.286407e+002, 1.071267e+002
3.291228e+002, 1.068256e+002
3.296049e+002, 1.064660e+002
3.300870e+002, 1.061297e+002
3.305692e+002, 1.058725e+002
3.310513e+002, 1.056858e+002
3.315334e+002, 1.055072e+002
3.320155e+002, 1.054719e+002
3.324976e+002, 1.052857e+002
3.329797e+002, 1.047229e+002
3.334619e+002, 1.040429e+002
3.339440e+002, 1.036183e+002
3.344261e+002, 1.036163e+002
3.349082e+002, 1.038290e+002
3.353904e+002, 1.037384e+002
3.358725e+002, 1.029567e+002
3.363546e+002, 1.024850e+002
3.368367e+002, 1.025207e+002
3.373188e+002, 1.027490e+002
3.378009e+002, 1.030031e+002
3.382831e+002, 1.032064e+002
3.387652e+002, 1.032571e+002
3.392473e+002, 1.029801e+002
3.397294e+002, 1.022107e+002
3.402115e+002, 1.016247e+002
3.406936e+002, 1.012636e+002
3.411758e+002, 1.010191e+002
3.416579e+002, 1.009139e+002
3.421400e+002, 1.008925e+002
3.426221e+002, 1.008146e+002
3.431042e+002, 1.005335e+002
3.435863e+002, 1.000496e+002
3.440685e+002, 9.976237e+001
3.445506e+002, 9.996198e+001
3.450327e+002, 1.000730e+002
3.455148e+002, 9.993501e+001
3.459969e+002, 9.963055e+001
3.464790e+002, 9.928291e+001
3.469612e+002, 9.894874e+001
3.474433e+002, 9.865292e+001
3.479254e+002, 9.848093e+001
3.484075e+002, 9.855203e+001
3.488896e+002, 9.855590e+001
3.493717e+002, 9.845880e+001
3.498539e+002, 9.828032e+001
3.503360e+002, 9.800317e+001
3.508181e+002, 9.763220e+001
3.513002e+002, 9.725209e+001
3.517823e+002, 9.699999e+001
3.522644e+002, 9.692360e+001
3.527466e+002, 9.682127e+001
3.532287e+002, 9.672335e+001
3.537108e+002, 9.656306e+001
3.541929e+002, 9.625137e+001
3.546750e+002, 9.582216e+001
3.551571e+002, 9.541560e+001
3.556393e+002, 9.513536e+001
3.561214e+002, 9.498070e+001
3.566035e+002, 9.499265e+001
3.570856e+002, 9.542297e+001
3.575677e+002, 9.571589e+001
3.580498e+002, 9.562138e+001
3.585320e+002, 9.527027e+001
3.590141e+002, 9.487422e+001
3.594962e+002, 9.452054e+001
3.599783e+002, 9.423563e+001
3.604604e+002, 9.413228e+001
3.609425e+002, 9.433777e+001
3.614247e+002, 9.442311e+001
3.619068e+002, 9.417908e+001
3.623889e+002, 9.381181e+001
3.628710e+002, 9.346387e+001
3.633531e+002, 9.316915e+001
3.638352e+002, 9.299088e+001
3.643174e+002, 9.308304e+001
3.647995e+002, 9.348936e+001
3.652816e+002, 9.370969e+001
3.657637e+002, 9.349101e+001
3.662458e+002, 9.320261e+001
3.667279e+002, 9.312953e+001
3.672101e+002, 9.324052e+001
3.676922e+002, 9.327012e+001
3.681743e+002, 9.293813e+001
3.686564e+002, 9.234592e+001
3.691385e+002, 9.197704e+001
3.696206e+002, 9.192643e+001
3.701028e+002, 9.194782e+001
3.705849e+002, 9.194783e+001
3.710670e+002, 9.190727e+001
3.715491e+002, 9.177187e+001
3.720312e+002, 9.144524e+001
3.725133e+002, 9.109209e+001
3.729955e+002, 9.098784e+001
3.734776e+002, 9.116405e+001
3.739597e+002, 9.128318e+001
3.744418e+002, 9.115981e+001
3.749239e+002, 9.092642e+001
3.754060e+002, 9.075671e+001
3.758882e+002, 9.067940e+001
3.763703e+002, 9.060139e+001
3.768524e+002, 9.044811e+001
3.773345e+002, 9.023707e+001
3.778166e+002, 9.004078e+001
3.782987e+002, 8.988049e+001
3.787809e+002, 8.973027e+001
3.792630e+002, 8.955177e+001
3.797451e+002, 8.934931e+001
3.802272e+002, 8.917507e+001
3.807093e+002, 8.903224e+001
3.811914e+002, 8.893392e+001
3.816736e+002, 8.893478e+001
3.821557e+002, 8.904433e+001
3.826378e+002, 8.910440e+001
3.831199e+002, 8.895372e+001
3.836020e+002, 8.865623e+001
3.840841e+002, 8.850757e+001
3.845663e+002, 8.863322e+001
3.850484e+002, 8.878823e+001
3.855305e+002, 8.880914e+001
3.860126e+002, 8.873978e+001
3.864947e+002, 8.873290e+001
3.869768e+002, 8.887033e+001
3.874590e+002, 8.906490e+001
3.879411e+002, 8.912959e+001
3.884232e+002, 8.905854e+001
3.889053e+002, 8.891671e+001
3.893874e+002, 8.860950e+001
3.898695e+002, 8.828920e+001
3.903517e+002, 8.816922e+001
3.908338e+002, 8.828030e+001
3.913159e+002, 8.841800e+001
3.917980e+002, 8.834508e+001
3.922801e+002, 8.801505e+001
3.927622e+002, 8.794141e+001
3.932444e+002, 8.847575e+001
3.937265e+002, 8.891063e+001
3.942086e+002, 8.880094e+001
3.946907e+002, 8.828686e+001
3.951728e+002, 8.776089e+001
3.956549e+002, 8.744603e+001
3.961371e+002, 8.731006e+001
3.966192e+002, 8.723682e+001
3.971013e+002, 8.718892e+001
3.975834e+002, 8.725647e+001
3.980655e+002, 8.753804e+001
3.985476e+002, 8.789178e+001
3.990298e+002, 8.822650e+001
3.995119e+002, 8.849802e+001
3.999940e+002, 8.862617e+001
4.004761e+002, 8.846658e+001
4.009582e+002, 8.787337e+001
4.014403e+002, 8.751010e+001
4.019225e+002, 8.754345e+001
4.024046e+002, 8.761759e+001
4.028867e+002, 8.755567e+001
4.033688e+002, 8.739596e+001
4.038509e+002, 8.726933e+001
4.043330e+002, 8.726421e+001
4.048152e+002, 8.736810e+001
4.052973e+002, 8.751602e+001
4.057794e+002, 8.778373e+001
4.062615e+002, 8.797842e+001
4.067436e+002, 8.806162e+001
4.072257e+002, 8.806467e+001
4.077079e+002, 8.798229e+001
4.081900e+002, 8.781843e+001
4.086721e+002, 8.767535e+001
4.091542e+002, 8.776346e+001
4.096363e+002, 8.817277e+001
4.101184e+002, 8.829839e+001
4.106006e+002, 8.770231e+001
4.110827e+002, 8.714605e+001
4.115648e+002, 8.708638e+001
4.120469e+002, 8.742315e+001
4.125290e+002, 8.774810e+001
4.130111e+002, 8.779088e+001
4.134933e+002, 8.762376e+001
4.139754e+002, 8.746455e+001
4.144575e+002, 8.730078e+001
4.149396e+002, 8.718024e+001
4.154217e+002, 8.718721e+001
4.159038e+002, 8.722795e+001
4.163860e+002, 8.717134e+001
4.168681e+002, 8.695043e+001
4.173502e+002, 8.674974e+001
4.178323e+002, 8.678143e+001
4.183144e+002, 8.701707e+001
4.187965e+002, 8.722195e+001
4.192787e+002, 8.736182e+001
4.197608e+002, 8.741464e+001
4.202429e+002, 8.729601e+001
4.207250e+002, 8.702518e+001
4.212071e+002, 8.687337e+001
4.216892e+002, 8.707175e+001
4.221714e+002, 8.737646e+001
4.226535e+002, 8.743796e+001
4.231356e+002, 8.723029e+001
4.236177e+002, 8.696834e+001
4.240998e+002, 8.674068e+001
4.245819e+002, 8.658737e+001
4.250641e+002, 8.663218e+001
4.255462e+002, 8.710420e+001
4.260283e+002, 8.748388e+001
4.265104e+002, 8.750273e+001
4.269925e+002, 8.727969e+001
4.274746e+002, 8.701241e+001
4.279568e+002, 8.675590e+001
4.284389e+002, 8.655738e+001
4.289210e+002, 8.649745e+001
4.294031e+002, 8.665126e+001
4.298852e+002, 8.673919e+001
4.303673e+002, 8.678445e+001
4.308495e+002, 8.674625e+001
4.313316e+002, 8.651292e+001
4.318137e+002, 8.614639e+001
4.322958e+002, 8.587634e+001
4.327779e+002, 8.587879e+001
4.332600e+002, 8.611655e+001
4.337422e+002, 8.628712e+001
4.342243e+002, 8.642954e+001
4.347064e+002, 8.645025e+001
4.351885e+002, 8.623447e+001
4.356706e+002, 8.593742e+001
4.361527e+002, 8.571627e+001
4.366349e+002, 8.562043e+001
4.371170e+002, 8.560846e+001
4.375991e+002, 8.564172e+001
4.380812e+002, 8.575648e+001
4.385633e+002, 8.578086e+001
4.390454e+002, 8.566943e+001
4.395276e+002, 8.550797e+001
4.400097e+002, 8.522782e+001
4.404918e+002, 8.492513e+001
4.409739e+002, 8.481944e+001
4.414560e+002, 8.511227e+001
4.419381e+002, 8.561214e+001
4.424203e+002, 8.571790e+001
4.429024e+002, 8.524757e+001
4.433845e+002, 8.486812e+001
4.438666e+002, 8.487777e+001
4.443487e+002, 8.500471e+001
4.448308e+002, 8.506676e+001
4.453130e+002, 8.503138e+001
4.457951e+002, 8.488133e+001
4.462772e+002, 8.444411e+001
4.467593e+002, 8.382746e+001
4.472414e+002, 8.365712e+001
4.477235e+002, 8.417059e+001
4.482057e+002, 8.478707e+001
4.486878e+002, 8.508777e+001
4.491699e+002, 8.515537e+001
4.496520e+002, 8.514700e+001
4.501341e+002, 8.512413e+001
4.506162e+002, 8.502133e+001
4.510984e+002, 8.467382e+001
4.515805e+002, 8.414078e+001
4.520626e+002, 8.379975e+001
4.525447e+002, 8.381971e+001
4.530268e+002, 8.408730e+001
4.535089e+002, 8.447336e+001
4.539911e+002, 8.507010e+001
4.544732e+002, 8.538525e+001
4.549553e+002, 8.510883e+001
4.554374e+002, 8.461246e+001
4.559195e+002, 8.426392e+001
4.564016e+002, 8.410429e+001
4.568838e+002, 8.401897e+001
4.573659e+002, 8.391896e+001
4.578480e+002, 8.380714e+001
4.583301e+002, 8.373650e+001
4.588122e+002, 8.369303e+001
4.592943e+002, 8.369904e+001
4.597765e+002, 8.380098e+001
4.602586e+002, 8.394073e+001
4.607407e+002, 8.405183e+001
4.612228e+002, 8.410979e+001
4.617049e+002, 8.411961e+001
4.621870e+002, 8.409120e+001
4.626692e+002, 8.403686e+001
4.631513e+002, 8.390175e+001
4.636334e+002, 8.343131e+001
4.641155e+002, 8.313293e+001
4.645976e+002, 8.339144e+001
4.650797e+002, 8.399138e+001
4.655619e+002, 8.445063e+001
4.660440e+002, 8.447767e+001
4.665261e+002, 8.417793e+001
4.670082e+002, 8.379568e+001
4.674903e+002, 8.323872e+001
4.679724e+002, 8.284932e+001
4.684546e+002, 8.282242e+001
4.689367e+002, 8.292180e+001
4.694188e+002, 8.301765e+001
4.699009e+002, 8.308689e+001
4.703830e+002, 8.310416e+001
4.708651e+002, 8.301169e+001
4.713473e+002, 8.284694e+001
4.718294e+002, 8.275792e+001
4.723115e+002, 8.277534e+001
4.727936e+002, 8.279686e+001
4.732757e+002, 8.276734e+001
4.737578e+002, 8.269276e+001
4.742400e+002, 8.258736e+001
4.747221e+002, 8.248814e+001
4.752042e+002, 8.230098e+001
4.756863e+002, 8.184528e+001
4.761684e+002, 8.124223e+001
4.766505e+002, 8.087986e+001
4.771327e+002, 8.090063e+001
4.776148e+002, 8.105196e+001
4.780969e+002, 8.102874e+001
4.785790e+002, 8.080981e+001
4.790611e+002, 8.053879e+001
4.795432e+002, 8.010854e+001
4.800254e+002, 7.972978e+001
4.805075e+002, 7.957426e+001
4.809896e+002, 7.958922e+001
4.814717e+002, 7.961192e+001
4.819538e+002, 7.955688e+001
4.824359e+002, 7.943596e+001
4.829181e+002, 7.927874e+001
4.834002e+002, 7.898167e+001
4.838823e+002, 7.880482e+001
4.843644e+002, 7.889659e+001
4.848465e+002, 7.899404e+001
4.853286e+002, 7.889067e+001
4.858108e+002, 7.859004e+001
4.862929e+002, 7.823673e+001
4.867750e+002, 7.795054e+001
4.872571e+002, 7.772275e+001
4.877392e+002, 7.745696e+001
4.882213e+002, 7.706113e+001
4.887035e+002, 7.678443e+001
4.891856e+002, 7.676462e+001
4.896677e+002, 7.684093e+001
4.901498e+002, 7.685875e+001
4.906319e+002, 7.678010e+001
4.911140e+002, 7.664328e+001
4.915962e+002, 7.646291e+001
4.920783e+002, 7.624687e+001
4.925604e+002, 7.606838e+001
4.930425e+002, 7.594453e+001
4.935246e+002, 7.584087e+001
4.940067e+002, 7.578939e+001
4.944889e+002, 7.573910e+001
4.949710e+002, 7.555234e+001
4.954531e+002, 7.509005e+001
4.959352e+002, 7.460820e+001
4.964173e+002, 7.430157e+001
4.968994e+002, 7.414571e+001
4.973816e+002, 7.407308e+001
4.978637e+002, 7.408714e+001
4.983458e+002, 7.409188e+001
4.988279e+002, 7.392391e+001
4.993100e+002, 7.352776e+001
4.997921e+002, 7.324145e+001
5.002743e+002, 7.324320e+001
5.007564e+002, 7.322519e+001
5.012385e+002, 7.293505e+001
5.017206e+002, 7.244193e+001
5.022027e+002, 7.198940e+001
5.026848e+002, 7.171746e+001
5.031670e+002, 7.156649e+001
5.036491e+002, 7.136092e+001
5.041312e+002, 7.100362e+001
5.046133e+002, 7.075211e+001
5.050954e+002, 7.068996e+001
5.055775e+002, 7.066498e+001
5.060597e+002, 7.060512e+001
5.065418e+002, 7.048782e+001
5.070239e+002, 7.029038e+001
5.075060e+002, 6.997144e+001
5.079881e+002, 6.956673e+001
5.084702e+002, 6.924796e+001
5.089524e+002, 6.903455e+001
5.094345e+002, 6.886501e+001
5.099166e+002, 6.874500e+001
5.103987e+002, 6.864552e+001
5.108808e+002, 6.854168e+001
5.113629e+002, 6.842938e+001
5.118451e+002, 6.832426e+001
5.123271e+002, 6.829527e+001
5.128093e+002, 6.828144e+001
5.132914e+002, 6.805942e+001
5.137735e+002, 6.756133e+001
5.142556e+002, 6.711258e+001
5.147377e+002, 6.698321e+001
5.152198e+002, 6.708162e+001
5.157020e+002, 6.706723e+001
5.161841e+002, 6.690095e+001
5.166662e+002, 6.666570e+001
5.171483e+002, 6.632549e+001
5.176304e+002, 6.596022e+001
5.181125e+002, 6.571551e+001
5.185947e+002, 6.562473e+001
5.190768e+002, 6.558833e+001
5.195589e+002, 6.549914e+001
5.200410e+002, 6.534946e+001
5.205231e+002, 6.521607e+001
5.210052e+002, 6.508144e+001
5.214874e+002, 6.497958e+001
5.219695e+002, 6.494461e+001
5.224516e+002, 6.494070e+001
5.229337e+002, 6.492818e+001
5.234158e+002, 6.489050e+001
5.238979e+002, 6.481658e+001
5.243801e+002, 6.467703e+001
5.248622e+002, 6.445490e+001
5.253443e+002, 6.426273e+001
5.258264e+002, 6.415923e+001
5.263085e+002, 6.402347e+001
5.267906e+002, 6.376236e+001
5.272728e+002, 6.343940e+001
5.277549e+002, 6.317443e+001
5.282370e+002, 6.301846e+001
5.287191e+002, 6.293225e+001
5.292012e+002, 6.289384e+001
5.296833e+002, 6.289696e+001
5.301655e+002, 6.283282e+001
5.306476e+002, 6.262170e+001
5.311297e+002, 6.242180e+001
5.316118e+002, 6.249698e+001
5.320939e+002, 6.279692e+001
5.325760e+002, 6.290219e+001
5.330582e+002, 6.252128e+001
5.335403e+002, 6.209464e+001
5.340224e+002, 6.198584e+001
5.345045e+002, 6.211883e+001
5.349866e+002, 6.223967e+001
5.354688e+002, 6.223918e+001
5.359509e+002, 6.216380e+001
5.364330e+002, 6.209845e+001
5.369151e+002, 6.205796e+001
5.373972e+002, 6.199185e+001
5.378793e+002, 6.180331e+001
5.383615e+002, 6.168070e+001
5.388436e+002, 6.182467e+001
5.393257e+002, 6.211522e+001
5.398078e+002, 6.225480e+001
5.402899e+002, 6.206340e+001
5.407720e+002, 6.169872e+001
5.412542e+002, 6.153517e+001
5.417363e+002, 6.163935e+001
5.422184e+002, 6.172048e+001
5.427005e+002, 6.170149e+001
5.431826e+002, 6.167560e+001
5.436647e+002, 6.172618e+001
5.441469e+002, 6.182492e+001
5.446290e+002, 6.185188e+001
5.451111e+002, 6.165687e+001
5.455932e+002, 6.142188e+001
5.460753e+002, 6.148810e+001
5.465574e+002, 6.184162e+001
5.470396e+002, 6.206863e+001
5.475217e+002, 6.197486e+001
5.480038e+002, 6.173521e+001
5.484859e+002, 6.162809e+001
5.489680e+002, 6.166677e+001
5.494501e+002, 6.166496e+001
5.499323e+002, 6.147615e+001
5.504144e+002, 6.132588e+001
5.508965e+002, 6.145352e+001
5.513786e+002, 6.178990e+001
5.518607e+002, 6.207991e+001
5.523428e+002, 6.218750e+001
5.528250e+002, 6.215969e+001
5.533071e+002, 6.210863e+001
5.537892e+002, 6.201579e+001
5.542713e+002, 6.193254e+001
5.547534e+002, 6.182173e+001
5.552355e+002, 6.175233e+001
5.557177e+002, 6.179416e+001
5.561998e+002, 6.191220e+001
5.566819e+002, 6.201218e+001
5.571640e+002, 6.203664e+001
5.576461e+002, 6.201213e+001
5.581282e+002, 6.200883e+001
5.586104e+002, 6.204193e+001
5.590925e+002, 6.199368e+001
5.595746e+002, 6.177868e+001
5.600567e+002, 6.152695e+001
5.605388e+002, 6.133939e+001
5.610209e+002, 6.121544e+001
5.615031e+002, 6.114309e+001
5.619852e+002, 6.119166e+001
5.624673e+002, 6.123800e+001
5.629494e+002, 6.108536e+001
5.634315e+002, 6.079122e+001
5.639136e+002, 6.067939e+001
5.643958e+002, 6.092763e+001
5.648779e+002, 6.127178e+001
5.653600e+002, 6.122095e+001
5.658421e+002, 6.050121e+001
5.663242e+002, 6.019134e+001
5.668063e+002, 6.067248e+001
5.672885e+002, 6.119379e+001
5.677706e+002, 6.135566e+001
5.682527e+002, 6.122504e+001
5.687348e+002, 6.098343e+001
5.692169e+002, 6.071482e+001
5.696990e+002, 6.046935e+001
5.701812e+002, 6.037284e+001
5.706633e+002, 6.048870e+001
5.711454e+002, 6.049130e+001
5.716275e+002, 6.015467e+001
5.721096e+002, 5.991241e+001
5.725917e+002, 6.010070e+001
5.730739e+002, 6.054049e+001
5.735560e+002, 6.079753e+001
5.740381e+002, 6.063289e+001
5.745202e+002, 6.035533e+001
5.750023e+002, 6.034535e+001
5.754844e+002, 6.054699e+001
5.759666e+002, 6.062049e+001
5.764487e+002, 6.044345e+001
5.769308e+002, 6.025213e+001
5.774129e+002, 6.035362e+001
5.778950e+002, 6.075224e+001
5.783771e+002, 6.087865e+001
5.788593e+002, 6.048624e+001
5.793414e+002, 6.007264e+001
5.798235e+002, 5.979777e+001
5.803056e+002, 5.966832e+001
5.807877e+002, 5.972594e+001
5.812698e+002, 5.996916e+001
5.817520e+002, 6.025963e+001
5.822341e+002, 6.044098e+001
5.827162e+002, 6.052109e+001
5.831984e+002, 6.041676e+001
5.836805e+002, 5.990179e+001
5.841626e+002, 5.948319e+001
5.846447e+002, 5.935649e+001
5.851268e+002, 5.937370e+001
5.856089e+002, 5.934868e+001
5.860911e+002, 5.923091e+001
5.865732e+002, 5.912211e+001
5.870553e+002, 5.915247e+001
5.875374e+002, 5.927398e+001
5.880195e+002, 5.929658e+001
5.885016e+002, 5.919444e+001
5.889838e+002, 5.904852e+001
5.894659e+002, 5.890999e+001
5.899480e+002, 5.876284e+001
5.904301e+002, 5.854480e+001
5.909122e+002, 5.812106e+001
5.913943e+002, 5.789360e+001
5.918765e+002, 5.819115e+001
5.923586e+002, 5.862145e+001
5.928407e+002, 5.872147e+001
5.933228e+002, 5.848199e+001
5.938049e+002, 5.822815e+001
5.942870e+002, 5.820648e+001
5.947692e+002, 5.835491e+001
5.952513e+002, 5.837543e+001
5.957334e+002, 5.816155e+001
5.962155e+002, 5.800753e+001
5.966976e+002, 5.803939e+001
5.971797e+002, 5.805618e+001
5.976619e+002, 5.786048e+001
5.981440e+002, 5.750457e+001
5.986261e+002, 5.724486e+001
5.991082e+002, 5.728633e+001
5.995903e+002, 5.747118e+001
6.000724e+002, 5.751362e+001
6.005546e+002, 5.741285e+001
6.010367e+002, 5.727053e+001
6.015188e+002, 5.707652e+001
6.020009e+002, 5.691540e+001
6.024830e+002, 5.694495e+001
6.029651e+002, 5.715937e+001
6.034473e+002, 5.726335e+001
6.039294e+002, 5.712592e+001
6.044115e+002, 5.695287e+001
6.048936e+002, 5.686772e+001
6.053757e+002, 5.684240e+001
6.058578e+002, 5.681324e+001
6.063400e+002, 5.675671e+001
6.068221e+002, 5.668546e+001
6.073042e+002, 5.661912e+001
6.077863e+002, 5.656269e+001
6.082684e+002, 5.648189e+001
6.087505e+002, 5.634412e+001
6.092327e+002, 5.622206e+001
6.097148e+002, 5.613242e+001
6.101969e+002, 5.607268e+001
6.106790e+002, 5.606459e+001
6.111611e+002, 5.611735e+001
6.116432e+002, 5.611555e+001
6.121254e+002, 5.588845e+001
6.126075e+002, 5.552546e+001
6.130896e+002, 5.532825e+001
6.135717e+002, 5.533587e+001
6.140538e+002, 5.537343e+001
6.145359e+002, 5.535910e+001
6.150181e+002, 5.528805e+001
6.155002e+002, 5.513918e+001
6.159823e+002, 5.485876e+001
6.164644e+002, 5.462821e+001
6.169465e+002, 5.449512e+001
6.174286e+002, 5.441832e+001
6.179108e+002, 5.436893e+001
6.183929e+002, 5.434266e+001
6.188750e+002, 5.434841e+001
6.193571e+002, 5.439500e+001
6.198392e+002, 5.446200e+001
6.203214e+002, 5.449243e+001
6.208035e+002, 5.447161e+001
6.212856e+002, 5.446146e+001
6.217677e+002, 5.454163e+001
6.222498e+002, 5.456114e+001
6.227319e+002, 5.440911e+001
6.232141e+002, 5.413494e+001
6.236962e+002, 5.385992e+001
6.241783e+002, 5.359788e+001
6.246604e+002, 5.340588e+001
6.251425e+002, 5.338471e+001
6.256246e+002, 5.348291e+001
6.261068e+002, 5.352716e+001
6.265889e+002, 5.347781e+001
6.270710e+002, 5.338564e+001
6.275531e+002, 5.328437e+001
6.280352e+002, 5.317683e+001
6.285173e+002, 5.312934e+001
6.289995e+002, 5.319115e+001
6.294816e+002, 5.324093e+001
6.299637e+002, 5.327833e+001
6.304458e+002, 5.327663e+001
6.309279e+002, 5.316406e+001
6.314100e+002, 5.296537e+001
6.318922e+002, 5.283823e+001
6.323743e+002, 5.295596e+001
6.328564e+002, 5.321281e+001
6.333385e+002, 5.318652e+001
6.338206e+002, 5.280346e+001
6.343027e+002, 5.242797e+001
6.347849e+002, 5.207301e+001
6.352670e+002, 5.185406e+001
6.357491e+002, 5.194413e+001
6.362312e+002, 5.230606e+001
6.367133e+002, 5.255204e+001
6.371954e+002, 5.246470e+001
6.376776e+002, 5.230538e+001
6.381597e+002, 5.229714e+001
6.386418e+002, 5.238298e+001
6.391239e+002, 5.241412e+001
6.396060e+002, 5.234192e+001
6.400881e+002, 5.221087e+001
6.405703e+002, 5.207119e+001
6.410524e+002, 5.192118e+001
6.415345e+002, 5.178928e+001
6.420166e+002, 5.170570e+001
6.424987e+002, 5.160582e+001
6.429808e+002, 5.143925e+001
6.434630e+002, 5.127263e+001
6.439451e+002, 5.118956e+001
6.444272e+002, 5.119812e+001
6.449093e+002, 5.120596e+001
6.453914e+002, 5.114039e+001
6.458735e+002, 5.102070e+001
6.463557e+002, 5.087392e+001
6.468378e+002, 5.069637e+001
6.473199e+002, 5.059021e+001
6.478020e+002, 5.063659e+001
6.482841e+002, 5.071954e+001
6.487662e+002, 5.064168e+001
6.492484e+002, 5.037531e+001
6.497305e+002, 5.011206e+001
6.502126e+002, 4.984765e+001
6.506947e+002, 4.960910e+001
6.511768e+002, 4.939437e+001
6.516589e+002, 4.921976e+001
6.521411e+002, 4.914539e+001
6.526232e+002, 4.918325e+001
6.531053e+002, 4.921570e+001
6.535874e+002, 4.905713e+001
6.540695e+002, 4.870453e+001
6.545516e+002, 4.850418e+001
6.550338e+002, 4.854851e+001
6.555159e+002, 4.856285e+001
6.559980e+002, 4.835862e+001
6.564801e+002, 4.809608e+001
6.569622e+002, 4.797201e+001
6.574443e+002, 4.802075e+001
6.579265e+002, 4.802486e+001
6.584086e+002, 4.780191e+001
6.588907e+002, 4.754488e+001
6.593728e+002, 4.752336e+001
6.598549e+002, 4.767966e+001
6.603370e+002, 4.772262e+001
6.608192e+002, 4.751408e+001
6.613013e+002, 4.716968e+001
6.617834e+002, 4.687563e+001
6.622655e+002, 4.660114e+001
6.627476e+002, 4.649021e+001
6.632297e+002, 4.681833e+001
6.637119e+002, 4.700599e+001
6.641940e+002, 4.674110e+001
6.646761e+002, 4.628923e+001
6.651582e+002, 4.601477e+001
6.656403e+002, 4.601384e+001
6.661224e+002, 4.608241e+001
6.666046e+002, 4.607891e+001
6.670867e+002, 4.601344e+001
6.675688e+002, 4.590771e+001
6.680509e+002, 4.576361e+001
6.685330e+002, 4.557069e+001
6.690151e+002, 4.530615e+001
6.694973e+002, 4.501609e+001
6.699794e+002, 4.479369e+001
6.704615e+002, 4.466647e+001
6.709436e+002, 4.453760e+001
6.714257e+002, 4.438464e+001
6.719078e+002, 4.425182e+001
6.723900e+002, 4.418129e+001
6.728721e+002, 4.414096e+001
6.733542e+002, 4.406334e+001
6.738363e+002, 4.392674e+001
6.743184e+002, 4.380033e+001
6.748005e+002, 4.380846e+001
6.752827e+002, 4.392596e+001
6.757648e+002, 4.388326e+001
6.762469e+002, 4.363247e+001
6.767290e+002, 4.336569e+001
6.772111e+002, 4.312412e+001
6.776932e+002, 4.295435e+001
6.781754e+002, 4.297513e+001
6.786575e+002, 4.325334e+001
6.791396e+002, 4.335600e+001
6.796217e+002, 4.301635e+001
6.801038e+002, 4.261319e+001
6.805859e+002, 4.243563e+001
6.810681e+002, 4.242596e+001
6.815502e+002, 4.243042e+001
6.820323e+002, 4.238523e+001
6.825144e+002, 4.228398e+001
6.829965e+002, 4.209103e+001
6.834786e+002, 4.179431e+001
6.839608e+002, 4.163031e+001
6.844429e+002, 4.170890e+001
6.849250e+002, 4.172260e+001
6.854071e+002, 4.146918e+001
6.858892e+002, 4.112931e+001
6.863713e+002, 4.089311e+001
6.868535e+002, 4.078233e+001
6.873356e+002, 4.069728e+001
6.878177e+002, 4.056829e+001
6.882998e+002, 4.046495e+001
6.887819e+002, 4.049103e+001
6.892640e+002, 4.060824e+001
6.897462e+002, 4.069789e+001
6.902283e+002, 4.071493e+001
6.907104e+002, 4.065175e+001
6.911925e+002, 4.047453e+001
6.916746e+002, 4.015326e+001
6.921567e+002, 3.999056e+001
6.926389e+002, 4.012962e+001
6.931210e+002, 4.023346e+001
6.936031e+002, 4.017344e+001
6.940852e+002, 4.006425e+001
6.945673e+002, 4.003891e+001
6.950494e+002, 4.010738e+001
6.955316e+002, 4.014321e+001
6.960137e+002, 4.003341e+001
6.964958e+002, 3.987417e+001
6.969779e+002, 3.979826e+001
6.974600e+002, 3.979074e+001
6.979421e+002, 3.977264e+001
6.984243e+002, 3.971613e+001
6.989064e+002, 3.964567e+001
6.993885e+002, 3.959585e+001
6.998706e+002, 3.957177e+001
7.003527e+002, 3.950246e+001
7.008348e+002, 3.935056e+001
7.013170e+002, 3.919798e+001
7.017991e+002, 3.900270e+001
7.022812e+002, 3.885115e+001
7.027633e+002, 3.883533e+001
7.032454e+002, 3.895366e+001
7.037275e+002, 3.912392e+001
7.042097e+002, 3.935632e+001
7.046918e+002, 3.955810e+001
7.051739e+002, 3.953841e+001
7.056560e+002, 3.933595e+001
7.061381e+002, 3.921355e+001
7.066202e+002, 3.925592e+001
7.071024e+002, 3.932722e+001
7.075845e+002, 3.929622e+001
7.080666e+002, 3.916321e+001
7.085487e+002, 3.898274e+001
7.090308e+002, 3.857492e+001
7.095129e+002, 3.836009e+001
7.099951e+002, 3.857811e+001
7.104772e+002, 3.887767e+001
7.109593e+002, 3.895148e+001
7.114414e+002, 3.881586e+001
7.119235e+002, 3.868906e+001
7.124056e+002, 3.871343e+001
7.128878e+002, 3.877935e+001
7.133699e+002, 3.862696e+001
7.138520e+002, 3.831906e+001
7.143341e+002, 3.840616e+001
7.148162e+002, 3.908946e+001
7.152983e+002, 3.965814e+001
7.157805e+002, 3.945610e+001
7.162626e+002, 3.865083e+001
7.167447e+002, 3.820698e+001
7.172268e+002, 3.842751e+001
7.177089e+002, 3.854999e+001
7.181910e+002, 3.848943e+001
7.186732e+002, 3.833419e+001
7.191553e+002, 3.808237e+001
7.196374e+002, 3.779520e+001
7.201195e+002, 3.759959e+001
7.206016e+002, 3.756551e+001
7.210837e+002, 3.758888e+001
7.215659e+002, 3.750678e+001
7.220480e+002, 3.735146e+001
7.225301e+002, 3.731910e+001
7.230122e+002, 3.744530e+001
7.234943e+002, 3.760099e+001
7.239764e+002, 3.774098e+001
7.244586e+002, 3.783499e+001
7.249407e+002, 3.778876e+001
7.254228e+002, 3.750000e+001
7.259049e+002, 3.732644e+001
7.263870e+002, 3.738301e+001
7.268691e+002, 3.746284e+001
7.273513e+002, 3.742896e+001
7.278334e+002, 3.734715e+001
7.283155e+002, 3.736991e+001
7.287976e+002, 3.754051e+001
7.292797e+002, 3.768425e+001
7.297618e+002, 3.757015e+001
7.302440e+002, 3.727788e+001
7.307261e+002, 3.709783e+001
7.312082e+002, 3.704185e+001
7.316903e+002, 3.701846e+001
7.321724e+002, 3.698154e+001
7.326545e+002, 3.697656e+001
7.331367e+002, 3.708833e+001
7.336188e+002, 3.735192e+001
7.341009e+002, 3.753122e+001
7.345830e+002, 3.765605e+001
7.350651e+002, 3.766416e+001
7.355472e+002, 3.740439e+001
7.360294e+002, 3.709012e+001
7.365115e+002, 3.701241e+001
7.369936e+002, 3.717567e+001
7.374757e+002, 3.728945e+001
7.379578e+002, 3.708915e+001
7.384399e+002, 3.674529e+001
7.389221e+002, 3.662433e+001
7.394042e+002, 3.671043e+001
7.398863e+002, 3.675534e+001
7.403684e+002, 3.669770e+001
7.408505e+002, 3.658294e+001
7.413326e+002, 3.642785e+001
7.418148e+002, 3.624399e+001
7.422969e+002, 3.616771e+001
7.427790e+002, 3.630892e+001
7.432611e+002, 3.639654e+001
7.437432e+002, 3.634473e+001
7.442253e+002, 3.627499e+001
7.447075e+002, 3.630127e+001
7.451896e+002, 3.638871e+001
7.456717e+002, 3.641206e+001
7.461538e+002, 3.629800e+001
7.466359e+002, 3.616214e+001
7.471180e+002, 3.614410e+001
7.476002e+002, 3.622053e+001
7.480823e+002, 3.633796e+001
7.485644e+002, 3.649601e+001
7.490465e+002, 3.654776e+001
7.495286e+002, 3.636942e+001
7.500107e+002, 3.608499e+001
7.504929e+002, 3.599768e+001
7.509750e+002, 3.624002e+001
7.514571e+002, 3.635111e+001
7.519392e+002, 3.627732e+001
7.524213e+002, 3.614359e+001
7.529034e+002, 3.596213e+001
7.533856e+002, 3.576719e+001
7.538677e+002, 3.558443e+001
7.543498e+002, 3.542317e+001
7.548319e+002, 3.532149e+001
7.553140e+002, 3.531272e+001
7.557961e+002, 3.537882e+001
7.562783e+002, 3.554715e+001
7.567604e+002, 3.578240e+001
7.572425e+002, 3.585979e+001
7.577246e+002, 3.568919e+001
7.582067e+002, 3.549847e+001
7.586888e+002, 3.558374e+001
7.591710e+002, 3.594140e+001
7.596531e+002, 3.604013e+001
7.601352e+002, 3.560972e+001
7.606173e+002, 3.533168e+001
7.610994e+002, 3.541331e+001
7.615815e+002, 3.557995e+001
7.620637e+002, 3.566352e+001
7.625458e+002, 3.565409e+001
7.630279e+002, 3.557418e+001
7.635100e+002, 3.538665e+001
7.639921e+002, 3.521670e+001
7.644742e+002, 3.517246e+001
7.649564e+002, 3.521575e+001
7.654385e+002, 3.531265e+001
7.659206e+002, 3.544065e+001
7.664027e+002, 3.547885e+001
7.668848e+002, 3.533387e+001
7.673669e+002, 3.512627e+001
7.678491e+002, 3.520399e+001
7.683312e+002, 3.575322e+001
7.688133e+002, 3.586162e+001
7.692954e+002, 3.512983e+001
7.697775e+002, 3.449545e+001
7.702596e+002, 3.443001e+001
7.707418e+002, 3.466518e+001
7.712239e+002, 3.489038e+001
7.717060e+002, 3.507835e+001
7.721881e+002, 3.520378e+001
7.726702e+002, 3.525748e+001
7.731523e+002, 3.524474e+001
7.736345e+002, 3.512264e+001
7.741166e+002, 3.494829e+001
7.745987e+002, 3.483953e+001
7.750808e+002, 3.482507e+001
7.755629e+002, 3.482787e+001
7.760450e+002, 3.475734e+001
7.765272e+002, 3.464686e+001
7.770093e+002, 3.469556e+001
7.774914e+002, 3.496088e+001
7.779735e+002, 3.505643e+001
7.784556e+002, 3.479201e+001
7.789377e+002, 3.448983e+001
7.794199e+002, 3.444829e+001
7.799020e+002, 3.461837e+001
7.803841e+002, 3.475238e+001
7.808662e+002, 3.488703e+001
7.813483e+002, 3.491650e+001
7.818304e+002, 3.469316e+001
7.823126e+002, 3.445572e+001
7.827947e+002, 3.441340e+001
7.832768e+002, 3.452692e+001
7.837589e+002, 3.466842e+001
7.842410e+002, 3.478443e+001
7.847231e+002, 3.484198e+001
7.852053e+002, 3.475586e+001
7.856874e+002, 3.457442e+001
7.861695e+002, 3.449780e+001
7.866516e+002, 3.453996e+001
7.871337e+002, 3.461148e+001
7.876158e+002, 3.469073e+001
7.880980e+002, 3.473743e+001
7.885801e+002, 3.467598e+001
7.890622e+002, 3.447898e+001
7.895443e+002, 3.435584e+001
7.900264e+002, 3.431317e+001
7.905085e+002, 3.433385e+001
7.909907e+002, 3.449259e+001
7.914728e+002, 3.465754e+001
7.919549e+002, 3.471273e+001
7.924370e+002, 3.465556e+001
7.929191e+002, 3.453762e+001
7.934012e+002, 3.433012e+001
7.938834e+002, 3.415568e+001
7.943655e+002, 3.419010e+001
7.948476e+002, 3.433249e+001
7.953297e+002, 3.432098e+001
7.958118e+002, 3.414463e+001
7.962939e+002, 3.409276e+001
7.967761e+002, 3.437790e+001
7.972582e+002, 3.480615e+001
7.977403e+002, 3.488138e+001
7.982224e+002, 3.449283e+001
7.987045e+002, 3.421940e+001
7.991866e+002, 3.407826e+001
7.996688e+002, 3.404376e+001
8.001509e+002, 3.417915e+001
8.006330e+002, 3.437794e+001
8.011151e+002, 3.453194e+001
8.015972e+002, 3.463750e+001
8.020793e+002, 3.465276e+001
8.025615e+002, 3.448980e+001
8.030436e+002, 3.431359e+001
8.035257e+002, 3.421473e+001
8.040078e+002, 3.417445e+001
8.044899e+002, 3.416766e+001
8.049720e+002, 3.418451e+001
8.054542e+002, 3.421854e+001
8.059363e+002, 3.427346e+001
8.064184e+002, 3.432603e+001
8.069005e+002, 3.427987e+001
8.073826e+002, 3.414542e+001
8.078647e+002, 3.422284e+001
8.083469e+002, 3.462837e+001
8.088290e+002, 3.493056e+001
8.093111e+002, 3.478202e+001
8.097932e+002, 3.433909e+001
8.102753e+002, 3.407973e+001
8.107574e+002, 3.406079e+001
8.112396e+002, 3.411569e+001
8.117217e+002, 3.437055e+001
8.122038e+002, 3.455742e+001
8.126859e+002, 3.449857e+001
8.131680e+002, 3.433497e+001
8.136501e+002, 3.425617e+001
8.141323e+002, 3.429848e+001
8.146144e+002, 3.437888e+001
8.150965e+002, 3.451097e+001
8.155786e+002, 3.460379e+001
8.160607e+002, 3.447650e+001
8.165428e+002, 3.423109e+001
8.170250e+002, 3.416658e+001
8.175071e+002, 3.433838e+001
8.179892e+002, 3.452000e+001
8.184713e+002, 3.451770e+001
8.189534e+002, 3.438317e+001
8.194355e+002, 3.430718e+001
8.199177e+002, 3.430741e+001
8.203998e+002, 3.428313e+001
8.208819e+002, 3.422310e+001
8.213640e+002, 3.413734e+001
8.218461e+002, 3.399701e+001
8.223282e+002, 3.384705e+001
8.228104e+002, 3.377402e+001
8.232925e+002, 3.378855e+001
8.237746e+002, 3.384664e+001
8.242567e+002, 3.396212e+001
8.247388e+002, 3.409621e+001
8.252209e+002, 3.427207e+001
8.257031e+002, 3.443188e+001
8.261852e+002, 3.447311e+001
8.266673e+002, 3.439144e+001
8.271494e+002, 3.431083e+001
8.276315e+002, 3.434755e+001
8.281136e+002, 3.441760e+001
8.285958e+002, 3.436450e+001
8.290779e+002, 3.421231e+001
8.295600e+002, 3.406293e+001
8.300421e+002, 3.393447e+001
8.305242e+002, 3.387388e+001
8.310063e+002, 3.392702e+001
8.314885e+002, 3.405387e+001
8.319706e+002, 3.413177e+001
8.324527e+002, 3.414922e+001
8.329348e+002, 3.414662e+001
8.334169e+002, 3.409121e+001
8.338990e+002, 3.405802e+001
8.343812e+002, 3.408611e+001
8.348633e+002, 3.414581e+001
8.353454e+002, 3.421010e+001
8.358275e+002, 3.427674e+001
8.363096e+002, 3.431435e+001
8.367917e+002, 3.430272e+001
8.372739e+002, 3.426955e+001
8.377560e+002, 3.418317e+001
8.382381e+002, 3.411072e+001
8.387202e+002, 3.420726e+001
8.392023e+002, 3.444037e+001
8.396844e+002, 3.454248e+001
8.401666e+002, 3.430032e+001
8.406487e+002, 3.394773e+001
8.411308e+002, 3.395059e+001
8.416129e+002, 3.424205e+001
8.420950e+002, 3.431987e+001
8.425771e+002, 3.411280e+001
8.430593e+002, 3.393929e+001
8.435414e+002, 3.398253e+001
8.440235e+002, 3.413719e+001
8.445056e+002, 3.421314e+001
8.449877e+002, 3.419932e+001
8.454698e+002, 3.416130e+001
8.459520e+002, 3.405187e+001
8.464341e+002, 3.398163e+001
8.469162e+002, 3.400781e+001
8.473983e+002, 3.405810e+001
8.478804e+002, 3.406633e+001
8.483625e+002, 3.403717e+001
8.488447e+002, 3.401725e+001
8.493268e+002, 3.399157e+001
8.498089e+002, 3.402468e+001
8.502910e+002, 3.422311e+001
8.507731e+002, 3.445314e+001
8.512552e+002, 3.454857e+001
8.517374e+002, 3.452557e+001
8.522195e+002, 3.449541e+001
8.527016e+002, 3.450912e+001
8.531837e+002, 3.452421e+001
8.536658e+002, 3.447597e+001
8.541479e+002, 3.438006e+001
8.546301e+002, 3.432418e+001
8.551122e+002, 3.431149e+001
8.555943e+002, 3.423483e+001
8.560764e+002, 3.403694e+001
8.565585e+002, 3.384749e+001
8.570406e+002, 3.382215e+001
8.575228e+002, 3.394078e+001
8.580049e+002, 3.395891e+001
8.584870e+002, 3.380407e+001
8.589691e+002, 3.367154e+001
8.594512e+002, 3.352414e+001
8.599333e+002, 3.345667e+001
8.604155e+002, 3.359241e+001
8.608976e+002, 3.382259e+001
8.613797e+002, 3.393412e+001
8.618618e+002, 3.386968e+001
8.623439e+002, 3.380935e+001
8.628260e+002, 3.385882e+001
8.633082e+002, 3.391190e+001
8.637903e+002, 3.388016e+001
8.642724e+002, 3.379347e+001
8.647545e+002, 3.369094e+001
8.652366e+002, 3.359234e+001
8.657188e+002, 3.353879e+001
8.662009e+002, 3.357326e+001
8.666830e+002, 3.365112e+001
8.671651e+002, 3.366763e+001
8.676472e+002, 3.364159e+001
8.681293e+002, 3.370721e+001
8.686115e+002, 3.388781e+001
8.690936e+002, 3.408322e+001
8.695757e+002, 3.425393e+001
8.700578e+002, 3.434879e+001
8.705399e+002, 3.423909e+001
8.710220e+002, 3.385799e+001
8.715042e+002, 3.360949e+001
8.719863e+002, 3.353845e+001
8.724684e+002, 3.352970e+001
8.729505e+002, 3.357862e+001
8.734326e+002, 3.365478e+001
8.739147e+002, 3.374670e+001
8.743969e+002, 3.384766e+001
8.748790e+002, 3.391991e+001
8.753611e+002, 3.398696e+001
8.758432e+002, 3.398150e+001
8.763253e+002, 3.381470e+001
8.768074e+002, 3.362079e+001
8.772896e+002, 3.349707e+001
8.777717e+002, 3.344830e+001
8.782538e+002, 3.346029e+001
8.787359e+002, 3.352730e+001
8.792180e+002, 3.362676e+001
8.797001e+002, 3.379375e+001
8.801823e+002, 3.395126e+001
8.806644e+002, 3.391285e+001
8.811465e+002, 3.372686e+001
8.816286e+002, 3.360778e+001
8.821107e+002, 3.361198e+001
8.825928e+002, 3.367745e+001
8.830750e+002, 3.375807e+001
8.835571e+002, 3.384197e+001
8.840392e+002, 3.391118e+001
8.845213e+002, 3.399376e+001
8.850034e+002, 3.385781e+001
8.854855e+002, 3.332701e+001
8.859677e+002, 3.294430e+001
8.864498e+002, 3.305949e+001
8.869319e+002, 3.343445e+001
8.874140e+002, 3.368705e+001
8.878961e+002, 3.380943e+001
8.883782e+002, 3.385769e+001
8.888604e+002, 3.376043e+001
8.893425e+002, 3.368320e+001
8.898246e+002, 3.368572e+001
8.903067e+002, 3.371568e+001
8.907888e+002, 3.371342e+001
8.912709e+002, 3.369607e+001
8.917531e+002, 3.374057e+001
8.922352e+002, 3.390090e+001
8.927173e+002, 3.403932e+001
8.931994e+002, 3.404063e+001
8.936815e+002, 3.398460e+001
8.941636e+002, 3.392255e+001
8.946458e+002, 3.388936e+001
8.951279e+002, 3.399273e+001
8.956100e+002, 3.424856e+001
8.960921e+002, 3.445932e+001
8.965742e+002, 3.440452e+001
8.970563e+002, 3.419675e+001
8.975385e+002, 3.413852e+001
8.980206e+002, 3.421950e+001
8.985027e+002, 3.431308e+001
8.989848e+002, 3.439942e+001
8.994669e+002, 3.447620e+001
8.999490e+002, 3.454829e+001
9.004312e+002, 3.459689e+001
9.009133e+002, 3.456304e+001
9.013954e+002, 3.439771e+001
9.018775e+002, 3.438623e+001
9.023596e+002, 3.465337e+001
9.028417e+002, 3.486142e+001
9.033239e+002, 3.483432e+001
9.038060e+002, 3.476310e+001
9.042881e+002, 3.486583e+001
9.047702e+002, 3.510324e+001
9.052523e+002, 3.521555e+001
9.057344e+002, 3.502575e+001
9.062166e+002, 3.492525e+001
9.066987e+002, 3.505857e+001
9.071808e+002, 3.526416e+001
9.076629e+002, 3.552884e+001
9.081450e+002, 3.574487e+001
9.086271e+002, 3.566668e+001
9.091093e+002, 3.525020e+001
9.095914e+002, 3.495657e+001
9.100735e+002, 3.521127e+001
9.105556e+002, 3.565900e+001
9.110377e+002, 3.595012e+001
9.115198e+002, 3.612085e+001
9.120020e+002, 3.623578e+001
9.124841e+002, 3.631493e+001
9.129662e+002, 3.637862e+001
9.134483e+002, 3.643992e+001
9.139304e+002, 3.649139e+001
9.144125e+002, 3.650733e+001
9.148947e+002, 3.649686e+001
9.153768e+002, 3.653996e+001
9.158589e+002, 3.664191e+001
9.163410e+002, 3.674065e+001
9.168231e+002, 3.680458e+001
9.173052e+002, 3.690110e+001
9.177874e+002, 3.712843e+001
9.182695e+002, 3.745991e+001
9.187516e+002, 3.761472e+001
9.192337e+002, 3.748622e+001
9.197158e+002, 3.743995e+001
9.201979e+002, 3.755635e+001
9.206801e+002, 3.770207e+001
9.211622e+002, 3.776719e+001
9.216443e+002, 3.783062e+001
9.221264e+002, 3.805362e+001
9.226085e+002, 3.847993e+001
9.230906e+002, 3.877531e+001
9.235728e+002, 3.876310e+001
9.240549e+002, 3.877509e+001
9.245370e+002, 3.901509e+001
9.250191e+002, 3.927122e+001
9.255012e+002, 3.927808e+001
9.259833e+002, 3.911413e+001
9.264655e+002, 3.907876e+001
9.269476e+002, 3.928921e+001
9.274297e+002, 3.962008e+001
9.279118e+002, 4.012726e+001
9.283939e+002, 4.059645e+001
9.288760e+002, 4.070222e+001
9.293582e+002, 4.058988e+001
9.298403e+002, 4.064061e+001
9.303224e+002, 4.092870e+001
9.308045e+002, 4.118282e+001
9.312866e+002, 4.117184e+001
9.317687e+002, 4.102352e+001
9.322509e+002, 4.094077e+001
9.327330e+002, 4.092852e+001
9.332151e+002, 4.102010e+001
9.336972e+002, 4.121618e+001
9.341793e+002, 4.147564e+001
9.346614e+002, 4.178900e+001
9.351436e+002, 4.207507e+001
9.356257e+002, 4.220321e+001
9.361078e+002, 4.218277e+001
9.365899e+002, 4.217556e+001
9.370720e+002, 4.214902e+001
9.375541e+002, 4.230299e+001
9.380363e+002, 4.281588e+001
9.385184e+002, 4.321784e+001
9.390005e+002, 4.304961e+001
9.394826e+002, 4.256990e+001
9.399647e+002, 4.252908e+001
9.404468e+002, 4.314507e+001
9.409290e+002, 4.360477e+001
9.414111e+002, 4.383214e+001
9.418932e+002, 4.400826e+001
9.423753e+002, 4.417825e+001
9.428574e+002, 4.432389e+001
9.433395e+002, 4.437434e+001
9.438217e+002, 4.437204e+001
9.443038e+002, 4.452588e+001
9.447859e+002, 4.501665e+001
9.452680e+002, 4.540644e+001
9.457501e+002, 4.546311e+001
9.462322e+002, 4.543410e+001
9.467144e+002, 4.548016e+001
9.471965e+002, 4.558491e+001
9.476786e+002, 4.567973e+001
9.481607e+002, 4.575927e+001
9.486428e+002, 4.591473e+001
9.491249e+002, 4.625767e+001
9.496071e+002, 4.663138e+001
9.500892e+002, 4.689474e+001
9.505713e+002, 4.706871e+001
9.510534e+002, 4.712898e+001
9.515355e+002, 4.712639e+001
9.520176e+002, 4.725175e+001
9.524998e+002, 4.758808e+001
9.529819e+002, 4.797311e+001
9.534640e+002, 4.822939e+001
9.539461e+002, 4.838020e+001
9.544282e+002, 4.848866e+001
9.549103e+002, 4.855706e+001
9.553925e+002, 4.859305e+001
9.558746e+002, 4.859827e+001
9.563567e+002, 4.860603e+001
9.568388e+002, 4.863074e+001
9.573209e+002, 4.870493e+001
9.578030e+002, 4.893402e+001
9.582852e+002, 4.934416e+001
9.587673e+002, 4.958380e+001
9.592494e+002, 4.959932e+001
9.597315e+002, 4.966161e+001
9.602136e+002, 4.988253e+001
9.606957e+002, 5.011701e+001
9.611779e+002, 5.021270e+001
9.616600e+002, 5.020373e+001
9.621421e+002, 5.027515e+001
9.626242e+002, 5.051697e+001
9.631063e+002, 5.065752e+001
9.635884e+002, 5.049887e+001
9.640706e+002, 5.048706e+001
9.645527e+002, 5.090081e+001
9.650348e+002, 5.146527e+001
9.655169e+002, 5.191430e+001
9.659990e+002, 5.223731e+001
9.664811e+002, 5.243579e+001
9.669633e+002, 5.244717e+001
9.674454e+002, 5.242078e+001
9.679275e+002, 5.238063e+001
9.684096e+002, 5.232172e+001
9.688917e+002, 5.217199e+001
9.693738e+002, 5.202927e+001
9.698560e+002, 5.207217e+001
9.703381e+002, 5.232982e+001
9.708202e+002, 5.260315e+001
9.713023e+002, 5.281464e+001
9.717844e+002, 5.299166e+001
9.722665e+002, 5.317250e+001
9.727487e+002, 5.331403e+001
9.732308e+002, 5.330113e+001
9.737129e+002, 5.320549e+001
9.741950e+002, 5.326371e+001
9.746771e+002, 5.356588e+001
9.751592e+002, 5.385291e+001
9.756414e+002, 5.384349e+001
9.761235e+002, 5.371684e+001
9.766056e+002, 5.372050e+001
9.770877e+002, 5.381494e+001
9.775698e+002, 5.392403e+001
9.780519e+002, 5.401913e+001
9.785341e+002, 5.402291e+001
9.790162e+002, 5.387816e+001
9.794983e+002, 5.375217e+001
9.799804e+002, 5.392747e+001
9.804625e+002, 5.432660e+001
9.809446e+002, 5.470360e+001
9.814268e+002, 5.503710e+001
9.819089e+002, 5.513677e+001
9.823910e+002, 5.495036e+001
9.828731e+002, 5.477738e+001
9.833552e+002, 5.486491e+001
9.838373e+002, 5.511285e+001
9.843195e+002, 5.529278e+001
9.848016e+002, 5.540654e+001
9.852837e+002, 5.537759e+001
9.857658e+002, 5.516349e+001
9.862479e+002, 5.503860e+001
9.867300e+002, 5.511240e+001
9.872122e+002, 5.527167e+001
9.876943e+002, 5.542862e+001
9.881764e+002, 5.556357e+001
9.886585e+002, 5.555573e+001
9.891406e+002, 5.532145e+001
9.896227e+002, 5.518405e+001
9.901049e+002, 5.515687e+001
9.905870e+002, 5.523325e+001
9.910691e+002, 5.550882e+001
9.915512e+002, 5.579178e+001
9.920333e+002, 5.580895e+001
9.925154e+002, 5.557228e+001
9.929976e+002, 5.548117e+001
9.934797e+002, 5.568714e+001
9.939618e+002, 5.580727e+001
9.944439e+002, 5.570620e+001
9.949260e+002, 5.564600e+001
9.954081e+002, 5.578153e+001
9.958903e+002, 5.601503e+001
9.963724e+002, 5.625231e+001
9.968545e+002, 5.648120e+001
9.973366e+002, 5.656651e+001
9.978187e+002, 5.637730e+001
9.983008e+002, 5.618597e+001
9.987830e+002, 5.601473e+001
9.992651e+002, 5.591987e+001
9.997472e+002, 5.600627e+001
1.000229e+003, 5.617149e+001
1.000711e+003, 5.625183e+001
1.001194e+003, 5.621433e+001
1.001676e+003, 5.609808e+001
1.002158e+003, 5.582083e+001
1.002640e+003, 5.558819e+001
1.003122e+003, 5.551644e+001
1.003604e+003, 5.555088e+001
1.004086e+003, 5.568638e+001
1.004568e+003, 5.586694e+001
1.005050e+003, 5.598301e+001
1.005533e+003, 5.600119e+001
1.006015e+003, 5.599804e+001
1.006497e+003, 5.604364e+001
1.006979e+003, 5.607623e+001
1.007461e+003, 5.596068e+001
1.007943e+003, 5.583256e+001
1.008425e+003, 5.598330e+001
1.008907e+003, 5.633458e+001
1.009390e+003, 5.650773e+001
1.009872e+003, 5.634314e+001
1.010354e+003, 5.609914e+001
1.010836e+003, 5.600923e+001
1.011318e+003, 5.601307e+001
1.011800e+003, 5.608096e+001
1.012282e+003, 5.614734e+001
1.012764e+003, 5.596483e+001
1.013246e+003, 5.557134e+001
1.013729e+003, 5.539745e+001
1.014211e+003, 5.567704e+001
1.014693e+003, 5.603917e+001
1.015175e+003, 5.593555e+001
1.015657e+003, 5.554762e+001
1.016139e+003, 5.543288e+001
1.016621e+003, 5.553396e+001
1.017103e+003, 5.553524e+001
1.017586e+003, 5.538501e+001
1.018068e+003, 5.527531e+001
1.018550e+003, 5.532608e+001
1.019032e+003, 5.547157e+001
1.019514e+003, 5.566179e+001
1.019996e+003, 5.586167e+001
1.020478e+003, 5.572692e+001
1.020960e+003, 5.527156e+001
1.021442e+003, 5.507853e+001
1.021925e+003, 5.529513e+001
1.022407e+003, 5.553049e+001
1.022889e+003, 5.550997e+001
1.023371e+003, 5.535598e+001
1.023853e+003, 5.533799e+001
1.024335e+003, 5.545846e+001
1.024817e+003, 5.533961e+001
1.025299e+003, 5.492518e+001
1.025781e+003, 5.474704e+001
1.026264e+003, 5.501062e+001
1.026746e+003, 5.518505e+001
1.027228e+003, 5.481970e+001
1.027710e+003, 5.419601e+001
1.028192e+003, 5.402737e+001
1.028674e+003, 5.440908e+001
1.029156e+003, 5.445393e+001
1.029638e+003, 5.401439e+001
1.030120e+003, 5.374784e+001
1.030603e+003, 5.387997e+001
1.031085e+003, 5.409474e+001
1.031567e+003, 5.415932e+001
1.032049e+003, 5.411673e+001
1.032531e+003, 5.408631e+001
1.033013e+003, 5.409327e+001
1.033495e+003, 5.398767e+001
1.033977e+003, 5.368097e+001
1.034460e+003, 5.345428e+001
1.034942e+003, 5.341851e+001
1.035424e+003, 5.342185e+001
1.035906e+003, 5.331845e+001
1.036388e+003, 5.317532e+001
1.036870e+003, 5.321081e+001
1.037352e+003, 5.354896e+001
1.037834e+003, 5.362793e+001
1.038317e+003, 5.320935e+001
1.038799e+003, 5.289847e+001
1.039281e+003, 5.291640e+001
1.039763e+003, 5.300478e+001
1.040245e+003, 5.300892e+001
1.040727e+003, 5.292641e+001
1.041209e+003, 5.271955e+001
1.041691e+003, 5.227617e+001
1.042173e+003, 5.206836e+001
1.042656e+003, 5.233401e+001
1.043138e+003, 5.252260e+001
1.043620e+003, 5.247481e+001
1.044102e+003, 5.232672e+001
1.044584e+003, 5.214816e+001
1.045066e+003, 5.195521e+001
1.045548e+003, 5.177464e+001
1.046030e+003, 5.159418e+001
1.046512e+003, 5.148249e+001
1.046995e+003, 5.151297e+001
1.047477e+003, 5.152549e+001
1.047959e+003, 5.147079e+001
1.048441e+003, 5.138252e+001
1.048923e+003, 5.129718e+001
1.049405e+003, 5.119828e+001
1.049887e+003, 5.102995e+001
1.050369e+003, 5.076245e+001
1.050852e+003, 5.054959e+001
1.051334e+003, 5.046949e+001
1.051816e+003, 5.038349e+001
1.052298e+003, 5.020375e+001
1.052780e+003, 5.003518e+001
1.053262e+003, 4.996494e+001
1.053744e+003, 4.997236e+001
1.054226e+003, 5.002932e+001
1.054708e+003, 5.015399e+001
1.055191e+003, 5.013519e+001
1.055673e+003, 4.980634e+001
1.056155e+003, 4.946727e+001
1.056637e+003, 4.918371e+001
1.057119e+003, 4.898262e+001
1.057601e+003, 4.895249e+001
1.058083e+003, 4.899829e+001
1.058565e+003, 4.890449e+001
1.059047e+003, 4.862042e+001
1.059530e+003, 4.841521e+001
1.060012e+003, 4.846429e+001
1.060494e+003, 4.849902e+001
1.060976e+003, 4.840594e+001
1.061458e+003, 4.825247e+001
1.061940e+003, 4.806987e+001
1.062422e+003, 4.787946e+001
1.062904e+003, 4.770274e+001
1.063387e+003, 4.754456e+001
1.063869e+003, 4.742012e+001
1.064351e+003, 4.738037e+001
1.064833e+003, 4.731671e+001
1.065315e+003, 4.714683e+001
1.065797e+003, 4.696452e+001
1.066279e+003, 4.687678e+001
1.066761e+003, 4.682328e+001
1.067244e+003, 4.667002e+001
1.067726e+003, 4.640215e+001
1.068208e+003, 4.618142e+001
1.068690e+003, 4.616217e+001
1.069172e+003, 4.608374e+001
1.069654e+003, 4.568490e+001
1.070136e+003, 4.531725e+001
1.070618e+003, 4.534713e+001
1.071100e+003, 4.557025e+001
1.071583e+003, 4.562197e+001
1.072065e+003, 4.545970e+001
1.072547e+003, 4.532211e+001
1.073029e+003, 4.539550e+001
1.073511e+003, 4.535415e+001
1.073993e+003, 4.490705e+001
1.074475e+003, 4.442321e+001
1.074957e+003, 4.417173e+001
1.075439e+003, 4.408067e+001
1.075922e+003, 4.403045e+001
1.076404e+003, 4.400022e+001
1.076886e+003, 4.401323e+001
1.077368e+003, 4.411477e+001
1.077850e+003, 4.417682e+001
1.078332e+003, 4.411102e+001
1.078814e+003, 4.401447e+001
1.079297e+003, 4.401438e+001
1.079779e+003, 4.399118e+001
1.080261e+003, 4.373016e+001
1.080743e+003, 4.327647e+001
1.081225e+003, 4.292324e+001
1.081707e+003, 4.279437e+001
1.082189e+003, 4.268530e+001
1.082671e+003, 4.244388e+001
1.083153e+003, 4.225951e+001
1.083635e+003, 4.234178e+001
1.084118e+003, 4.248789e+001
1.084600e+003, 4.245668e+001
1.085082e+003, 4.226734e+001
1.085564e+003, 4.207627e+001
1.086046e+003, 4.193444e+001
1.086528e+003, 4.175600e+001
1.087010e+003, 4.133989e+001
1.087492e+003, 4.107508e+001
1.087975e+003, 4.134802e+001
1.088457e+003, 4.174095e+001
1.088939e+003, 4.186638e+001
1.089421e+003, 4.174160e+001
1.089903e+003, 4.148214e+001
1.090385e+003, 4.109814e+001
1.090867e+003, 4.080400e+001
1.091349e+003, 4.082600e+001
1.091832e+003, 4.077099e+001
1.092314e+003, 4.028097e+001
1.092796e+003, 3.980099e+001
1.093278e+003, 3.977879e+001
1.093760e+003, 4.002979e+001
1.094242e+003, 4.016981e+001
1.094724e+003, 4.013288e+001
1.095206e+003, 4.006595e+001
1.095688e+003, 4.000517e+001
1.096171e+003, 3.993628e+001
1.096653e+003, 3.981017e+001
1.097135e+003, 3.971977e+001
1.097617e+003, 3.979323e+001
1.098099e+003, 3.990884e+001
1.098581e+003, 3.989996e+001
1.099063e+003, 3.974779e+001
1.099545e+003, 3.949537e+001
1.100027e+003, 3.905289e+001
1.100510e+003, 3.867789e+001
1.100992e+003, 3.836982e+001
1.101474e+003, 3.821871e+001
1.101956e+003, 3.844868e+001
1.102438e+003, 3.873768e+001
1.102920e+003, 3.865174e+001
1.103402e+003, 3.826125e+001
1.103884e+003, 3.805291e+001
1.104367e+003, 3.818335e+001
1.104849e+003, 3.829614e+001
1.105331e+003, 3.839840e+001
1.105813e+003, 3.838598e+001
1.106295e+003, 3.808884e+001
1.106777e+003, 3.777064e+001
1.107259e+003, 3.771117e+001
1.107741e+003, 3.782088e+001
1.108224e+003, 3.780140e+001
1.108706e+003, 3.756723e+001
1.109188e+003, 3.745691e+001
1.109670e+003, 3.766413e+001
1.110152e+003, 3.776960e+001
1.110634e+003, 3.756977e+001
1.111116e+003, 3.734729e+001
1.111598e+003, 3.734043e+001
1.112080e+003, 3.742013e+001
1.112563e+003, 3.731471e+001
1.113045e+003, 3.699017e+001
1.113527e+003, 3.677032e+001
1.114009e+003, 3.674107e+001
1.114491e+003, 3.667553e+001
1.114973e+003, 3.653319e+001
1.115455e+003, 3.637577e+001
1.115937e+003, 3.621188e+001
1.116419e+003, 3.606575e+001
1.116902e+003, 3.596562e+001
1.117384e+003, 3.591209e+001
1.117866e+003, 3.591552e+001
1.118348e+003, 3.605156e+001
1.118830e+003, 3.606094e+001
1.119312e+003, 3.586097e+001
1.119794e+003, 3.568363e+001
1.120276e+003, 3.562738e+001
1.120759e+003, 3.559630e+001
1.121241e+003, 3.548994e+001
1.121723e+003, 3.534092e+001
1.122205e+003, 3.527431e+001
1.122687e+003, 3.532592e+001
1.123169e+003, 3.527609e+001
1.123651e+003, 3.506717e+001
1.124133e+003, 3.496695e+001
1.124615e+003, 3.509780e+001
1.125098e+003, 3.516932e+001
1.125580e+003, 3.494678e+001
1.126062e+003, 3.460501e+001
1.126544e+003, 3.448744e+001
1.127026e+003, 3.459010e+001
1.127508e+003, 3.472870e+001
1.127990e+003, 3.492405e+001
1.128472e+003, 3.495721e+001
1.128954e+003, 3.477433e+001
1.129437e+003, 3.458884e+001
1.129919e+003, 3.451354e+001
1.130401e+003, 3.442392e+001
1.130883e+003, 3.412820e+001
1.131365e+003, 3.372945e+001
1.131847e+003, 3.365372e+001
1.132329e+003, 3.388806e+001
1.132811e+003, 3.429144e+001
1.133294e+003, 3.483800e+001
1.133776e+003, 3.493438e+001
1.134258e+003, 3.438173e+001
1.134740e+003, 3.376348e+001
1.135222e+003, 3.356667e+001
1.135704e+003, 3.361618e+001
1.136186e+003, 3.357436e+001
1.136668e+003, 3.348423e+001
1.137151e+003, 3.358792e+001
1.137633e+003, 3.381857e+001
1.138115e+003, 3.374741e+001
1.138597e+003, 3.334448e+001
1.139079e+003, 3.312593e+001
1.139561e+003, 3.338524e+001
1.140043e+003, 3.369212e+001
1.140525e+003, 3.349717e+001
1.141007e+003, 3.302182e+001
1.141490e+003, 3.257438e+001
1.141972e+003, 3.222412e+001
1.142454e+003, 3.219967e+001
1.142936e+003, 3.242845e+001
1.143418e+003, 3.259859e+001
1.143900e+003, 3.260226e+001
1.144382e+003, 3.253217e+001
1.144864e+003, 3.244151e+001
1.145346e+003, 3.234019e+001
1.145829e+003, 3.221334e+001
1.146311e+003, 3.210281e+001
1.146793e+003, 3.207336e+001
1.147275e+003, 3.209786e+001
1.147757e+003, 3.213555e+001
1.148239e+003, 3.216635e+001
1.148721e+003, 3.215440e+001
1.149203e+003, 3.207945e+001
1.149686e+003, 3.198084e+001
1.150168e+003, 3.182961e+001
1.150650e+003, 3.172566e+001
1.151132e+003, 3.182489e+001
1.151614e+003, 3.194782e+001
1.152096e+003, 3.186904e+001
1.152578e+003, 3.164324e+001
1.153060e+003, 3.145400e+001
1.153542e+003, 3.134442e+001
1.154025e+003, 3.121258e+001
1.154507e+003, 3.092939e+001
1.154989e+003, 3.075036e+001
1.155471e+003, 3.084673e+001
1.155953e+003, 3.098724e+001
1.156435e+003, 3.108085e+001
1.156917e+003, 3.108914e+001
1.157399e+003, 3.091388e+001
1.157881e+003, 3.058557e+001
1.158364e+003, 3.040017e+001
1.158846e+003, 3.050060e+001
1.159328e+003, 3.052590e+001
1.159810e+003, 3.036673e+001
1.160292e+003, 3.024923e+001
1.160774e+003, 3.030131e+001
1.161256e+003, 3.034733e+001
1.161738e+003, 3.022251e+001
1.162221e+003, 3.000451e+001
1.162703e+003, 2.988265e+001
1.163185e+003, 2.986993e+001
1.163667e+003, 2.984424e+001
1.164149e+003, 2.978491e+001
1.164631e+003, 2.978400e+001
1.165113e+003, 2.989067e+001
1.165595e+003, 2.995278e+001
1.166078e+003, 2.988802e+001
1.166560e+003, 2.975651e+001
1.167042e+003, 2.962670e+001
1.167524e+003, 2.949938e+001
1.168006e+003, 2.937431e+001
1.168488e+003, 2.924920e+001
1.168970e+003, 2.917405e+001
1.169452e+003, 2.915255e+001
1.169934e+003, 2.911934e+001
1.170417e+003, 2.905370e+001
1.170899e+003, 2.905665e+001
1.171381e+003, 2.921784e+001
1.171863e+003, 2.938792e+001
1.172345e+003, 2.929187e+001
1.172827e+003, 2.900081e+001
1.173309e+003, 2.871524e+001
1.173791e+003, 2.846285e+001
1.174273e+003, 2.838854e+001
1.174756e+003, 2.847215e+001
1.175238e+003, 2.850611e+001
1.175720e+003, 2.841231e+001
1.176202e+003, 2.831214e+001
1.176684e+003, 2.831835e+001
1.177166e+003, 2.835467e+001
1.177648e+003, 2.830712e+001
1.178130e+003, 2.824094e+001
1.178613e+003, 2.829715e+001
1.179095e+003, 2.839336e+001
1.179577e+003, 2.831998e+001
1.180059e+003, 2.808912e+001
1.180541e+003, 2.793036e+001
1.181023e+003, 2.795741e+001
1.181505e+003, 2.797281e+001
1.181987e+003, 2.781992e+001
1.182469e+003, 2.765846e+001
1.182952e+003, 2.758962e+001
1.183434e+003, 2.756827e+001
1.183916e+003, 2.760992e+001
1.184398e+003, 2.763748e+001
1.184880e+003, 2.744319e+001
1.185362e+003, 2.701480e+001
1.185844e+003, 2.682921e+001
1.186326e+003, 2.725382e+001
1.186808e+003, 2.753041e+001
1.187291e+003, 2.745530e+001
1.187773e+003, 2.729755e+001
1.188255e+003, 2.710544e+001
1.188737e+003, 2.694401e+001
1.189219e+003, 2.689580e+001
1.189701e+003, 2.691834e+001
1.190183e+003, 2.687660e+001
1.190665e+003, 2.675344e+001
1.191148e+003, 2.664552e+001
1.191630e+003, 2.651257e+001
1.192112e+003, 2.653879e+001
1.192594e+003, 2.685886e+001
1.193076e+003, 2.700867e+001
1.193558e+003, 2.668877e+001
1.194040e+003, 2.625569e+001
1.194522e+003, 2.617306e+001
1.195005e+003, 2.635273e+001
1.195487e+003, 2.644624e+001
1.195969e+003, 2.645405e+001
1.196451e+003, 2.636147e+001
1.196933e+003, 2.617624e+001
1.197415e+003, 2.608954e+001
1.197897e+003, 2.614549e+001
1.198379e+003, 2.620189e+001
1.198861e+003, 2.616823e+001
1.199344e+003, 2.609042e+001
1.199826e+003, 2.602309e+001
1.200308e+003, 2.596076e+001
1.200790e+003, 2.589706e+001
1.201272e+003, 2.582664e+001
1.201754e+003, 2.571617e+001
1.202236e+003, 2.558984e+001
1.202718e+003, 2.551226e+001
1.203200e+003, 2.550635e+001
1.203683e+003, 2.559541e+001
1.204165e+003, 2.584927e+001
1.204647e+003, 2.604632e+001
1.205129e+003, 2.594515e+001
1.205611e+003, 2.579559e+001
1.206093e+003, 2.584400e+001
1.206575e+003, 2.594487e+001
1.207057e+003, 2.592229e+001
1.207540e+003, 2.578168e+001
1.208022e+003, 2.556173e+001
1.208504e+003, 2.525405e+001
1.208986e+003, 2.509263e+001
1.209468e+003, 2.520675e+001
1.209950e+003, 2.536063e+001
1.210432e+003, 2.563833e+001
1.210914e+003, 2.578372e+001
1.211396e+003, 2.555530e+001
1.211879e+003, 2.522559e+001
1.212361e+003, 2.507984e+001
1.212843e+003, 2.506803e+001
1.213325e+003, 2.498930e+001
1.213807e+003, 2.482523e+001
1.214289e+003, 2.467557e+001
1.214771e+003, 2.452158e+001
1.215253e+003, 2.446219e+001
1.215735e+003, 2.452491e+001
1.216218e+003, 2.466796e+001
1.216700e+003, 2.489306e+001
1.217182e+003, 2.506108e+001
1.217664e+003, 2.498072e+001
1.218146e+003, 2.473623e+001
1.218628e+003, 2.458934e+001
1.219110e+003, 2.452071e+001
1.219592e+003, 2.438420e+001
1.220075e+003, 2.421643e+001
1.220557e+003, 2.430557e+001
1.221039e+003, 2.466249e+001
1.221521e+003, 2.488295e+001
1.222003e+003, 2.473698e+001
1.222485e+003, 2.452621e+001
1.222967e+003, 2.456251e+001
1.223449e+003, 2.468863e+001
1.223932e+003, 2.479008e+001
1.224414e+003, 2.481992e+001
1.224896e+003, 2.464836e+001
1.225378e+003, 2.438562e+001
1.225860e+003, 2.424899e+001
1.226342e+003, 2.426633e+001
1.226824e+003, 2.434356e+001
1.227306e+003, 2.451134e+001
1.227788e+003, 2.455404e+001
1.228271e+003, 2.424091e+001
1.228753e+003, 2.399480e+001
1.229235e+003, 2.408895e+001
1.229717e+003, 2.423055e+001
1.230199e+003, 2.414740e+001
1.230681e+003, 2.396980e+001
1.231163e+003, 2.396109e+001
1.231645e+003, 2.411603e+001
1.232127e+003, 2.417944e+001
1.232610e+003, 2.412104e+001
1.233092e+003, 2.406560e+001
1.233574e+003, 2.402822e+001
1.234056e+003, 2.394608e+001
1.234538e+003, 2.377941e+001
1.235020e+003, 2.366198e+001
1.235502e+003, 2.369838e+001
1.235984e+003, 2.381895e+001
1.236467e+003, 2.391696e+001
1.236949e+003, 2.398851e+001
1.237431e+003, 2.400737e+001
1.237913e+003, 2.398299e+001
1.238395e+003, 2.394249e+001
1.238877e+003, 2.389954e+001
1.239359e+003, 2.392636e+001
1.239841e+003, 2.402256e+001
1.240323e+003, 2.400707e+001
1.240806e+003, 2.373114e+001
1.241288e+003, 2.347574e+001
1.241770e+003, 2.355335e+001
1.242252e+003, 2.373518e+001
1.242734e+003, 2.385493e+001
1.243216e+003, 2.389881e+001
1.243698e+003, 2.379899e+001
1.244180e+003, 2.364127e+001
1.244662e+003, 2.361349e+001
1.245145e+003, 2.373653e+001
1.245627e+003, 2.382848e+001
1.246109e+003, 2.389208e+001
1.246591e+003, 2.383131e+001
1.247073e+003, 2.343003e+001
1.247555e+003, 2.317699e+001
1.248037e+003, 2.339076e+001
1.248519e+003, 2.361313e+001
1.249002e+003, 2.346421e+001
1.249484e+003, 2.317519e+001
1.249966e+003, 2.319748e+001
1.250448e+003, 2.350207e+001
1.250930e+003, 2.354619e+001
1.251412e+003, 2.328939e+001
1.251894e+003, 2.323652e+001
1.252376e+003, 2.343326e+001
1.252859e+003, 2.362490e+001
1.253341e+003, 2.373324e+001
1.253823e+003, 2.374176e+001
1.254305e+003, 2.363396e+001
1.254787e+003, 2.347040e+001
1.255269e+003, 2.327869e+001
1.255751e+003, 2.313125e+001
1.256233e+003, 2.320320e+001
1.256715e+003, 2.339505e+001
1.257198e+003, 2.355202e+001
1.257680e+003, 2.365430e+001
1.258162e+003, 2.370381e+001
1.258644e+003, 2.370613e+001
1.259126e+003, 2.367471e+001
1.259608e+003, 2.359854e+001
1.260090e+003, 2.355564e+001
1.260572e+003, 2.366524e+001
1.261054e+003, 2.370772e+001
1.261537e+003, 2.349059e+001
1.262019e+003, 2.325589e+001
1.262501e+003, 2.318958e+001
1.262983e+003, 2.322754e+001
1.263465e+003, 2.328717e+001
1.263947e+003, 2.335371e+001
1.264429e+003, 2.330393e+001
1.264911e+003, 2.304973e+001
1.265394e+003, 2.299995e+001
1.265876e+003, 2.320767e+001
1.266358e+003, 2.339950e+001
1.266840e+003, 2.352307e+001
1.267322e+003, 2.355111e+001
1.267804e+003, 2.346239e+001
1.268286e+003, 2.332347e+001
1.268768e+003, 2.320434e+001
1.269250e+003, 2.311433e+001
1.269733e+003, 2.308625e+001
1.270215e+003, 2.309926e+001
1.270697e+003, 2.310927e+001
1.271179e+003, 2.311222e+001
1.271661e+003, 2.310423e+001
1.272143e+003, 2.308768e+001
1.272625e+003, 2.305818e+001
1.273107e+003, 2.301445e+001
1.273589e+003, 2.303975e+001
1.274072e+003, 2.324838e+001
1.274554e+003, 2.344802e+001
1.275036e+003, 2.354961e+001
1.275518e+003, 2.360278e+001
1.276000e+003, 2.365682e+001
1.276482e+003, 2.366630e+001
1.276964e+003, 2.350650e+001
1.277446e+003, 2.327324e+001
1.277929e+003, 2.327958e+001
1.278411e+003, 2.356215e+001
1.278893e+003, 2.370079e+001
1.279375e+003, 2.364764e+001
1.279857e+003, 2.362998e+001
1.280339e+003, 2.367517e+001
1.280821e+003, 2.374712e+001
1.281303e+003, 2.384439e+001
1.281786e+003, 2.388460e+001
1.282268e+003, 2.380350e+001
##END=



