##NAMES=Montgomeryite
##RRUFFID=R140664
##IDEAL CHEMISTRY=Ca_4_MgAl_4_(PO_4_)_6_(OH)_4_&#183;12H_2_O
##LOCALITY=Foote Mineral Company mine, Kings Mountain, North Carolina, USA
##OWNER=RRUFF
##SOURCE=Rock Currier
##DESCRIPTION=Radial aggregates of colorless, bladed to platy crystals
##STATUS=The identification of this mineral has been confirmed only by single crystal X-ray diffraction.
##URL=rruff.info/R140664
153.6323, 0.0000000E+00
154.1144, 0.4787600
154.5966, 0.8590700
155.0787, 1.240479
155.5608, 1.658569
156.0429, 1.788086
156.5250, 1.522766
157.0071, 1.280212
157.4893, 1.457642
157.9714, 2.290894
158.4535, 3.241638
158.9356, 4.346619
159.4177, 5.393860
159.8998, 6.351318
160.3820, 6.941895
160.8641, 7.198486
161.3462, 8.352356
161.8283, 8.917847
162.3104, 9.024719
162.7925, 9.196167
163.2747, 9.211121
163.7568, 9.038269
164.2389, 8.659607
164.7210, 8.057800
165.2031, 7.087036
165.6852, 5.198792
166.1674, 3.775513
166.6495, 3.564453
167.1316, 4.113525
167.6137, 4.178650
168.0958, 2.837585
168.5779, 0.4152220
169.0601, 0.9732060
169.5422, 0.8317260
170.0243, 0.3988650
170.5064, 0.1063840
170.9885, 3.6072001E-02
171.4706, 0.2426760
171.9528, 0.7108760
172.4349, 1.384705
172.9170, 1.901489
173.3991, 2.187927
173.8812, 2.352539
174.3633, 2.422729
174.8455, 2.377258
175.3276, 2.420166
175.8097, 2.855530
176.2918, 3.465576
176.7739, 3.777039
177.2560, 3.409119
177.7382, 2.861755
178.2203, 3.039673
178.7024, 4.250244
179.1845, 5.105225
179.6666, 4.555725
180.1487, 3.411804
180.6309, 2.274536
181.1130, 1.783875
181.5951, 1.856018
182.0772, 2.172791
182.5593, 2.923462
183.0414, 3.884949
183.5236, 4.771912
184.0057, 5.333191
184.4878, 5.891968
184.9699, 6.538574
185.4520, 7.195679
185.9341, 7.284668
186.4163, 6.038208
186.8984, 5.040222
187.3805, 4.654663
187.8626, 4.731201
188.3447, 5.069336
188.8268, 5.547729
189.3090, 6.157898
189.7911, 6.566345
190.2732, 6.707458
190.7553, 6.721130
191.2374, 6.552246
191.7195, 6.282227
192.2017, 6.071106
192.6838, 6.055725
193.1659, 6.247803
193.6480, 6.308167
194.1301, 6.088074
194.6122, 5.910400
195.0944, 6.002319
195.5765, 6.289673
196.0586, 6.499329
196.5407, 6.425293
197.0228, 6.037048
197.5049, 5.417053
197.9871, 4.185547
198.4692, 3.039734
198.9513, 2.370239
199.4334, 2.196289
199.9155, 2.416443
200.3976, 3.158020
200.8798, 4.325500
201.3619, 4.858337
201.8440, 4.253418
202.3261, 3.293945
202.8082, 2.708496
203.2903, 2.557617
203.7725, 2.380249
204.2546, 1.727783
204.7367, 0.7693480
205.2188, 1.3550000E-02
205.7009, 0.6661380
206.1830, 1.037415
206.6652, 0.7566530
207.1473, 0.3693240
207.6294, 1.411743
208.1115, 1.649536
208.5936, 1.395264
209.0757, 1.067017
209.5579, 0.8109130
210.0400, 0.5755620
210.5221, 0.2464600
211.0042, 0.2084350
211.4863, 0.4926150
211.9685, 0.9486080
212.4506, 1.396301
212.9327, 1.525574
213.4148, 1.090332
213.8969, 0.2893680
214.3790, 0.2141720
214.8612, 8.5631996E-02
215.3433, 0.2301030
215.8254, 1.215393
216.3075, 2.569885
216.7896, 3.633057
217.2717, 3.994202
217.7539, 3.812866
218.2360, 3.824646
218.7181, 4.319214
219.2002, 4.621277
219.6823, 4.293945
220.1644, 3.747253
220.6466, 3.600098
221.1287, 4.267761
221.6108, 5.568909
222.0929, 6.466797
222.5750, 6.609314
223.0571, 6.688904
223.5393, 6.858521
224.0214, 7.024902
224.5035, 7.028687
224.9856, 6.764160
225.4677, 6.286011
225.9498, 5.959473
226.4320, 5.672546
226.9141, 5.578125
227.3962, 5.764648
227.8783, 6.279907
228.3604, 7.280212
228.8425, 8.913025
229.3247, 10.96014
229.8068, 12.14093
230.2889, 11.97955
230.7710, 11.56299
231.2531, 10.70703
231.7352, 9.769653
232.2174, 9.405457
232.6995, 10.01813
233.1816, 11.35498
233.6637, 12.30756
234.1458, 12.87927
234.6279, 13.14960
235.1101, 12.89459
235.5922, 12.34961
236.0743, 11.99335
236.5564, 12.07880
237.0385, 12.48047
237.5206, 12.84534
238.0028, 13.47028
238.4849, 13.64288
238.9670, 12.60345
239.4491, 10.93665
239.9312, 10.03729
240.4133, 10.68365
240.8955, 12.17365
241.3776, 12.97809
241.8597, 13.10272
242.3418, 12.75201
242.8239, 11.55859
243.3060, 9.905334
243.7882, 8.901550
244.2703, 9.100830
244.7524, 9.903320
245.2345, 10.39032
245.7166, 10.59613
246.1987, 10.45618
246.6809, 9.672119
247.1630, 8.465149
247.6451, 7.559326
248.1272, 7.175415
248.6093, 7.168274
249.0914, 7.480957
249.5736, 8.133484
250.0557, 8.506409
250.5378, 7.885132
251.0199, 6.599365
251.5020, 6.099060
251.9841, 7.114624
252.4663, 8.350037
252.9484, 8.642273
253.4305, 8.069824
253.9126, 7.265015
254.3947, 6.396729
254.8768, 5.541260
255.3590, 5.166809
255.8411, 5.702271
256.3232, 6.189697
256.8053, 5.772705
257.2874, 4.704590
257.7695, 3.890808
258.2516, 4.168091
258.7338, 5.276428
259.2159, 5.700439
259.6980, 4.771240
260.1801, 4.075256
260.6622, 4.687073
261.1443, 6.146484
261.6265, 7.420349
262.1086, 7.786987
262.5907, 7.448242
263.0728, 7.384094
263.5549, 7.875000
264.0370, 8.138855
264.5192, 7.728333
265.0013, 6.996460
265.4834, 6.464478
265.9655, 6.512939
266.4476, 6.910767
266.9297, 6.772156
267.4119, 5.560486
267.8940, 4.706482
268.3761, 4.951111
268.8582, 5.654419
269.3403, 5.942017
269.8224, 5.291260
270.3046, 4.191772
270.7867, 4.082397
271.2688, 5.690796
271.7509, 7.155029
272.2330, 8.444824
272.7151, 9.212952
273.1973, 8.909058
273.6794, 7.284363
274.1615, 5.090942
274.6436, 3.926147
275.1257, 4.255676
275.6078, 4.750122
276.0900, 5.308594
276.5721, 5.874573
277.0542, 6.402161
277.5363, 6.873352
278.0184, 7.293152
278.5005, 7.672363
278.9827, 8.012573
279.4648, 8.314331
279.9469, 8.458984
280.4290, 8.647400
280.9111, 9.119324
281.3932, 9.865601
281.8754, 10.57880
282.3575, 10.81183
282.8396, 10.32837
283.3217, 10.05951
283.8038, 10.19666
284.2859, 10.43011
284.7681, 10.61597
285.2502, 10.71094
285.7323, 10.68109
286.2144, 10.37891
286.6965, 9.591125
287.1786, 9.898010
287.6608, 12.47083
288.1429, 14.87469
288.6250, 16.17487
289.1071, 16.46533
289.5892, 16.31262
290.0714, 16.14313
290.5535, 15.96021
291.0356, 15.75446
291.5177, 15.37781
291.9998, 15.14160
292.4819, 15.29138
292.9641, 15.63696
293.4462, 15.81525
293.9283, 15.61694
294.4104, 15.06403
294.8925, 14.59204
295.3746, 14.09253
295.8568, 13.87579
296.3389, 14.18311
296.8210, 14.74542
297.3031, 15.34125
297.7852, 15.87750
298.2673, 16.12323
298.7495, 15.38763
299.2316, 12.22198
299.7137, 9.827026
300.1958, 8.665955
300.6779, 8.148438
301.1600, 7.737122
301.6422, 7.236938
302.1243, 6.702332
302.6064, 6.236877
303.0885, 5.836731
303.5706, 5.526001
304.0527, 5.222290
304.5349, 5.053101
305.0170, 5.225525
305.4991, 5.721802
305.9812, 6.239746
306.4633, 6.407837
306.9454, 6.146057
307.4276, 5.789978
307.9097, 5.203125
308.3918, 4.667664
308.8739, 4.301331
309.3560, 4.129211
309.8381, 4.199829
310.3203, 4.625366
310.8024, 5.471497
311.2845, 5.626221
311.7666, 4.163269
312.2487, 3.060486
312.7308, 3.354492
313.2130, 4.550293
313.6951, 5.531433
314.1772, 5.578674
314.6593, 4.800842
315.1414, 3.963013
315.6235, 2.626831
316.1057, 1.719788
316.5878, 1.530273
317.0699, 1.810242
317.5520, 2.399170
318.0341, 3.226257
318.5162, 4.017822
318.9984, 4.047302
319.4805, 1.965942
319.9626, 0.9023440
320.4447, 1.820129
320.9268, 3.254456
321.4089, 3.820862
321.8911, 3.172546
322.3732, 1.995056
322.8553, 1.288391
323.3374, 1.340332
323.8195, 1.193726
324.3016, 0.3791500
324.7838, 0.2393800
325.2659, 0.1038210
325.7480, 1.302185
326.2301, 2.536865
326.7122, 2.987610
327.1943, 2.540588
327.6765, 2.211243
328.1586, 1.974182
328.6407, 1.850708
329.1228, 2.011047
329.6049, 2.288757
330.0870, 2.267822
330.5692, 1.606201
331.0513, 0.4599000
331.5334, 5.4443002E-02
332.0155, 1.541687
332.4976, 2.497009
332.9797, 2.108032
333.4619, 1.145386
333.9440, 0.6606450
334.4261, 1.128418
334.9082, 2.129395
335.3904, 2.639526
335.8725, 2.161865
336.3546, 1.975708
336.8367, 2.460388
337.3188, 3.031189
337.8009, 3.205750
338.2831, 2.889404
338.7652, 2.321777
339.2473, 1.833191
339.7294, 1.512085
340.2115, 0.9705200
340.6936, 0.1323240
341.1758, 1.134094
341.6579, 1.743225
342.1400, 1.959839
342.6221, 1.892151
343.1042, 1.597534
343.5863, 1.079468
344.0685, 0.6499630
344.5506, 0.9097900
345.0327, 0.6286010
345.5148, 1.047241
345.9969, 3.343201
346.4790, 5.058838
346.9612, 5.537903
347.4433, 5.052429
347.9254, 4.423401
348.4075, 3.473511
348.8896, 2.693420
349.3717, 2.316162
349.8539, 2.015198
350.3360, 1.342590
350.8181, 0.2143550
351.3002, 0.7898560
351.7823, 0.6314700
352.2644, 1.240784
352.7466, 2.474426
353.2287, 2.417297
353.7108, 2.192810
354.1929, 2.382385
354.6750, 2.944885
355.1571, 3.488098
355.6393, 3.556519
356.1214, 3.127319
356.6035, 3.095337
357.0856, 4.080444
357.5677, 4.855530
358.0498, 4.587097
358.5320, 3.847351
359.0141, 3.759338
359.4962, 5.208801
359.9783, 7.349365
360.4604, 7.468811
360.9425, 4.350586
361.4247, 2.049683
361.9068, 2.502075
362.3889, 3.844910
362.8710, 4.268982
363.3531, 3.249084
363.8352, 2.114014
364.3174, 2.809753
364.7995, 5.611450
365.2816, 7.385620
365.7637, 6.874878
366.2458, 5.759583
366.7279, 4.801270
367.2101, 4.133972
367.6922, 4.088623
368.1743, 5.655396
368.6564, 8.232605
369.1385, 8.737610
369.6206, 5.874268
370.1028, 3.243958
370.5849, 3.597168
371.0670, 5.580688
371.5491, 6.815186
372.0312, 6.264038
372.5133, 4.768921
372.9955, 3.205994
373.4776, 1.528381
373.9597, 0.7095950
374.4418, 1.726013
374.9239, 3.438843
375.4060, 4.391785
375.8882, 4.354797
376.3703, 4.297119
376.8524, 4.965149
377.3345, 6.195618
377.8166, 7.344360
378.2987, 8.312195
378.7809, 9.071594
379.2630, 9.588135
379.7451, 9.886292
380.2272, 9.980774
380.7093, 9.499084
381.1914, 8.991089
381.6736, 9.279541
382.1557, 10.44849
382.6378, 11.85364
383.1199, 13.24396
383.6020, 14.48590
384.0841, 15.18451
384.5663, 14.89362
385.0484, 14.49969
385.5305, 14.36456
386.0126, 14.51855
386.4947, 15.16229
386.9768, 16.51440
387.4590, 18.12012
387.9411, 18.91559
388.4232, 18.62360
388.9053, 18.52631
389.3874, 19.05164
389.8695, 19.81909
390.3517, 20.45660
390.8338, 20.88489
391.3159, 21.09308
391.7980, 21.06677
392.2801, 20.78436
392.7622, 20.31512
393.2444, 19.44055
393.7265, 18.60504
394.2086, 18.20715
394.6907, 18.05157
395.1728, 17.54852
395.6549, 16.32013
396.1371, 14.59698
396.6192, 13.35516
397.1013, 13.04443
397.5834, 12.67163
398.0655, 12.00513
398.5476, 11.32416
399.0298, 10.99915
399.5119, 11.10095
399.9940, 11.20203
400.4761, 10.71655
400.9582, 9.554810
401.4403, 8.168762
401.9225, 6.143250
402.4046, 4.271118
402.8867, 2.872559
403.3688, 1.989746
403.8509, 1.599792
404.3330, 1.788086
404.8152, 2.389160
405.2973, 2.422058
405.7794, 1.234192
406.2615, 0.4534300
406.7436, 0.3898930
407.2257, 0.8252560
407.7079, 1.735840
408.1900, 3.084473
408.6721, 4.338745
409.1542, 4.748718
409.6363, 4.303040
410.1184, 3.397095
410.6006, 1.389099
411.0827, 0.5336910
411.5648, 1.905762
412.0469, 2.693359
412.5290, 2.895203
413.0111, 2.199951
413.4933, 0.9674070
413.9754, 0.4392700
414.4575, 0.8700560
414.9396, 1.316772
415.4217, 1.592224
415.9038, 1.528748
416.3860, 0.7377320
416.8681, 1.082031
417.3502, 2.942444
417.8323, 3.817505
418.3144, 3.810364
418.7965, 3.817200
419.2787, 4.144104
419.7608, 4.417725
420.2429, 4.191345
420.7250, 3.505432
421.2071, 2.754822
421.6892, 1.856506
422.1714, 1.064148
422.6535, 0.8551030
423.1356, 1.263611
423.6177, 1.607117
424.0998, 1.298035
424.5819, 0.5824580
425.0641, 0.5161130
425.5462, 1.526306
426.0283, 2.633789
426.5104, 3.493469
426.9925, 4.150452
427.4746, 4.790771
427.9568, 5.515747
428.4389, 5.934204
428.9210, 5.388733
429.4031, 3.387695
429.8852, 1.749756
430.3673, 0.4246830
430.8495, 0.5064700
431.3316, 1.141052
431.8137, 1.383911
432.2958, 0.7534790
432.7779, 1.236450
433.2600, 4.299927
433.7422, 6.078186
434.2243, 5.454285
434.7064, 4.812439
435.1885, 3.872375
435.6706, 3.310730
436.1527, 4.247986
436.6349, 6.865479
437.1170, 9.726013
437.5991, 10.52728
438.0812, 8.335266
438.5633, 7.519287
439.0454, 9.711243
439.5276, 11.76562
440.0097, 12.40179
440.4918, 11.90088
440.9739, 11.08246
441.4560, 10.34888
441.9381, 9.770020
442.4203, 9.594116
442.9024, 10.00220
443.3845, 10.35034
443.8666, 10.42126
444.3487, 10.37268
444.8308, 10.22528
445.3130, 9.989563
445.7951, 9.986206
446.2772, 10.56897
446.7593, 11.64423
447.2414, 12.75397
447.7235, 13.89850
448.2057, 14.96436
448.6878, 15.94110
449.1699, 16.78400
449.6520, 17.30731
450.1341, 17.09662
450.6162, 16.88519
451.0984, 17.50165
451.5805, 18.80701
452.0626, 19.96942
452.5447, 20.70367
453.0268, 21.04486
453.5089, 20.87219
453.9911, 19.97748
454.4732, 19.58124
454.9553, 20.28644
455.4374, 21.42694
455.9195, 22.50702
456.4016, 23.39722
456.8838, 23.77393
457.3659, 23.29279
457.8480, 22.01245
458.3301, 21.00745
458.8122, 20.17749
459.2943, 19.68176
459.7765, 19.94928
460.2586, 20.42871
460.7407, 20.40759
461.2228, 19.65308
461.7049, 18.41748
462.1870, 16.93054
462.6692, 14.78937
463.1513, 13.75848
463.6334, 15.01483
464.1155, 16.17102
464.5976, 16.13922
465.0797, 15.22290
465.5619, 14.20209
466.0440, 13.51056
466.5261, 13.11914
467.0082, 12.98181
467.4903, 13.15613
467.9724, 13.42645
468.4546, 13.91760
468.9367, 14.30951
469.4188, 14.37335
469.9009, 14.11963
470.3830, 13.70190
470.8651, 13.13623
471.3473, 12.54376
471.8294, 12.21484
472.3115, 12.09552
472.7936, 12.21515
473.2757, 12.88586
473.7578, 13.78705
474.2400, 14.29608
474.7221, 14.14594
475.2042, 13.83929
475.6863, 13.73846
476.1684, 13.78674
476.6505, 13.90521
477.1327, 14.13605
477.6148, 14.15765
478.0969, 13.45575
478.5790, 11.90424
479.0611, 10.59912
479.5432, 9.486755
480.0254, 8.745972
480.5075, 8.796936
480.9896, 9.349243
481.4717, 9.448669
481.9538, 8.489929
482.4359, 7.091858
482.9181, 7.056702
483.4002, 9.960999
483.8823, 11.95563
484.3644, 12.53467
484.8465, 12.58759
485.3286, 12.88806
485.8108, 13.37164
486.2929, 13.27087
486.7750, 11.70111
487.2571, 8.942200
487.7392, 7.458130
488.2213, 7.756165
488.7035, 8.529297
489.1856, 9.977966
489.6677, 11.38232
490.1498, 11.88440
490.6319, 11.27612
491.1140, 10.44403
491.5962, 10.41571
492.0783, 11.06628
492.5604, 11.31830
493.0425, 10.84381
493.5246, 10.39594
494.0067, 10.64349
494.4889, 11.33051
494.9710, 11.90649
495.4531, 12.22900
495.9352, 12.43195
496.4173, 12.50507
496.8994, 12.52826
497.3816, 12.85614
497.8637, 13.66272
498.3458, 14.61932
498.8279, 15.31305
499.3100, 15.72626
499.7921, 15.93610
500.2743, 16.01654
500.7564, 15.87469
501.2385, 14.94617
501.7206, 13.68701
502.2027, 13.52521
502.6848, 15.31580
503.1670, 18.21881
503.6491, 19.86206
504.1312, 19.05701
504.6133, 18.90887
505.0954, 19.51404
505.5775, 20.77271
506.0597, 23.29645
506.5418, 26.58624
507.0239, 28.89960
507.5060, 28.57281
507.9881, 26.27234
508.4702, 25.28107
508.9524, 26.22137
509.4345, 27.06775
509.9166, 27.04865
510.3987, 26.70209
510.8808, 26.56293
511.3629, 26.71863
511.8451, 26.65411
512.3271, 25.90662
512.8093, 24.65027
513.2914, 23.34033
513.7735, 21.99390
514.2556, 20.72235
514.7377, 19.49603
515.2198, 18.43353
515.7020, 17.88141
516.1841, 18.39429
516.6662, 18.62677
517.1483, 17.67474
517.6304, 16.14209
518.1125, 14.98444
518.5947, 14.43713
519.0768, 14.28766
519.5589, 14.41821
520.0410, 14.94556
520.5231, 14.55414
521.0052, 12.13959
521.4874, 10.19550
521.9695, 9.575623
522.4516, 9.880920
522.9337, 10.80096
523.4158, 12.16046
523.8979, 13.24225
524.3801, 12.70203
524.8622, 10.07013
525.3443, 8.336243
525.8264, 8.199158
526.3085, 8.332947
526.7906, 8.111938
527.2728, 7.747131
527.7549, 7.728821
528.2370, 8.392456
528.7191, 9.166687
529.2012, 9.314575
529.6833, 8.863464
530.1655, 8.164124
530.6476, 7.071411
531.1297, 6.135925
531.6118, 6.179749
532.0939, 7.051514
532.5760, 7.704102
533.0582, 7.915894
533.5403, 7.851074
534.0224, 7.535278
534.5045, 7.041504
534.9866, 6.521118
535.4688, 6.027466
535.9509, 5.664124
536.4330, 5.669312
536.9151, 6.400940
537.3972, 6.639465
537.8793, 6.087402
538.3615, 5.367615
538.8436, 4.724060
539.3257, 4.200806
539.8078, 3.752869
540.2899, 3.331055
540.7720, 3.094727
541.2542, 3.569702
541.7363, 5.135132
542.2184, 6.105347
542.7005, 5.566040
543.1826, 4.905640
543.6647, 5.082520
544.1469, 5.893127
544.6290, 6.386902
545.1111, 5.939880
545.5932, 5.012085
546.0753, 4.162170
546.5574, 3.402710
547.0396, 3.034851
547.5217, 3.362000
548.0038, 3.888367
548.4859, 3.680420
548.9680, 2.641846
549.4501, 2.039795
549.9323, 2.521667
550.4144, 3.189880
550.8965, 3.447693
551.3786, 3.271362
551.8607, 2.720154
552.3428, 1.794373
552.8250, 0.6912840
553.3071, 0.1055300
553.7892, 0.5395510
554.2713, 0.7485960
554.7534, 0.6871950
555.2355, 0.4743650
555.7177, 3.3507999E-02
556.1998, 0.6427000
556.6819, 0.8682250
557.1640, 0.3442380
557.6461, 0.5623780
558.1282, 0.9367680
558.6104, 0.6308590
559.0925, 0.8137820
559.5746, 2.373169
560.0567, 3.901794
560.5388, 4.087585
561.0209, 3.077332
561.5031, 1.961365
561.9852, 1.017334
562.4673, 0.2451780
562.9494, 0.2996220
563.4315, 0.6530150
563.9136, 0.9758910
564.3958, 1.325256
564.8779, 1.698914
565.3600, 2.105774
565.8421, 2.598694
566.3242, 2.950073
566.8063, 3.270142
567.2885, 3.369080
567.7706, 2.877136
568.2527, 2.066833
568.7348, 1.424683
569.2169, 1.180969
569.6990, 1.287659
570.1812, 1.739136
570.6633, 2.682312
571.1454, 3.373474
571.6275, 3.543274
572.1096, 3.667419
572.5917, 3.866150
573.0739, 4.211121
573.5560, 4.877991
574.0381, 6.084045
574.5202, 7.372192
575.0023, 8.256348
575.4844, 8.770508
575.9666, 9.044800
576.4487, 9.043823
576.9308, 9.033081
577.4129, 9.332825
577.8950, 9.950134
578.3771, 10.38391
578.8593, 10.28491
579.3414, 10.36182
579.8235, 11.15063
580.3056, 12.25635
580.7877, 12.97083
581.2698, 13.10089
581.7520, 13.12079
582.2341, 13.67926
582.7162, 14.86987
583.1984, 15.69885
583.6805, 15.95013
584.1626, 16.08636
584.6447, 16.24823
585.1268, 16.36749
585.6089, 16.33771
586.0911, 16.12939
586.5732, 15.87500
587.0553, 15.51093
587.5374, 15.17926
588.0195, 15.63806
588.5016, 17.15631
588.9838, 18.39612
589.4659, 18.39594
589.9480, 17.51178
590.4301, 16.86731
590.9122, 16.38196
591.3943, 16.28986
591.8765, 17.18597
592.3586, 18.19830
592.8407, 18.26593
593.3228, 17.38727
593.8049, 16.31805
594.2870, 15.56738
594.7692, 15.14813
595.2513, 15.15265
595.7334, 16.10809
596.2155, 16.54150
596.6976, 15.73102
597.1797, 14.87726
597.6619, 15.04596
598.1440, 16.00604
598.6261, 16.49200
599.1082, 15.33240
599.5903, 13.60760
600.0724, 13.54230
600.5546, 15.14215
601.0367, 16.35693
601.5188, 16.50421
602.0009, 16.05829
602.4830, 15.49927
602.9651, 14.81525
603.4473, 14.18854
603.9294, 13.65082
604.4115, 13.17981
604.8936, 12.75555
605.3757, 12.39496
605.8578, 12.18658
606.3400, 12.15948
606.8221, 12.12720
607.3042, 11.81818
607.7863, 11.20135
608.2684, 10.55212
608.7505, 9.753845
609.2327, 9.087402
609.7148, 8.594055
610.1969, 8.305115
610.6790, 8.337402
611.1611, 8.734863
611.6432, 9.085999
612.1254, 9.126587
612.6075, 8.842346
613.0896, 8.077637
613.5717, 6.766907
614.0538, 5.630310
614.5359, 5.170837
615.0181, 5.159180
615.5002, 4.910095
615.9823, 4.077332
616.4644, 3.833435
616.9465, 5.173950
617.4286, 6.503845
617.9108, 6.250183
618.3929, 4.787964
618.8750, 3.610657
619.3571, 3.613892
619.8392, 4.312195
620.3214, 4.591553
620.8035, 4.350586
621.2856, 3.920837
621.7677, 3.166748
622.2498, 2.391479
622.7319, 1.777527
623.2141, 1.288025
623.6962, 0.7644040
624.1783, 7.1106002E-02
624.6604, 0.6401370
625.1425, 9.5092997E-02
625.6246, 1.253052
626.1068, 2.398315
626.5889, 3.161133
627.0710, 3.350159
627.5531, 2.631104
628.0352, 1.011658
628.5173, 0.2214360
628.9995, 0.7022710
629.4816, 1.385925
629.9637, 2.227417
630.4458, 3.059631
630.9279, 3.693481
631.4100, 4.134888
631.8922, 4.617615
632.3743, 5.287476
632.8564, 5.981445
633.3385, 6.517212
633.8206, 6.996887
634.3027, 6.855225
634.7849, 5.099915
635.2670, 3.436401
635.7491, 3.834473
636.2312, 6.068909
636.7133, 7.795044
637.1954, 7.868408
637.6776, 7.233765
638.1597, 6.645691
638.6418, 6.146729
639.1239, 5.828430
639.6060, 5.724854
640.0881, 5.467834
640.5703, 4.463562
641.0524, 2.556335
641.5345, 1.759216
642.0166, 3.549683
642.4987, 4.748901
642.9808, 4.383667
643.4630, 3.302124
643.9451, 2.310425
644.4272, 1.605408
644.9093, 1.131531
645.3914, 0.8300170
645.8735, 0.7363280
646.3557, 1.036987
646.8378, 1.729370
647.3199, 2.334229
647.8020, 2.716309
648.2841, 2.860352
648.7662, 2.585510
649.2484, 1.713074
649.7305, 1.175415
650.2126, 1.258301
650.6947, 1.492554
651.1768, 1.602661
651.6589, 1.679443
652.1411, 1.817688
652.6232, 2.090088
653.1053, 2.785034
653.5874, 4.676514
654.0695, 7.806030
654.5516, 8.880859
655.0338, 6.980835
655.5159, 4.860352
655.9980, 3.407410
656.4801, 2.527771
656.9622, 2.339722
657.4443, 2.910400
657.9265, 3.284424
658.4086, 2.947937
658.8907, 2.273254
659.3728, 1.218872
659.8549, 0.1080320
660.3370, 0.2941280
660.8192, 2.481079
661.3013, 5.487183
661.7834, 7.281494
662.2655, 7.730957
662.7476, 7.471802
663.2297, 5.613953
663.7119, 4.017883
664.1940, 3.502014
664.6761, 3.474182
665.1582, 3.027405
665.6403, 1.919312
666.1224, 1.006897
666.6046, 1.336670
667.0867, 2.319153
667.5688, 2.454407
668.0509, 1.653259
668.5330, 0.7650150
669.0151, 0.1312260
669.4973, 0.2211300
669.9794, 0.1797490
670.4615, 0.5297850
670.9436, 0.8825070
671.4257, 0.4276120
671.9078, 5.4809999E-02
672.3900, 0.3201290
672.8721, 0.9574580
673.3542, 1.548889
673.8363, 1.926758
674.3184, 2.002441
674.8005, 1.505554
675.2827, 0.5175170
675.7648, 0.1494140
676.2469, 0.4880370
676.7290, 0.4407960
677.2111, 0.3553470
677.6932, 1.414124
678.1754, 1.613647
678.6575, 0.7701420
679.1396, 0.1826780
679.6217, 0.4658200
680.1038, 0.8334350
680.5859, 0.5383300
681.0681, 0.1344600
681.5502, 0.4537350
682.0323, 0.1309810
682.5144, 0.5291140
682.9965, 1.342651
683.4786, 2.349548
683.9608, 2.352112
684.4429, 0.5904540
684.9250, 0.8070070
685.4071, 0.7806400
685.8892, 5.8410998E-02
686.3713, 0.7563480
686.8535, 1.622070
687.3356, 2.173523
687.8177, 2.231689
688.2998, 1.912537
688.7819, 0.8789670
689.2640, 0.4639890
689.7462, 0.6829220
690.2283, 0.7945560
690.7104, 2.717468
691.1925, 3.240417
691.6746, 2.159851
692.1567, 1.618408
692.6389, 2.456299
693.1210, 2.668762
693.6031, 0.8222050
694.0852, 1.293762
694.5673, 1.596680
695.0494, 7.2448999E-02
695.5316, 1.658020
696.0137, 2.033630
696.4958, 1.763489
696.9779, 1.407471
697.4600, 1.035156
697.9421, 0.9401250
698.4243, 1.261047
698.9064, 1.585632
699.3885, 1.324890
699.8706, 0.4323730
700.3527, 0.1049190
700.8348, 0.9206540
701.3170, 1.639221
701.7991, 2.227722
702.2812, 2.504944
702.7633, 2.081360
703.2454, 1.071716
703.7275, 0.3148190
704.2097, 0.5654300
704.6918, 1.176086
705.1739, 0.9402470
705.6560, 4.7729000E-02
706.1381, 0.1005860
706.6202, 1.008118
707.1024, 2.218933
707.5845, 2.297607
708.0666, 1.261780
708.5487, 0.5834960
709.0308, 0.4879150
709.5129, 0.4218140
709.9951, 7.8612998E-02
710.4772, 0.1036990
710.9593, 0.4051510
711.4414, 1.467651
711.9235, 2.467346
712.4056, 3.157043
712.8878, 3.394775
713.3699, 2.622253
713.8520, 1.047302
714.3341, 0.2607420
714.8162, 0.6224980
715.2983, 1.381653
715.7805, 2.075134
716.2626, 2.714844
716.7447, 3.168579
717.2268, 3.546692
717.7089, 3.604675
718.1910, 3.091736
718.6732, 2.477661
719.1553, 2.042603
719.6374, 1.792542
720.1195, 1.648560
720.6016, 1.583130
721.0837, 1.568604
721.5659, 1.528015
722.0480, 1.491821
722.5301, 1.745239
723.0122, 2.398315
723.4943, 2.756775
723.9764, 2.268982
724.4586, 1.311707
724.9407, 0.8139650
725.4228, 0.8154300
725.9049, 1.159973
726.3870, 2.312744
726.8691, 3.321411
727.3513, 3.472290
727.8334, 3.185303
728.3155, 3.301208
728.7976, 4.041565
729.2797, 4.651367
729.7618, 4.082092
730.2440, 2.745117
730.7261, 2.199280
731.2082, 2.544434
731.6903, 2.690430
732.1724, 2.061951
732.6545, 1.263184
733.1367, 1.305359
733.6188, 2.469666
734.1009, 2.668579
734.5830, 0.6886600
735.0651, 0.7095340
735.5472, 0.1316530
736.0294, 1.199707
736.5115, 1.838562
736.9936, 1.602356
737.4757, 1.325012
737.9578, 1.697266
738.4399, 2.329529
738.9221, 2.350647
739.4042, 1.808167
739.8863, 1.407593
740.3684, 1.317749
740.8505, 1.371155
741.3326, 1.414551
741.8148, 1.465759
742.2969, 1.770691
742.7790, 2.869446
743.2611, 3.381714
743.7432, 2.452087
744.2253, 1.516357
744.7075, 2.009216
745.1896, 3.415833
745.6717, 4.042419
746.1538, 2.957214
746.6359, 1.393372
747.1180, 0.4711300
747.6002, 0.2881470
748.0823, 1.612610
748.5644, 4.563599
749.0465, 6.599854
749.5286, 6.057495
750.0107, 3.890076
750.4929, 2.335632
750.9750, 1.617432
751.4571, 0.9451290
751.9392, 0.3820800
752.4213, 1.007446
752.9034, 0.4868770
753.3856, 2.668030
753.8677, 3.545227
754.3498, 2.712708
754.8319, 1.683960
755.3140, 1.846313
755.7961, 2.386475
756.2783, 1.623169
756.7604, 0.1491090
757.2425, 1.086975
757.7246, 0.5483400
758.2067, 0.6645510
758.6888, 1.730225
759.1710, 2.633911
759.6531, 3.245667
760.1352, 3.552734
760.6173, 3.557922
761.0994, 2.920776
761.5815, 2.271423
762.0637, 2.160828
762.5458, 2.483643
763.0279, 2.743958
763.5100, 2.740662
763.9921, 2.597046
764.4742, 2.268799
764.9564, 1.941345
765.4385, 2.143982
765.9206, 2.846191
766.4027, 3.386841
766.8848, 3.357666
767.3669, 2.902954
767.8491, 2.291870
768.3312, 1.423035
768.8133, 0.8331910
769.2954, 0.6433720
769.7775, 0.5518800
770.2596, 0.5729980
770.7418, 0.5377810
771.2239, 9.2101999E-02
771.7060, 0.8822020
772.1881, 1.463562
772.6702, 1.047363
773.1523, 0.2949830
773.6345, 0.4375000
774.1166, 1.044312
774.5987, 1.342651
775.0808, 1.299194
775.5629, 1.095337
776.0450, 0.8577880
776.5272, 0.6392820
777.0093, 0.7418210
777.4914, 1.236572
777.9735, 1.707275
778.4556, 2.168457
778.9377, 2.413452
779.4199, 2.054688
779.9020, 1.274780
780.3841, 0.9671020
780.8662, 1.283142
781.3483, 1.895874
781.8304, 3.165283
782.3126, 4.329590
782.7947, 4.793152
783.2768, 4.605469
783.7589, 3.888000
784.2410, 2.658691
784.7231, 1.608826
785.2053, 1.971924
785.6874, 3.249634
786.1695, 3.224976
786.6516, 1.719666
787.1337, 0.5814210
787.6158, 0.7192990
788.0980, 1.408325
788.5801, 1.547546
789.0622, 1.025452
789.5443, 0.7280270
790.0264, 0.4918820
790.5085, 0.6807860
790.9907, 1.873779
791.4728, 3.181763
791.9549, 3.647095
792.4370, 3.361328
792.9191, 3.224670
793.4012, 4.082703
793.8834, 4.924011
794.3655, 4.429443
794.8476, 3.228210
795.3297, 2.841614
795.8118, 3.379456
796.2939, 3.567017
796.7761, 2.480042
797.2582, 0.8804320
797.7403, 0.7778930
798.2224, 2.712158
798.7045, 3.817810
799.1866, 3.627625
799.6688, 3.254395
800.1509, 3.154053
800.6330, 3.184753
801.1151, 3.113831
801.5972, 2.904846
802.0793, 2.980835
802.5615, 3.840027
803.0436, 4.645203
803.5257, 4.626831
804.0078, 4.329712
804.4899, 4.816833
804.9720, 6.092834
805.4542, 6.907410
805.9363, 6.126282
806.4184, 4.534790
806.9005, 3.946289
807.3826, 4.310364
807.8647, 4.495605
808.3469, 4.262268
808.8290, 4.060181
809.3111, 4.208679
809.7932, 4.588745
810.2753, 4.906128
810.7574, 5.212891
811.2396, 5.594421
811.7217, 6.446838
812.2038, 6.920166
812.6859, 6.207458
813.1680, 5.118591
813.6501, 4.837402
814.1323, 5.548767
814.6144, 6.270203
815.0965, 6.413513
815.5786, 6.257935
816.0607, 5.871155
816.5428, 5.349121
817.0250, 4.995544
817.5071, 4.872620
817.9892, 4.848755
818.4713, 4.806519
818.9534, 4.793945
819.4355, 5.018250
819.9177, 5.557556
820.3998, 5.943542
820.8819, 6.116455
821.3640, 6.150696
821.8461, 6.007935
822.3282, 5.775085
822.8104, 5.624084
823.2925, 5.552734
823.7746, 5.607300
824.2567, 5.970520
824.7388, 6.290588
825.2209, 6.355896
825.7031, 6.264404
826.1852, 6.100159
826.6673, 5.917908
827.1494, 5.899719
827.6315, 6.415527
828.1136, 6.934082
828.5958, 6.250763
829.0779, 4.672699
829.5600, 3.671387
830.0421, 3.544220
830.5242, 3.947388
831.0063, 4.675598
831.4885, 5.560608
831.9706, 6.200073
832.4527, 6.593689
832.9348, 6.687164
833.4169, 6.173401
833.8990, 5.747620
834.3812, 5.751465
834.8633, 5.958130
835.3454, 6.113068
835.8275, 6.094452
836.3096, 6.143036
836.7917, 6.514984
837.2739, 6.923279
837.7560, 7.233154
838.2381, 7.343292
838.7202, 7.097321
839.2023, 6.549805
839.6844, 5.936157
840.1666, 5.364380
840.6487, 5.005066
841.1308, 5.239777
841.6129, 6.003754
842.0950, 6.907623
842.5771, 7.957062
843.0593, 8.635468
843.5414, 8.520966
844.0235, 7.853882
844.5056, 7.239563
844.9877, 6.667542
845.4698, 6.258820
845.9520, 6.122040
846.4341, 6.009460
846.9162, 5.758179
847.3983, 5.599060
847.8804, 5.906830
848.3625, 6.464935
848.8447, 6.735992
849.3268, 6.248749
849.8089, 5.881042
850.2910, 6.306580
850.7731, 6.988708
851.2552, 7.358582
851.7374, 7.383820
852.2195, 7.160492
852.7016, 6.730499
853.1837, 6.334381
853.6658, 6.548157
854.1479, 7.104279
854.6301, 6.443115
855.1122, 4.508820
855.5943, 3.142944
856.0764, 3.053101
856.5585, 3.452026
857.0406, 3.453003
857.5228, 3.138123
858.0049, 3.547729
858.4870, 5.578094
858.9691, 6.806458
859.4512, 6.420685
859.9333, 5.852173
860.4155, 5.979736
860.8976, 6.417877
861.3797, 6.331085
861.8618, 5.480896
862.3439, 4.754761
862.8260, 4.671539
863.3082, 4.717072
863.7903, 4.517059
864.2724, 4.148834
864.7545, 3.659637
865.2366, 3.121033
865.7188, 2.823181
866.2009, 3.010956
866.6830, 3.531830
867.1651, 4.260193
867.6472, 5.102173
868.1293, 5.365021
868.6115, 4.917511
869.0936, 4.501862
869.5757, 4.580841
870.0578, 4.915436
870.5399, 5.028625
871.0220, 4.904541
871.5042, 4.628754
871.9863, 4.162170
872.4684, 3.615326
872.9505, 2.987854
873.4326, 2.326904
873.9147, 1.539459
874.3969, 0.7068480
874.8790, 0.3343810
875.3611, 0.9367980
875.8432, 1.427612
876.3253, 1.208954
876.8074, 0.9095460
877.2896, 1.230194
877.7717, 1.906860
878.2538, 2.102875
878.7359, 1.521271
879.2180, 1.079529
879.7001, 2.077393
880.1823, 3.555145
880.6644, 3.504730
881.1465, 2.264771
881.6286, 1.462433
882.1107, 1.537201
882.5928, 1.678040
883.0750, 1.132111
883.5571, 0.2289730
884.0392, 0.1492000
884.5213, 1.108398
885.0034, 1.597595
885.4855, 1.278473
885.9677, 0.9622190
886.4498, 0.9826660
886.9319, 1.319763
887.4140, 2.198395
887.8961, 3.820557
888.3782, 4.328827
888.8604, 2.412811
889.3425, 1.132416
889.8246, 1.906891
890.3067, 3.196350
890.7888, 3.937561
891.2709, 3.957886
891.7531, 3.084778
892.2352, 0.8629150
892.7173, 0.9375310
893.1994, 0.4840700
893.6815, 0.6210020
894.1636, 0.3921810
894.6458, 0.7355350
895.1279, 1.452240
895.6100, 1.349579
896.0921, 0.9243770
896.5742, 0.6081850
897.0563, 0.3751830
897.5385, 0.1893920
898.0206, 4.9651999E-02
898.5027, 0.2745360
898.9848, 0.8724980
899.4669, 1.079865
899.9490, 0.3204960
900.4312, 0.8354490
900.9133, 1.028900
901.3954, 2.0996001E-02
901.8775, 0.7192080
902.3596, 0.7364200
902.8417, 0.9812930
903.3239, 2.420837
903.8060, 3.644379
904.2881, 2.857330
904.7702, 0.4747010
905.2523, 0.8074950
905.7344, 0.1647340
906.2166, 1.032440
906.6987, 1.127045
907.1808, 1.028595
907.6629, 1.120056
908.1450, 1.339508
908.6271, 1.502197
909.1093, 1.561523
909.5914, 1.620941
910.0735, 1.943420
910.5556, 2.137726
911.0377, 1.480560
911.5198, 0.4511410
912.0020, 0.1701050
912.4841, 0.6995240
912.9662, 1.148590
913.4483, 0.9375000
913.9304, 0.4720760
914.4125, 0.3992000
914.8947, 0.6955870
915.3768, 1.342163
915.8589, 2.380981
916.3410, 2.715393
916.8231, 1.815216
917.3052, 0.5805360
917.7874, 3.3904999E-02
918.2695, 5.4657001E-02
918.7516, 0.3333130
919.2337, 1.462219
919.7158, 2.215210
920.1979, 2.493378
920.6801, 2.367554
921.1622, 1.316589
921.6443, 0.1148380
922.1264, 0.2099300
922.6085, 1.893738
923.0906, 3.008545
923.5728, 2.692047
924.0549, 2.456940
924.5370, 3.093445
925.0191, 3.883362
925.5012, 4.115540
925.9833, 3.859314
926.4655, 3.566986
926.9476, 3.391418
927.4297, 3.259735
927.9118, 3.109589
928.3939, 2.983398
928.8760, 2.998322
929.3582, 3.060822
929.8403, 2.883514
930.3224, 2.445099
930.8045, 2.145660
931.2866, 2.338287
931.7687, 2.799896
932.2509, 3.191376
932.7330, 3.497711
933.2151, 3.639862
933.6972, 3.611664
934.1793, 3.369873
934.6614, 2.864044
935.1436, 2.382446
935.6257, 2.389984
936.1078, 2.850800
936.5899, 3.071198
937.0720, 3.060150
937.5541, 2.742126
938.0363, 1.966187
938.5184, 1.119751
939.0005, 0.3431700
939.4826, 0.2365420
939.9647, 0.1891480
940.4468, 0.9007260
940.9290, 1.468445
941.4111, 1.150452
941.8932, 0.7871700
942.3753, 0.5935060
942.8574, 0.4779970
943.3395, 0.4178160
943.8217, 0.3653560
944.3038, 9.9212997E-02
944.7859, 0.7800290
945.2680, 1.183105
945.7501, 0.1915890
946.2322, 0.9093930
946.7144, 1.117340
947.1965, 0.7536010
947.6786, 0.3507690
948.1607, 8.3984002E-02
948.6428, 0.1758730
949.1249, 1.241913
949.6071, 2.117035
950.0892, 0.9311520
950.5713, 1.000946
951.0534, 0.9731450
951.5355, 0.8093870
952.0176, 2.268097
952.4998, 2.434967
952.9819, 1.983490
953.4640, 1.692871
953.9461, 1.490662
954.4282, 0.8476560
954.9103, 9.6038997E-02
955.3925, 5.2887000E-02
955.8746, 1.246552
956.3567, 2.757660
956.8388, 3.794739
957.3209, 4.389069
957.8030, 4.569977
958.2852, 4.249878
958.7673, 3.751984
959.2494, 2.982513
959.7315, 2.783295
960.2136, 3.557739
960.6957, 4.736023
961.1779, 5.956238
961.6600, 7.098328
962.1421, 7.481964
962.6242, 6.479370
963.1063, 5.891235
963.5884, 5.894196
964.0706, 6.334991
964.5527, 7.672180
965.0348, 9.080109
965.5169, 9.362000
965.9990, 8.622009
966.4811, 8.695129
966.9633, 10.75256
967.4454, 12.33365
967.9275, 12.53262
968.4096, 12.43881
968.8917, 12.67932
969.3738, 13.18323
969.8560, 13.71136
970.3381, 14.22916
970.8202, 14.98056
971.3023, 16.37128
971.7844, 17.69717
972.2665, 18.46643
972.7487, 18.93018
973.2308, 19.27319
973.7129, 19.60226
974.1950, 20.08167
974.6771, 20.76968
975.1592, 21.52127
975.6414, 22.28641
976.1235, 22.97583
976.6056, 23.33823
977.0877, 23.54800
977.5698, 24.16840
978.0519, 25.17926
978.5341, 25.88910
979.0162, 25.86896
979.4983, 25.52249
979.9804, 25.45352
980.4625, 25.57642
980.9446, 25.48413
981.4268, 25.20157
981.9089, 25.09180
982.3910, 25.25473
982.8731, 25.56525
983.3552, 26.01077
983.8373, 26.27069
984.3195, 25.33838
984.8016, 23.13644
985.2837, 21.46310
985.7658, 20.35013
986.2479, 19.99573
986.7300, 20.64844
987.2122, 21.60858
987.6943, 22.31485
988.1764, 22.66589
988.6585, 21.96021
989.1406, 19.29837
989.6227, 18.28897
990.1049, 20.04294
990.5870, 21.67157
991.0691, 21.85065
991.5512, 21.48639
992.0333, 21.66211
992.5154, 22.35907
992.9976, 22.91769
993.4797, 23.04385
993.9618, 23.49573
994.4439, 24.47314
994.9260, 25.60483
995.4081, 26.72226
995.8903, 27.87573
996.3724, 29.14569
996.8545, 30.53922
997.3366, 32.01349
997.8187, 33.69266
998.3008, 35.36697
998.7830, 36.87024
999.2651, 38.47632
999.7472, 40.53629
1000.229, 42.63855
1000.711, 44.05798
1001.194, 44.72131
1001.676, 45.87631
1002.158, 48.37689
1002.640, 51.08609
1003.122, 53.86768
1003.604, 56.31146
1004.086, 57.64288
1004.568, 58.17032
1005.050, 58.85303
1005.533, 60.02353
1006.015, 61.12286
1006.497, 61.38519
1006.979, 61.78052
1007.461, 63.80743
1007.943, 66.30432
1008.425, 67.18332
1008.907, 66.70013
1009.390, 66.55328
1009.872, 67.40115
1010.354, 68.53333
1010.836, 69.48605
1011.318, 70.08817
1011.800, 69.88943
1012.282, 69.13974
1012.764, 68.33759
1013.246, 67.63858
1013.729, 67.31833
1014.211, 67.55023
1014.693, 67.73718
1015.175, 67.03632
1015.657, 65.69312
1016.139, 64.40768
1016.621, 63.14261
1017.103, 61.72989
1017.586, 60.13293
1018.068, 58.33426
1018.550, 56.34219
1019.032, 54.09579
1019.514, 51.39969
1019.996, 48.35028
1020.478, 45.73822
1020.960, 43.55029
1021.442, 41.49509
1021.925, 39.53473
1022.407, 37.33646
1022.889, 34.62076
1023.371, 31.74911
1023.853, 29.38336
1024.335, 27.52725
1024.817, 26.40585
1025.299, 26.22519
1025.781, 24.99927
1026.264, 21.94525
1026.746, 18.99945
1027.228, 17.66898
1027.710, 17.33255
1028.192, 16.52209
1028.674, 15.17496
1029.156, 13.85101
1029.638, 12.49905
1030.120, 11.36670
1030.603, 10.54004
1031.085, 9.879486
1031.567, 9.193604
1032.049, 8.678772
1032.531, 8.956421
1033.013, 10.38138
1033.495, 10.98102
1033.977, 10.43872
1034.460, 9.758148
1034.942, 9.278015
1035.424, 8.587006
1035.906, 7.122345
1036.388, 5.295563
1036.870, 4.334473
1037.352, 4.569427
1037.834, 4.538330
1038.317, 4.110992
1038.799, 3.615753
1039.281, 3.011536
1039.763, 2.478119
1040.245, 2.006989
1040.727, 1.725525
1041.209, 2.042053
1041.691, 3.212646
1042.173, 4.160767
1042.656, 5.331451
1043.138, 5.670868
1043.620, 4.288788
1044.102, 2.559570
1044.584, 1.352783
1045.066, 0.6304930
1045.548, 0.3004460
1046.030, 0.4820560
1046.512, 0.5289310
1046.995, 0.1260990
1047.477, 9.5794998E-02
1047.959, 0.3080140
1048.441, 0.7303770
1048.923, 0.5529480
1049.405, 4.8064999E-02
1049.887, 3.6835000E-02
1050.369, 0.5131530
1050.852, 0.8096010
1051.334, 0.4708860
1051.816, 0.1375430
1052.298, 3.4575999E-02
1052.780, 5.3192001E-02
1053.262, 0.2160640
1053.744, 0.5806880
1054.226, 0.5769040
1054.708, 6.9733001E-02
1055.191, 0.2985530
1055.673, 0.1324460
1056.155, 8.6121000E-02
1056.637, 0.8705140
1057.119, 1.475830
1057.601, 0.6860050
1058.083, 0.8172300
1058.565, 1.486450
1059.047, 0.9889220
1059.530, 0.4963070
1060.012, 0.5102230
1060.494, 0.4563600
1060.976, 0.1501770
1061.458, 0.6986080
1061.940, 0.5792240
1062.422, 5.5511001E-02
1062.904, 0.3133540
1063.387, 0.4197690
1063.869, 0.4755550
1064.351, 0.7558290
1064.833, 0.7479550
1065.315, 0.1966860
1065.797, 1.131531
1066.279, 1.172455
1066.761, 0.6578670
1067.244, 0.3334960
1067.726, 0.3041990
1068.208, 5.9356999E-02
1068.690, 1.796265
1069.172, 2.866852
1069.654, 1.568207
1070.136, 2.4352999E-02
1070.618, 0.1628110
1071.100, 0.5530090
1071.583, 1.031067
1072.065, 1.088531
1072.547, 1.064911
1073.029, 0.9537350
1073.511, 1.024353
1073.993, 1.599884
1074.475, 2.209961
1074.957, 2.491974
1075.439, 2.570343
1075.922, 2.525330
1076.404, 2.467377
1076.886, 2.847229
1077.368, 4.164307
1077.850, 5.169586
1078.332, 5.062500
1078.814, 4.680206
1079.297, 4.677063
1079.779, 4.741058
1080.261, 4.173737
1080.743, 3.177582
1081.225, 2.937256
1081.707, 4.074860
1082.189, 5.223785
1082.671, 5.876282
1083.153, 6.207947
1083.635, 6.131958
1084.118, 5.939514
1084.600, 5.934113
1085.082, 6.115356
1085.564, 6.436707
1086.046, 6.996307
1086.528, 7.077118
1087.010, 5.838806
1087.492, 4.687622
1087.975, 4.469177
1088.457, 4.672241
1088.939, 4.911774
1089.421, 5.071381
1089.903, 4.990143
1090.385, 4.606903
1090.867, 4.317627
1091.349, 4.395325
1091.832, 4.444519
1092.314, 4.149200
1092.796, 3.872253
1093.278, 4.121979
1093.760, 4.549866
1094.242, 4.398804
1094.724, 3.552795
1095.206, 2.817322
1095.688, 2.322540
1096.171, 2.157501
1096.653, 2.654358
1097.135, 3.179413
1097.617, 3.360352
1098.099, 3.249512
1098.581, 2.946930
1099.063, 2.470856
1099.545, 1.852966
1100.027, 0.7849730
1100.510, 9.9945001E-02
1100.992, 0.3352660
1101.474, 0.6278990
1101.956, 0.4120790
1102.438, 6.7230001E-02
1102.920, 3.1830002E-02
1103.402, 0.3022460
1103.884, 0.6861880
1104.367, 1.271637
1104.849, 1.669250
1105.331, 1.672699
1105.813, 1.652374
1106.295, 1.749329
1106.777, 1.866211
1107.259, 1.831696
1107.741, 1.759766
1108.224, 2.081787
1108.706, 3.097198
1109.188, 3.442932
1109.670, 2.056732
1110.152, 1.199188
1110.634, 1.848267
1111.116, 2.783752
1111.598, 3.479858
1112.080, 3.794006
1112.563, 3.234894
1113.045, 1.600159
1113.527, 0.8787540
1114.009, 1.714630
1114.491, 2.349060
1114.973, 2.532166
1115.455, 2.726013
1115.937, 3.098480
1116.419, 3.534027
1116.902, 3.994934
1117.384, 4.515808
1117.866, 4.725189
1118.348, 4.338104
1118.830, 4.162628
1119.312, 4.289703
1119.794, 4.474640
1120.276, 4.591431
1120.759, 4.816010
1121.241, 5.431854
1121.723, 6.253784
1122.205, 6.602081
1122.687, 6.314270
1123.169, 6.328583
1123.651, 6.810120
1124.133, 6.867584
1124.615, 6.182922
1125.098, 5.370544
1125.580, 4.793945
1126.062, 4.474884
1126.544, 4.460175
1127.026, 4.733826
1127.508, 4.824615
1127.990, 4.712982
1128.472, 4.541809
1128.954, 4.358856
1129.437, 4.057007
1129.919, 3.562134
1130.401, 3.058258
1130.883, 2.801392
1131.365, 2.682190
1131.847, 2.082672
1132.329, 1.053467
1132.811, 0.9333190
1133.294, 1.785889
1133.776, 2.011871
1134.258, 1.072174
1134.740, 0.4747310
1135.222, 1.565918
1135.704, 3.433563
1136.186, 4.338989
1136.668, 4.470856
1137.151, 4.569092
1137.633, 4.593506
1138.115, 4.048950
1138.597, 2.969116
1139.079, 2.405914
1139.561, 2.961487
1140.043, 3.701874
1140.525, 3.329376
1141.007, 2.538116
1141.490, 2.539795
1141.972, 3.085754
1142.454, 3.788361
1142.936, 4.462708
1143.418, 4.605072
1143.900, 4.125580
1144.382, 3.935425
1144.864, 4.971008
1145.346, 6.099304
1145.829, 5.886475
1146.311, 5.220215
1146.793, 5.303192
1147.275, 5.801422
1147.757, 5.861145
1148.239, 5.444946
1148.721, 5.221436
1149.203, 5.515717
1149.686, 5.745850
1150.168, 5.390778
1150.650, 5.136139
1151.132, 5.835968
1151.614, 6.702209
1152.096, 6.607178
1152.578, 5.847229
1153.060, 5.221863
1153.542, 4.915863
1154.025, 4.591675
1154.507, 3.796814
1154.989, 3.434204
1155.471, 4.407410
1155.953, 5.281189
1156.435, 4.924347
1156.917, 4.009308
1157.399, 3.384460
1157.881, 3.124725
1158.364, 3.257538
1158.846, 4.322235
1159.328, 4.755768
1159.810, 3.876404
1160.292, 3.146576
1160.774, 3.252350
1161.256, 3.366180
1161.738, 2.721863
1162.221, 1.664612
1162.703, 1.006348
1163.185, 0.7632140
1163.667, 0.8401490
1164.149, 1.488098
1164.631, 1.717163
1165.113, 1.283356
1165.595, 0.6694950
1166.078, 1.5167000E-02
1166.560, 0.4431150
1167.042, 0.3561710
1167.524, 0.1273190
1168.006, 0.2939760
1168.488, 0.1185000
1168.970, 2.4901999E-02
1169.452, 0.1081540
1169.934, 2.4231000E-02
1170.417, 0.4238890
1170.899, 0.8876040
1171.381, 1.299103
1171.863, 1.542450
1172.345, 1.289642
1172.827, 0.7200320
1173.309, 0.5567930
1173.791, 0.6462710
1174.273, 7.2388001E-02
1174.756, 0.9711300
1175.238, 0.8782650
1175.720, 0.9422300
1176.202, 3.570007
1176.684, 6.958557
1177.166, 9.292938
1177.648, 7.204803
1178.130, 3.411377
1178.613, 1.605591
1179.095, 1.425232
1179.577, 1.896484
1180.059, 2.573425
1180.541, 2.742432
1181.023, 2.002258
1181.505, 1.342316
1181.987, 1.478302
1182.469, 1.745575
1182.952, 1.675781
1183.434, 1.554535
1183.916, 1.628265
1184.398, 1.886078
1184.880, 2.340942
1185.362, 2.978363
1185.844, 3.425262
1186.326, 3.513306
1186.808, 3.529083
1187.291, 3.672394
1187.773, 3.564087
1188.255, 2.648132
1188.737, 1.742676
1189.219, 1.786682
1189.701, 2.424011
1190.183, 2.504028
1190.665, 1.845551
1191.148, 1.644623
1191.630, 2.155548
1192.112, 2.392670
1192.594, 2.175140
1193.076, 1.682251
1193.558, 0.8828130
1194.040, 0.1908260
1194.522, 0.1726680
1195.005, 0.6768190
1195.487, 1.146118
1195.969, 1.570526
1196.451, 1.719604
1196.933, 1.579620
1197.415, 1.023590
1197.897, 5.6000002E-02
1198.379, 0.4887390
1198.861, 5.3528000E-02
1199.344, 0.6759340
1199.826, 0.7756960
1200.308, 0.5071410
1200.790, 0.3620300
1201.272, 0.2947690
1201.754, 0.1810610
1202.236, 4.9865998E-02
1202.718, 3.4363002E-02
1203.200, 0.1636960
1203.683, 0.3647460
1204.165, 0.6737060
1204.647, 0.8228450
1205.129, 0.4737550
1205.611, 2.4963001E-02
1206.093, 0.4003300
1206.575, 0.5563050
1207.057, 0.2185970
1207.540, 1.415222
1208.022, 1.453735
1208.504, 0.1337590
1208.986, 0.8492740
1209.468, 0.5602110
1209.950, 1.921112
1210.432, 2.968628
1210.914, 3.550018
1211.396, 3.409607
1211.879, 2.915314
1212.361, 2.378021
1212.843, 1.839386
1213.325, 1.255005
1213.807, 0.5261840
1214.289, 0.4315190
1214.771, 1.200073
1215.253, 1.636047
1215.735, 1.412262
1216.218, 1.347809
1216.700, 1.955139
1217.182, 2.541199
1217.664, 2.144562
1218.146, 1.195679
1218.628, 1.029053
1219.110, 1.542755
1219.592, 2.550781
1220.075, 3.777069
1220.557, 3.737457
1221.039, 2.331055
1221.521, 1.323975
1222.003, 1.707947
1222.485, 2.482605
1222.967, 2.716949
1223.449, 2.719452
1223.932, 3.074982
1224.414, 3.216156
1224.896, 1.863586
1225.378, 4.5226999E-02
1225.860, 7.4065998E-02
1226.342, 1.960999
1226.824, 3.019470
1227.306, 1.869598
1227.788, 1.057770
1228.271, 1.882263
1228.753, 2.575470
1229.235, 2.500519
1229.717, 2.171478
1230.199, 1.605469
1230.681, 1.083557
1231.163, 1.213379
1231.645, 1.978302
1232.127, 2.104156
1232.610, 1.160858
1233.092, 0.9987490
1233.574, 2.002594
1234.056, 2.733551
1234.538, 2.743469
1235.020, 2.346008
1235.502, 1.663666
1235.984, 1.199310
1236.467, 2.144440
1236.949, 3.930511
1237.431, 4.024780
1237.913, 2.793335
1238.395, 1.667725
1238.877, 0.9100950
1239.359, 0.9250490
1239.841, 1.680756
1240.323, 2.103790
1240.806, 1.358795
1241.288, 0.7373350
1241.770, 1.542572
1242.252, 2.613953
1242.734, 2.624115
1243.216, 2.380615
1243.698, 3.263947
1244.180, 4.550598
1244.662, 4.199097
1245.145, 2.288696
1245.627, 1.336029
1246.109, 2.999054
1246.591, 3.925110
1247.073, 2.669861
1247.555, 1.449646
1248.037, 0.9078370
1248.519, 0.7453610
1249.002, 0.8338010
1249.484, 1.170410
1249.966, 1.909332
1250.448, 2.968872
1250.930, 3.098694
1251.412, 2.169647
1251.894, 2.091553
1252.376, 3.037476
1252.859, 3.621307
1253.341, 3.404999
1253.823, 2.874664
1254.305, 2.262665
1254.787, 1.968781
1255.269, 2.568542
1255.751, 3.483337
1256.233, 3.564819
1256.715, 3.127502
1257.198, 2.593842
1257.680, 2.174469
1258.162, 2.340912
1258.644, 3.054749
1259.126, 3.487518
1259.608, 3.241516
1260.090, 2.897522
1260.572, 2.479980
1261.054, 2.300049
1261.537, 2.936646
1262.019, 3.492767
1262.501, 3.348633
1262.983, 2.708771
1263.465, 1.686432
1263.947, 0.4452210
1264.429, 0.2559200
1264.911, 1.619507
1265.394, 2.348328
1265.876, 2.392151
1266.358, 1.865021
1266.840, 0.6344600
1267.322, 0.1226500
1267.804, 0.2827150
1268.286, 1.123047
1268.768, 1.623657
1269.250, 1.725067
1269.733, 0.8487240
1270.215, 0.3349910
1270.697, 0.1152040
1271.179, 1.658661
1271.661, 2.764801
1272.143, 3.182281
1272.625, 3.160034
1273.107, 2.794342
1273.589, 2.618103
1274.072, 3.380524
1274.554, 4.068085
1275.036, 3.861450
1275.518, 3.730255
1276.000, 4.482269
1276.482, 4.787231
1276.964, 3.750549
1277.446, 1.826263
1277.929, 0.8943480
1278.411, 1.080994
1278.893, 0.9912410
1279.375, 0.5355530
1279.857, 0.2033080
1280.339, 7.4459999E-03
1280.821, 1.7944001E-02
1281.303, 0.3407290
1281.786, 0.3333440
1282.268, 0.0000000E+00
##END=



