##NAMES=Ondrusite
##RRUFFID=R141029
##IDEAL CHEMISTRY=CaCu^2+^_4_(As^5+^O_4_)_2_(As^5+^O_3_OH)_2_&#183;10H_2_O
##LOCALITY=Svornost mine, Jáchymov, Krušné Hory Mts, Karlovy Vary, Bohemia, Czech Republic
##OWNER=RRUFF
##SOURCE=William W. Pinch
##DESCRIPTION=Pale green thin bladed crystals with striations parallel to the elongated direction, associated with quartz
##STATUS=The identification of this mineral has been confirmed by single-crystal X-ray diffraction.
##URL=rruff.info/R141029
160.4542, 0.0000000E+00
160.9364, 5.6150001E-03
161.4185, 0.5062260
161.9006, 1.181519
162.3827, 1.650269
162.8648, 1.992432
163.3469, 1.981812
163.8291, 1.472778
164.3112, 0.5421140
164.7933, 4.2603001E-02
165.2754, 0.3331300
165.7575, 1.302490
166.2396, 2.271118
166.7218, 3.879639
167.2039, 5.196655
167.6860, 5.495117
168.1681, 4.779663
168.6502, 3.721436
169.1323, 2.363159
169.6145, 1.012573
170.0966, 0.1107180
170.5787, 2.0508001E-02
171.0608, 0.2816160
171.5429, 0.8692630
172.0250, 1.776245
172.5072, 2.627319
172.9893, 2.847900
173.4714, 2.866699
173.9535, 3.488770
174.4356, 5.874023
174.9177, 8.795288
175.3999, 10.53809
175.8820, 10.95679
176.3641, 10.97290
176.8462, 11.54004
177.3283, 12.44116
177.8104, 13.04675
178.2926, 13.35242
178.7747, 13.63721
179.2568, 14.08789
179.7389, 14.69983
180.2210, 15.28235
180.7031, 15.52063
181.1853, 15.31299
181.6674, 15.04419
182.1495, 15.88049
182.6316, 17.04724
183.1137, 16.75586
183.5958, 14.42249
184.0780, 11.22644
184.5601, 8.782837
185.0422, 7.076538
185.5243, 5.937134
186.0064, 6.435303
186.4885, 8.014160
186.9707, 8.349854
187.4528, 7.135620
187.9349, 5.273682
188.4170, 3.901367
188.8991, 3.019531
189.3812, 2.633911
189.8634, 2.888550
190.3455, 3.690430
190.8276, 4.711304
191.3097, 6.161011
191.7918, 7.305420
192.2739, 6.357300
192.7561, 3.194580
193.2382, 0.4724120
193.7203, 2.1361999E-02
194.2024, 1.701538
194.6845, 2.954468
195.1666, 3.160278
195.6488, 2.674438
196.1309, 2.050293
196.6130, 1.254272
197.0951, 0.7827150
197.5772, 1.119263
198.0593, 2.293701
198.5415, 3.142090
199.0236, 3.608032
199.5057, 3.697510
199.9878, 3.157837
200.4699, 1.795776
200.9520, 0.7751460
201.4342, 1.176025
201.9163, 3.220459
202.3984, 3.913208
202.8805, 2.712524
203.3626, 0.4505620
203.8447, 0.8034670
204.3269, 0.8160400
204.8090, 0.5717770
205.2911, 0.5924070
205.7732, 0.7821040
206.2553, 0.2468260
206.7374, 1.501831
207.2196, 3.732544
207.7017, 4.163330
208.1838, 2.134277
208.6659, 9.7655997E-02
209.1480, 0.4019780
209.6301, 1.070679
210.1123, 2.133667
210.5944, 2.602539
211.0765, 2.631104
211.5586, 2.632935
212.0407, 2.539307
212.5228, 2.500610
213.0050, 2.633789
213.4871, 2.942749
213.9692, 3.419189
214.4513, 4.148438
214.9334, 5.005249
215.4155, 5.666992
215.8977, 6.056030
216.3798, 6.357910
216.8619, 6.630127
217.3440, 6.772217
217.8261, 7.079346
218.3082, 7.757324
218.7904, 8.539917
219.2725, 8.788330
219.7546, 8.123047
220.2367, 7.577393
220.7188, 7.875488
221.2009, 9.800415
221.6831, 10.46570
222.1652, 9.357544
222.6473, 7.096191
223.1294, 5.483032
223.6115, 4.784546
224.0936, 4.359619
224.5758, 3.935547
225.0579, 3.503540
225.5400, 3.189331
226.0221, 3.163940
226.5042, 3.238525
226.9863, 2.785889
227.4685, 1.386475
227.9506, 0.1026610
228.4327, 0.6035160
228.9148, 0.6513670
229.3969, 0.2750240
229.8790, 0.7336430
230.3612, 2.072876
230.8433, 2.997559
231.3254, 3.437256
231.8075, 3.542969
232.2896, 3.136353
232.7717, 1.259521
233.2539, 1.338379
233.7360, 4.640503
234.2181, 9.399780
234.7002, 11.37451
235.1823, 8.680298
235.6644, 5.964111
236.1466, 5.195801
236.6287, 7.391113
237.1108, 8.702148
237.5929, 8.757690
238.0750, 8.049683
238.5571, 7.536621
239.0393, 7.206787
239.5214, 7.123535
240.0035, 7.421021
240.4856, 8.456543
240.9677, 8.891113
241.4498, 8.582031
241.9320, 7.805176
242.4141, 7.069946
242.8962, 6.642456
243.3783, 5.898926
243.8604, 4.503906
244.3425, 2.121826
244.8247, 0.4575200
245.3068, 0.2276610
245.7889, 0.3378910
246.2710, 0.5026860
246.7531, 0.7625730
247.2352, 1.045654
247.7174, 1.492432
248.1995, 2.356689
248.6816, 2.116577
249.1637, 8.5449003E-02
249.6458, 2.495361
250.1279, 3.763428
250.6101, 2.974365
251.0922, 2.207886
251.5743, 2.125977
252.0564, 2.935059
252.5385, 3.367065
253.0206, 3.359863
253.5028, 3.011230
253.9849, 2.311646
254.4670, 0.8497310
254.9491, 6.9824003E-02
255.4312, 1.0742000E-02
255.9133, 1.159302
256.3955, 2.210938
256.8776, 3.144043
257.3597, 4.001831
257.8418, 4.907104
258.3239, 6.125122
258.8061, 6.704468
259.2882, 6.295532
259.7703, 4.931396
260.2524, 4.022461
260.7345, 3.839600
261.2166, 3.679810
261.6988, 2.761475
262.1809, 0.6888430
262.6630, 0.6872560
263.1451, 0.8482670
263.6272, 4.4922002E-02
264.1093, 0.5582280
264.5915, 0.6497800
265.0736, 0.5466310
265.5557, 0.3012700
266.0378, 0.3604740
266.5199, 0.2276610
267.0020, 1.199219
267.4842, 3.689697
267.9663, 5.386719
268.4484, 6.132446
268.9305, 6.379517
269.4126, 6.387939
269.8947, 6.169312
270.3769, 5.631104
270.8590, 4.683960
271.3411, 3.446167
271.8232, 2.124146
272.3053, 0.4703370
272.7874, 0.5567630
273.2696, 6.9824003E-02
273.7517, 2.267700
274.2338, 3.800415
274.7159, 4.187500
275.1980, 3.888916
275.6801, 3.847778
276.1623, 4.050537
276.6444, 4.626587
277.1265, 5.906250
277.6086, 8.034302
278.0907, 9.392212
278.5728, 9.908203
279.0550, 9.749268
279.5371, 8.897339
280.0192, 7.208618
280.5013, 5.994019
280.9834, 5.869385
281.4655, 6.810059
281.9477, 8.318848
282.4298, 10.58069
282.9119, 12.79468
283.3940, 13.61584
283.8761, 12.98499
284.3582, 12.38562
284.8404, 12.22717
285.3225, 12.49963
285.8046, 13.48743
286.2867, 15.31116
286.7688, 17.08179
287.2509, 17.68701
287.7331, 17.21301
288.2152, 16.58374
288.6973, 16.07324
289.1794, 15.64697
289.6615, 15.17505
290.1436, 14.68921
290.6258, 14.13110
291.1079, 13.45801
291.5900, 12.70947
292.0721, 12.00964
292.5542, 11.51172
293.0363, 11.01599
293.5185, 9.573853
294.0006, 7.227905
294.4827, 5.850586
294.9648, 7.776611
295.4469, 11.92969
295.9290, 14.85730
296.4112, 15.72412
296.8933, 15.45947
297.3754, 15.04431
297.8575, 14.54822
298.3396, 14.54358
298.8217, 16.02356
299.3039, 18.15002
299.7860, 19.11353
300.2681, 18.49072
300.7502, 17.27319
301.2323, 16.56824
301.7144, 16.22974
302.1966, 15.76257
302.6787, 14.72803
303.1608, 13.45386
303.6429, 12.44116
304.1250, 11.75049
304.6071, 11.13794
305.0893, 10.42798
305.5714, 9.630981
306.0535, 8.747070
306.5356, 7.822021
307.0177, 7.015381
307.4998, 6.256348
307.9820, 5.541504
308.4641, 4.906738
308.9462, 4.503418
309.4283, 4.189575
309.9104, 3.759277
310.3925, 2.916748
310.8747, 2.140625
311.3568, 1.882324
311.8389, 2.081787
312.3210, 2.202759
312.8031, 1.312256
313.2852, 0.5104980
313.7674, 0.9514160
314.2495, 4.122925
314.7316, 7.025269
315.2137, 8.092773
315.6958, 7.633057
316.1779, 6.692139
316.6601, 4.920654
317.1422, 3.286865
317.6243, 2.389648
318.1064, 2.311401
318.5885, 2.976563
319.0706, 5.141602
319.5528, 7.969604
320.0349, 9.848022
320.5170, 9.625610
320.9991, 8.892212
321.4812, 8.230835
321.9633, 7.579468
322.4455, 7.335083
322.9276, 8.041138
323.4097, 9.056152
323.8918, 9.590576
324.3739, 8.871582
324.8560, 8.346558
325.3382, 8.497559
325.8203, 9.445557
326.3024, 10.23914
326.7845, 11.22961
327.2666, 11.85779
327.7487, 11.67053
328.2309, 9.496826
328.7130, 7.894775
329.1951, 7.249390
329.6772, 7.476440
330.1593, 7.748291
330.6414, 7.714478
331.1236, 8.020630
331.6057, 9.073242
332.0878, 11.62244
332.5699, 13.50696
333.0520, 14.43140
333.5341, 14.64209
334.0163, 14.81848
334.4984, 14.97876
334.9805, 15.02441
335.4626, 14.91162
335.9447, 14.62646
336.4268, 14.21082
336.9090, 13.47400
337.3911, 12.83875
337.8732, 13.17102
338.3553, 14.89575
338.8374, 16.16724
339.3195, 16.32349
339.8017, 15.41321
340.2838, 14.67957
340.7659, 14.16650
341.2480, 13.77808
341.7301, 13.42725
342.2122, 13.11182
342.6944, 12.79529
343.1765, 12.34619
343.6586, 11.92993
344.1407, 12.36292
344.6228, 13.72058
345.1049, 14.86621
345.5871, 14.49341
346.0692, 12.90735
346.5513, 12.27588
347.0334, 13.08093
347.5155, 14.52759
347.9977, 15.40503
348.4798, 15.74902
348.9619, 15.81201
349.4440, 15.59668
349.9261, 15.17175
350.4082, 14.74597
350.8904, 14.27905
351.3725, 13.84448
351.8546, 13.60291
352.3367, 13.55078
352.8188, 13.66235
353.3009, 14.67847
353.7831, 15.45703
354.2652, 13.91040
354.7473, 10.17932
355.2294, 7.270752
355.7115, 8.624878
356.1936, 11.73840
356.6758, 13.28394
357.1579, 11.60779
357.6400, 9.001343
358.1221, 6.610229
358.6042, 4.550049
359.0863, 3.153442
359.5685, 2.849365
360.0506, 3.132324
360.5327, 3.711182
361.0148, 4.689087
361.4969, 5.612061
361.9790, 6.687256
362.4612, 7.584595
362.9433, 7.675293
363.4254, 4.905518
363.9075, 2.647949
364.3896, 2.780396
364.8717, 5.784668
365.3539, 8.329102
365.8360, 9.541260
366.3181, 9.996948
366.8002, 10.30347
367.2823, 9.888306
367.7644, 10.03967
368.2466, 11.32837
368.7287, 13.44556
369.2108, 14.57715
369.6929, 14.09949
370.1750, 13.27612
370.6571, 12.78223
371.1393, 13.23486
371.6214, 12.92615
372.1035, 11.30481
372.5856, 9.117065
373.0677, 8.190430
373.5498, 9.361572
374.0320, 10.21204
374.5141, 9.594971
374.9962, 7.217651
375.4783, 6.236694
375.9604, 7.065796
376.4425, 8.410645
376.9247, 8.524902
377.4068, 7.178101
377.8889, 6.250122
378.3710, 6.036011
378.8531, 6.310547
379.3352, 6.399170
379.8174, 6.322388
380.2995, 5.904175
380.7816, 4.529663
381.2637, 2.330200
381.7458, 1.052124
382.2279, 1.053467
382.7101, 1.805298
383.1922, 2.671631
383.6743, 3.646973
384.1564, 4.474976
384.6385, 4.865479
385.1206, 4.990356
385.6028, 5.062500
386.0849, 5.092407
386.5670, 5.087524
387.0491, 4.757935
387.5312, 4.423096
388.0133, 4.749390
388.4955, 6.690186
388.9776, 8.786621
389.4597, 9.568237
389.9418, 9.190308
390.4239, 8.607788
390.9060, 8.124756
391.3882, 7.835083
391.8703, 7.821899
392.3524, 8.115112
392.8345, 8.674561
393.3166, 10.06165
393.7987, 11.68201
394.2809, 12.31506
394.7630, 10.30835
395.2451, 8.315796
395.7272, 7.475952
396.2093, 7.998413
396.6914, 8.921387
397.1736, 11.03882
397.6557, 12.98462
398.1378, 13.50281
398.6199, 10.11926
399.1020, 7.911377
399.5841, 8.241943
400.0663, 10.60095
400.5484, 11.56433
401.0305, 10.00818
401.5126, 8.283325
401.9947, 7.688843
402.4768, 9.322021
402.9590, 9.436523
403.4411, 7.334473
403.9232, 4.288818
404.4053, 2.709595
404.8874, 3.225830
405.3695, 3.385376
405.8517, 2.177368
406.3338, 0.2360840
406.8159, 1.704712
407.2980, 2.161133
407.7801, 1.861450
408.2622, 0.7246090
408.7444, 1.192871
409.2265, 2.517822
409.7086, 2.838135
410.1907, 2.579834
410.6728, 2.563110
411.1549, 2.752686
411.6371, 3.012695
412.1192, 3.028198
412.6013, 3.045288
413.0834, 3.801636
413.5655, 5.434448
414.0476, 6.997803
414.5298, 7.830078
415.0119, 7.914673
415.4940, 7.247070
415.9761, 5.080078
416.4582, 2.751709
416.9403, 1.546753
417.4225, 1.322266
417.9046, 1.180054
418.3867, 0.7382810
418.8688, 0.1059570
419.3509, 0.7531740
419.8330, 2.267700
420.3152, 3.041138
420.7973, 1.621948
421.2794, 0.8137210
421.7615, 2.135498
422.2436, 0.8370360
422.7257, 0.7239990
423.2079, 1.766479
423.6900, 2.178589
424.1721, 2.540405
424.6542, 3.523315
425.1363, 4.084595
425.6184, 3.379883
426.1006, 4.1382000E-02
426.5827, 2.349243
427.0648, 3.204346
427.5469, 2.901001
428.0290, 2.675171
428.5111, 2.368774
428.9933, 2.354980
429.4754, 2.869629
429.9575, 3.996704
430.4396, 4.966431
430.9217, 5.951660
431.4038, 6.383545
431.8860, 4.920776
432.3681, 1.451782
432.8502, 0.5150150
433.3323, 0.7084960
433.8144, 3.584351
434.2965, 3.342896
434.7787, 6.9824003E-02
435.2608, 2.706787
435.7429, 1.350220
436.2250, 2.388062
436.7071, 3.791748
437.1892, 1.928101
437.6714, 0.5479740
438.1535, 0.7127690
438.6356, 0.6832280
439.1177, 1.975098
439.5998, 2.569092
440.0819, 2.615967
440.5641, 1.671143
441.0462, 0.1096190
441.5283, 0.9689940
442.0104, 1.026367
442.4925, 3.774658
442.9746, 5.416504
443.4568, 4.936768
443.9389, 4.437744
444.4210, 4.400391
444.9031, 4.781494
445.3852, 5.517334
445.8673, 7.033936
446.3495, 8.482910
446.8316, 9.669922
447.3137, 10.60205
447.7958, 11.33032
448.2779, 12.15112
448.7600, 12.55933
449.2422, 11.99829
449.7243, 9.381104
450.2064, 8.271484
450.6885, 9.672607
451.1706, 12.42432
451.6527, 13.03784
452.1349, 10.85400
452.6170, 8.861816
453.0991, 8.455322
453.5812, 9.569580
454.0633, 10.62646
454.5454, 11.64893
455.0276, 12.50854
455.5097, 13.03564
455.9918, 13.25049
456.4739, 13.22388
456.9560, 12.84619
457.4381, 12.42529
457.9203, 12.55908
458.4024, 13.13770
458.8845, 13.67676
459.3666, 13.93384
459.8488, 13.96680
460.3309, 13.77319
460.8130, 13.34521
461.2951, 12.91553
461.7772, 12.58643
462.2593, 12.37402
462.7415, 12.29126
463.2236, 12.68848
463.7057, 12.88550
464.1878, 12.61304
464.6699, 11.86426
465.1520, 10.74194
465.6342, 8.686523
466.1163, 6.880615
466.5984, 5.860840
467.0805, 5.806641
467.5626, 5.910400
468.0447, 6.675049
468.5269, 7.276367
469.0090, 6.789551
469.4911, 4.398193
469.9732, 2.454102
470.4553, 1.344482
470.9374, 0.9172360
471.4196, 0.3950200
471.9017, 0.5334470
472.3838, 0.6716310
472.8659, 1.264404
473.3480, 5.267822
473.8301, 7.029053
474.3123, 6.074219
474.7944, 4.435059
475.2765, 5.064941
475.7586, 7.388916
476.2407, 8.305908
476.7228, 6.129395
477.2050, 2.868164
477.6871, 1.756348
478.1692, 2.483887
478.6513, 3.455078
479.1334, 3.646973
479.6155, 3.491943
480.0977, 3.638428
480.5798, 4.184326
481.0619, 4.501221
481.5440, 4.196533
482.0261, 3.516113
482.5082, 2.712158
482.9904, 1.444336
483.4725, 0.6350100
483.9546, 0.8771970
484.4367, 1.844971
484.9188, 2.701416
485.4009, 3.197510
485.8831, 3.631104
486.3652, 3.987793
486.8473, 3.973145
487.3294, 4.859375
487.8115, 7.424316
488.2936, 10.08643
488.7758, 11.00610
489.2579, 9.386475
489.7400, 8.554199
490.2221, 9.320313
490.7042, 10.98608
491.1863, 11.60352
491.6685, 11.05493
492.1506, 10.30493
492.6327, 10.00220
493.1148, 9.867432
493.5969, 9.171875
494.0790, 7.882080
494.5612, 6.697021
495.0433, 6.369385
495.5254, 6.716553
496.0075, 7.573730
496.4896, 9.420410
496.9717, 11.03955
497.4539, 10.64014
497.9360, 9.041748
498.4181, 8.343750
498.9002, 10.78442
499.3823, 13.39990
499.8644, 14.19189
500.3466, 12.78809
500.8287, 11.70874
501.3108, 11.59277
501.7929, 12.10620
502.2750, 12.98145
502.7571, 14.69336
503.2393, 16.08472
503.7214, 17.29614
504.2035, 18.08521
504.6856, 17.80933
505.1677, 15.51074
505.6498, 13.95386
506.1320, 14.34888
506.6141, 16.60059
507.0962, 17.38281
507.5783, 16.45117
508.0604, 14.98975
508.5425, 13.84082
509.0247, 13.02612
509.5068, 12.61694
509.9889, 12.78638
510.4710, 12.95923
510.9531, 11.78809
511.4352, 9.795166
511.9174, 8.887207
512.3995, 10.89429
512.8816, 13.71680
513.3637, 14.80249
513.8458, 14.39380
514.3279, 14.01367
514.8101, 14.72363
515.2922, 15.67432
515.7743, 16.11938
516.2564, 15.76172
516.7385, 15.42749
517.2206, 15.90356
517.7028, 16.32617
518.1849, 15.71606
518.6670, 12.15527
519.1491, 9.616211
519.6312, 9.075439
520.1133, 10.10596
520.5955, 10.91748
521.0776, 11.76367
521.5597, 12.05151
522.0418, 11.39990
522.5239, 9.729736
523.0060, 8.318359
523.4882, 7.044189
523.9703, 6.458740
524.4524, 7.874756
524.9345, 11.05200
525.4166, 12.38794
525.8987, 10.71777
526.3809, 7.886719
526.8630, 6.345947
527.3451, 6.029541
527.8272, 6.736328
528.3093, 9.094727
528.7914, 11.93359
529.2736, 13.99072
529.7557, 15.25586
530.2378, 16.17236
530.7199, 16.74414
531.2020, 17.21875
531.6841, 17.89014
532.1663, 19.21069
532.6484, 19.84399
533.1305, 18.78467
533.6126, 17.07056
534.0947, 16.19604
534.5768, 17.69214
535.0590, 18.37427
535.5411, 17.28857
536.0232, 14.89478
536.5053, 14.06396
536.9874, 15.37842
537.4695, 16.93237
537.9517, 17.78955
538.4338, 17.93726
538.9159, 18.06055
539.3980, 18.17773
539.8801, 18.40527
540.3622, 18.86987
540.8444, 19.58008
541.3265, 20.51855
541.8086, 21.89966
542.2907, 22.91992
542.7728, 21.74170
543.2549, 19.19482
543.7371, 17.70752
544.2192, 19.19116
544.7013, 21.68896
545.1834, 24.22778
545.6655, 26.71216
546.1476, 28.10962
546.6298, 27.28613
547.1119, 25.75317
547.5940, 24.40210
548.0761, 22.97876
548.5582, 22.60596
549.0403, 24.41919
549.5225, 26.81616
550.0046, 27.76440
550.4867, 26.33862
550.9688, 25.36597
551.4509, 25.51978
551.9330, 26.38940
552.4152, 26.26904
552.8973, 24.90161
553.3794, 23.93652
553.8615, 24.50659
554.3436, 26.25879
554.8257, 27.51758
555.3079, 28.25977
555.7900, 28.38184
556.2721, 27.53809
556.7542, 26.05713
557.2363, 24.45972
557.7184, 22.73633
558.2006, 21.30273
558.6827, 20.75000
559.1648, 20.68652
559.6469, 20.42847
560.1290, 20.21265
560.6111, 19.30298
561.0933, 16.61816
561.5754, 12.60962
562.0575, 10.23218
562.5396, 11.64355
563.0217, 13.15210
563.5038, 13.16187
563.9860, 11.09766
564.4681, 10.33398
564.9502, 11.44434
565.4323, 12.94800
565.9144, 13.31641
566.3965, 12.45532
566.8787, 11.63940
567.3608, 10.96680
567.8429, 10.59619
568.3250, 11.30884
568.8071, 12.80298
569.2892, 13.28296
569.7714, 10.66260
570.2535, 7.426514
570.7356, 7.579590
571.2177, 10.55371
571.6998, 12.98804
572.1819, 12.44678
572.6641, 10.91943
573.1462, 9.817383
573.6283, 9.276367
574.1104, 9.202393
574.5925, 9.221191
575.0746, 9.836426
575.5568, 11.58545
576.0389, 17.21875
576.5210, 19.99927
577.0031, 18.35571
577.4852, 14.28662
577.9673, 11.99023
578.4495, 12.06567
578.9316, 12.04541
579.4137, 11.14160
579.8958, 9.598389
580.3779, 8.347168
580.8600, 7.420654
581.3422, 6.548584
581.8243, 5.076660
582.3064, 3.603516
582.7885, 3.753418
583.2706, 5.724365
583.7527, 8.041016
584.2349, 10.37646
584.7170, 12.01733
585.1991, 11.90747
585.6812, 8.607178
586.1633, 5.471680
586.6454, 4.023438
587.1276, 3.645752
587.6097, 3.256836
588.0918, 2.200928
588.5739, 1.602295
589.0560, 1.824707
589.5381, 2.754150
590.0203, 3.699707
590.5024, 5.143066
590.9845, 5.687012
591.4666, 4.349609
591.9487, 1.125000
592.4308, 1.544678
592.9130, 3.688721
593.3951, 4.959229
593.8772, 4.479492
594.3593, 2.767334
594.8414, 1.689453
595.3235, 1.779053
595.8057, 1.877930
596.2878, 0.1369630
596.7699, 2.351563
597.2520, 3.522949
597.7341, 0.8232420
598.2162, 1.735107
598.6984, 1.975098
599.1805, 0.4150390
599.6626, 1.006592
600.1447, 1.744385
600.6268, 2.317139
601.1089, 2.994873
601.5911, 3.818848
602.0732, 4.244629
602.5553, 4.149170
603.0374, 3.852783
603.5195, 3.350098
604.0016, 2.528320
604.4838, 3.045166
604.9659, 5.345215
605.4480, 7.870850
605.9301, 8.572510
606.4122, 7.665771
606.8943, 6.522461
607.3765, 5.425049
607.8586, 4.581787
608.3407, 4.184814
608.8228, 4.161377
609.3049, 4.327881
609.7870, 4.555908
610.2692, 4.827148
610.7513, 5.445801
611.2334, 6.356445
611.7155, 6.853760
612.1976, 6.692627
612.6797, 6.166504
613.1619, 5.323975
613.6440, 4.017090
614.1261, 3.479492
614.6082, 3.863281
615.0903, 4.386719
615.5724, 4.529297
616.0546, 4.310303
616.5367, 3.785645
617.0188, 2.800781
617.5009, 1.954590
617.9830, 2.337402
618.4651, 3.642334
618.9473, 4.799805
619.4294, 5.485596
619.9115, 5.736328
620.3936, 5.222900
620.8757, 4.235596
621.3578, 3.696289
621.8400, 4.583496
622.3221, 5.531494
622.8042, 5.947998
623.2863, 5.808105
623.7684, 5.175537
624.2505, 3.196289
624.7327, 1.637695
625.2148, 1.478516
625.6969, 3.128418
626.1790, 4.406982
626.6611, 5.302490
627.1432, 5.812988
627.6254, 5.761475
628.1075, 5.206787
628.5896, 4.947021
629.0717, 5.167480
629.5538, 5.558838
630.0359, 5.349365
630.5181, 4.924072
631.0002, 5.361572
631.4823, 8.141846
631.9644, 10.87964
632.4465, 11.87915
632.9286, 11.45093
633.4108, 10.55542
633.8929, 8.340576
634.3750, 6.783203
634.8571, 7.139648
635.3392, 9.575195
635.8214, 10.75269
636.3035, 10.10474
636.7856, 9.084473
637.2677, 8.534912
637.7498, 8.569092
638.2319, 8.545898
638.7141, 8.612305
639.1962, 8.189453
639.6783, 5.938477
640.1604, 2.558838
640.6425, 0.9948730
641.1246, 2.179688
641.6068, 3.948975
642.0889, 4.064453
642.5710, 3.217773
643.0531, 2.587891
643.5352, 2.864746
644.0173, 3.145752
644.4995, 2.983643
644.9816, 2.509277
645.4637, 2.140137
645.9458, 1.887207
646.4279, 1.787842
646.9100, 1.804199
647.3922, 1.938965
647.8743, 2.333740
648.3564, 3.118896
648.8385, 3.759521
649.3206, 3.479004
649.8027, 2.540283
650.2849, 3.755371
650.7670, 7.200195
651.2491, 10.37695
651.7312, 10.88965
652.2133, 9.784180
652.6954, 8.422607
653.1776, 6.868896
653.6597, 5.704590
654.1418, 5.428955
654.6239, 5.703369
655.1060, 6.141602
655.5881, 7.798584
656.0703, 8.168701
656.5524, 5.618652
657.0345, 2.050781
657.5166, 0.7700200
657.9987, 2.763672
658.4808, 4.452393
658.9630, 5.040039
659.4451, 4.725586
659.9272, 3.906006
660.4093, 2.584229
660.8914, 1.802002
661.3735, 3.096680
661.8557, 4.976807
662.3378, 4.184082
662.8199, 1.033936
663.3020, 1.699463
663.7841, 1.807129
664.2662, 1.040283
664.7484, 0.8002930
665.2305, 1.360596
665.7126, 1.726074
666.1947, 2.016602
666.6768, 1.756592
667.1589, 0.5129390
667.6411, 2.848633
668.1232, 4.557129
668.6053, 4.012939
669.0874, 2.559814
669.5695, 1.990723
670.0516, 2.281006
670.5338, 1.953857
671.0159, 0.4003910
671.4980, 1.157471
671.9801, 0.4797360
672.4622, 1.731201
672.9443, 3.499512
673.4265, 3.916504
673.9086, 3.746826
674.3907, 3.356201
674.8728, 2.811279
675.3549, 2.279053
675.8370, 1.670166
676.3192, 1.260010
676.8013, 1.113037
677.2834, 1.243896
677.7655, 1.874512
678.2476, 3.233643
678.7297, 4.626465
679.2119, 5.887695
679.6940, 6.977539
680.1761, 6.830811
680.6582, 5.344971
681.1403, 3.546143
681.6224, 1.986328
682.1046, 0.7761230
682.5867, 0.2072750
683.0688, 0.3261720
683.5509, 0.8283690
684.0330, 1.948486
684.5151, 3.118164
684.9973, 3.765137
685.4794, 3.502930
685.9615, 3.168213
686.4436, 2.625732
686.9257, 2.222412
687.4078, 2.460205
687.8900, 3.722412
688.3721, 4.709961
688.8542, 5.294922
689.3363, 5.455078
689.8184, 4.837158
690.3005, 3.531250
690.7827, 2.561035
691.2648, 2.260498
691.7469, 2.569336
692.2290, 3.761230
692.7111, 5.549805
693.1932, 6.952148
693.6754, 6.711670
694.1575, 6.593262
694.6396, 8.146973
695.1217, 11.14233
695.6038, 12.61011
696.0859, 10.07373
696.5681, 8.036865
697.0502, 8.615479
697.5323, 12.00684
698.0144, 13.29126
698.4965, 12.16016
698.9786, 10.27612
699.4608, 8.362549
699.9429, 6.470459
700.4250, 5.246582
700.9071, 4.955566
701.3892, 5.307861
701.8713, 6.621094
702.3535, 7.996094
702.8356, 8.108154
703.3177, 6.275635
703.7998, 5.181641
704.2819, 6.318359
704.7640, 8.390137
705.2462, 10.10474
705.7283, 11.95605
706.2104, 12.24219
706.6925, 10.07739
707.1746, 7.251465
707.6567, 6.764893
708.1389, 8.714844
708.6210, 9.677002
709.1031, 8.603027
709.5852, 7.034424
710.0673, 7.995605
710.5494, 10.56836
711.0316, 12.05566
711.5137, 9.737793
711.9958, 7.208008
712.4779, 7.489014
712.9600, 9.610352
713.4421, 10.56860
713.9243, 7.762939
714.4064, 5.643066
714.8885, 5.898926
715.3706, 8.136963
715.8527, 9.404297
716.3348, 9.444092
716.8170, 9.110596
717.2991, 8.366943
717.7812, 7.533936
718.2633, 8.770996
718.7454, 12.02881
719.2275, 15.00195
719.7097, 16.45312
720.1918, 16.52124
720.6739, 14.79102
721.1560, 11.13306
721.6381, 8.162842
722.1202, 7.358398
722.6024, 7.526367
723.0845, 7.904297
723.5666, 8.494385
724.0487, 9.277100
724.5308, 10.73120
725.0129, 11.92920
725.4951, 11.98511
725.9772, 10.73462
726.4593, 9.144043
726.9414, 7.081787
727.4235, 5.496338
727.9056, 6.143311
728.3878, 7.982910
728.8699, 8.544434
729.3520, 6.705078
729.8341, 5.155273
730.3162, 6.230713
730.7983, 8.382813
731.2805, 9.756592
731.7626, 8.936279
732.2447, 8.640869
732.7268, 9.738281
733.2089, 11.17310
733.6910, 10.87500
734.1732, 8.191895
734.6553, 7.032227
735.1374, 8.795898
735.6195, 11.66357
736.1016, 11.55371
736.5837, 9.188721
737.0659, 7.812988
737.5480, 9.826172
738.0301, 12.26538
738.5122, 12.04297
738.9943, 10.07129
739.4764, 8.719482
739.9586, 9.998291
740.4407, 10.71582
740.9228, 9.178467
741.4049, 6.089844
741.8870, 4.585205
742.3691, 5.152588
742.8513, 6.022461
743.3334, 6.678223
743.8155, 7.107422
744.2976, 7.093750
744.7797, 6.685059
745.2618, 6.377441
745.7440, 6.695557
746.2261, 7.176758
746.7082, 7.314209
747.1903, 7.103027
747.6724, 6.717529
748.1545, 5.830566
748.6367, 5.102051
749.1188, 4.932861
749.6009, 5.398682
750.0830, 6.040771
750.5651, 7.215088
751.0472, 7.868408
751.5294, 7.142090
752.0115, 5.076416
752.4936, 3.312256
752.9757, 1.823486
753.4578, 0.8483890
753.9399, 1.043457
754.4221, 1.725830
754.9042, 1.975586
755.3863, 1.719727
755.8684, 0.9157710
756.3505, 1.670898
756.8326, 3.977295
757.3148, 4.068604
757.7969, 5.9082001E-02
758.2790, 1.447754
758.7611, 0.9628910
759.2432, 3.930664
759.7253, 4.164795
760.2075, 1.590576
760.6896, 0.5815430
761.1717, 1.702393
761.6538, 3.263428
762.1359, 3.450439
762.6180, 2.764893
763.1002, 1.957031
763.5823, 0.9787600
764.0644, 0.6276860
764.5465, 2.241943
765.0286, 4.247314
765.5107, 4.920166
765.9929, 2.360840
766.4750, 0.9245610
766.9571, 1.076660
767.4392, 1.850342
767.9213, 2.131348
768.4034, 1.920166
768.8856, 0.9560550
769.3677, 0.9833980
769.8498, 3.009277
770.3319, 3.676025
770.8140, 3.635986
771.2961, 4.362305
771.7783, 6.860596
772.2604, 9.072998
772.7425, 10.21436
773.2246, 10.35107
773.7067, 9.502197
774.1888, 5.858643
774.6710, 4.126709
775.1531, 5.556885
775.6352, 8.397949
776.1173, 9.431396
776.5994, 8.604980
777.0815, 7.742920
777.5637, 7.210938
778.0458, 7.009033
778.5279, 7.312744
779.0100, 7.929199
779.4921, 8.422852
779.9742, 8.485840
780.4564, 8.500000
780.9385, 8.753418
781.4206, 9.042725
781.9027, 8.897217
782.3848, 7.707764
782.8669, 7.153564
783.3491, 7.945801
783.8312, 9.229004
784.3133, 8.607910
784.7954, 6.156006
785.2775, 4.044922
785.7596, 2.957031
786.2418, 2.751465
786.7239, 4.097900
787.2060, 6.180664
787.6881, 7.031982
788.1702, 4.335205
788.6523, 1.770020
789.1345, 0.6433110
789.6166, 0.7875980
790.0987, 1.532959
790.5808, 2.878906
791.0629, 4.853516
791.5450, 7.987061
792.0272, 11.33911
792.5093, 11.40015
792.9914, 8.511963
793.4735, 6.724609
793.9556, 8.594238
794.4377, 11.44727
794.9199, 12.38892
795.4020, 11.75220
795.8841, 10.36230
796.3662, 6.722656
796.8483, 4.348877
797.3304, 5.465332
797.8126, 8.847656
798.2947, 10.67139
798.7768, 10.52979
799.2589, 9.991211
799.7410, 9.478271
800.2231, 8.904297
800.7053, 7.580811
801.1874, 5.801514
801.6695, 5.187744
802.1516, 7.561279
802.6337, 10.54688
803.1158, 12.12378
803.5980, 12.59790
804.0801, 12.90552
804.5622, 13.17944
805.0443, 13.44385
805.5264, 13.73706
806.0085, 14.00024
806.4907, 13.97925
806.9728, 13.56079
807.4549, 13.36719
807.9370, 13.58545
808.4191, 14.15796
808.9012, 15.08643
809.3834, 16.29565
809.8655, 17.51636
810.3476, 18.77686
810.8297, 19.87231
811.3118, 20.30566
811.7939, 20.46753
812.2761, 21.42065
812.7582, 24.51538
813.2403, 26.70825
813.7224, 27.16284
814.2045, 26.29541
814.6866, 25.31079
815.1688, 24.32617
815.6509, 24.91357
816.1330, 27.90723
816.6151, 31.69678
817.0972, 34.29321
817.5793, 36.02197
818.0615, 37.58374
818.5436, 38.36475
819.0257, 39.54907
819.5078, 42.12646
819.9899, 45.48828
820.4720, 47.74023
820.9542, 48.38525
821.4363, 48.99023
821.9184, 49.69165
822.4005, 50.57617
822.8826, 52.31177
823.3647, 54.83057
823.8469, 57.31006
824.3290, 59.28467
824.8111, 61.03149
825.2932, 62.72632
825.7753, 64.51709
826.2574, 66.57349
826.7396, 69.79785
827.2217, 72.36279
827.7038, 73.55737
828.1859, 74.11841
828.6681, 75.43188
829.1502, 77.52808
829.6323, 80.07593
830.1144, 83.07544
830.5966, 86.26733
831.0787, 89.77295
831.5608, 93.19165
832.0429, 95.59937
832.5250, 95.84448
833.0071, 96.29565
833.4893, 98.46216
833.9714, 101.5059
834.4535, 104.1531
834.9356, 106.0808
835.4177, 107.9680
835.8998, 109.4702
836.3820, 111.4604
836.8641, 115.9397
837.3462, 122.5027
837.8283, 127.8220
838.3104, 131.0974
838.7925, 133.1465
839.2747, 134.2412
839.7568, 134.8064
840.2389, 135.3521
840.7210, 135.3533
841.2031, 136.5767
841.6852, 141.1604
842.1674, 145.8213
842.6495, 147.1204
843.1316, 144.3215
843.6137, 142.5518
844.0958, 142.2109
844.5779, 142.8811
845.0601, 144.8193
845.5422, 147.2544
846.0243, 148.3186
846.5064, 147.3904
846.9885, 146.8433
847.4706, 148.5872
847.9528, 150.8875
848.4349, 152.0955
848.9170, 151.3391
849.3991, 151.8069
849.8812, 154.1833
850.3633, 156.3152
850.8455, 155.7527
851.3276, 153.0588
851.8097, 152.4263
852.2918, 154.1062
852.7739, 156.0908
853.2560, 157.4409
853.7382, 157.9595
854.2203, 157.1970
854.7024, 155.0049
855.1845, 153.2727
855.6666, 153.0554
856.1487, 152.7449
856.6309, 151.4980
857.1130, 149.3572
857.5951, 147.6062
858.0772, 146.2461
858.5593, 145.1904
859.0414, 144.7017
859.5236, 144.2798
860.0057, 143.1785
860.4878, 141.3928
860.9699, 139.1433
861.4520, 135.4705
861.9341, 132.3313
862.4163, 131.1558
862.8984, 131.5364
863.3805, 130.7905
863.8626, 128.8435
864.3447, 125.9211
864.8268, 121.6514
865.3090, 116.7874
865.7911, 113.3391
866.2732, 111.0391
866.7553, 108.9463
867.2374, 106.5703
867.7195, 104.1646
868.2017, 102.0959
868.6838, 100.0845
869.1659, 97.39844
869.6480, 93.79248
870.1301, 89.83057
870.6122, 85.41406
871.0944, 80.94531
871.5765, 77.53833
872.0586, 75.04199
872.5407, 72.14233
873.0228, 68.46973
873.5049, 64.38281
873.9871, 59.74194
874.4692, 55.09131
874.9513, 51.20435
875.4334, 48.99023
875.9155, 46.71045
876.3976, 44.27222
876.8798, 41.66040
877.3619, 38.48340
877.8440, 34.65356
878.3261, 32.45312
878.8082, 32.26221
879.2903, 32.74561
879.7725, 33.25562
880.2546, 33.14062
880.7367, 30.86401
881.2188, 25.34326
881.7009, 21.47192
882.1830, 22.69897
882.6652, 24.77344
883.1473, 24.64087
883.6294, 21.82837
884.1115, 19.99780
884.5936, 19.31616
885.0757, 18.90942
885.5579, 17.20630
886.0400, 15.61938
886.5221, 18.70044
887.0042, 26.00854
887.4863, 30.01318
887.9684, 23.42847
888.4506, 15.35889
888.9327, 10.75366
889.4148, 9.760986
889.8969, 9.543701
890.3790, 10.22729
890.8611, 10.56665
891.3433, 9.779053
891.8254, 8.580078
892.3075, 9.195557
892.7896, 11.22705
893.2717, 12.76636
893.7538, 11.42871
894.2360, 10.25708
894.7181, 11.56738
895.2002, 14.48633
895.6823, 16.84302
896.1644, 19.05664
896.6465, 19.29614
897.1287, 16.52002
897.6108, 12.95850
898.0929, 13.16138
898.5750, 16.13525
899.0571, 17.16309
899.5392, 14.44067
900.0214, 11.47852
900.5035, 11.60620
900.9856, 12.87549
901.4677, 12.94580
901.9498, 10.09229
902.4319, 8.358643
902.9141, 8.072021
903.3962, 8.470703
903.8783, 9.354004
904.3604, 10.52344
904.8425, 9.499023
905.3246, 5.988281
905.8068, 3.016113
906.2889, 2.712402
906.7710, 4.329834
907.2531, 8.385986
907.7352, 15.14111
908.2173, 17.93726
908.6995, 13.27783
909.1816, 8.245850
909.6637, 5.937988
910.1458, 5.921875
910.6279, 5.592773
911.1100, 5.084229
911.5922, 4.377197
912.0743, 3.245361
912.5564, 2.064453
913.0385, 1.037109
913.5206, 0.2529300
914.0027, 4.1016001E-02
914.4849, 1.279785
914.9670, 2.047363
915.4491, 1.595947
915.9312, 0.5559080
916.4133, 0.1882320
916.8954, 0.4836430
917.3776, 1.234619
917.8597, 2.542969
918.3418, 3.805908
918.8239, 4.189453
919.3060, 4.162598
919.7881, 4.431396
920.2703, 5.563721
920.7524, 6.070801
921.2345, 4.666016
921.7166, 3.669678
922.1987, 5.904053
922.6808, 11.61987
923.1630, 12.63428
923.6451, 8.289795
924.1272, 3.946289
924.6093, 5.177734
925.0914, 8.323730
925.5735, 9.087158
926.0557, 7.158936
926.5378, 5.446289
927.0199, 4.636719
927.5020, 4.337646
927.9841, 4.599609
928.4662, 5.273193
928.9484, 5.297119
929.4305, 4.689209
929.9126, 4.395996
930.3947, 5.119385
930.8768, 6.131592
931.3589, 6.979492
931.8411, 7.430908
932.3232, 6.926270
932.8053, 4.199219
933.2874, 2.010010
933.7695, 0.9851070
934.2516, 0.5590820
934.7338, 0.1533200
935.2159, 1.146973
935.6980, 1.780518
936.1801, 1.972900
936.6622, 1.703857
937.1443, 0.6208500
937.6265, 0.7421880
938.1086, 1.681396
938.5907, 1.948486
939.0728, 2.257324
939.5549, 2.772705
940.0370, 3.217285
940.5192, 3.261963
941.0013, 2.951172
941.4834, 3.589355
941.9655, 5.159912
942.4476, 6.522217
942.9297, 6.805176
943.4119, 6.613037
943.8940, 6.624512
944.3761, 6.694336
944.8582, 6.136719
945.3403, 4.795410
945.8224, 2.634766
946.3046, 1.010254
946.7867, 4.841064
947.2688, 5.269287
947.7509, 2.789795
948.2330, 0.8759770
948.7151, 0.3820800
949.1973, 0.9572750
949.6794, 3.783936
950.1615, 6.766846
950.6436, 7.241211
951.1257, 2.826416
951.6078, 0.5852050
952.0900, 2.919678
952.5721, 4.279785
953.0542, 4.726807
953.5363, 4.213135
954.0184, 2.302734
954.5005, 0.9211430
954.9827, 3.223389
955.4648, 2.288574
955.9469, 0.5029300
956.4290, 0.3725590
956.9111, 0.2998050
957.3932, 0.6318360
957.8754, 1.572266
958.3575, 2.418945
958.8396, 2.895508
959.3217, 3.129150
959.8038, 3.323242
960.2859, 3.528564
960.7681, 3.956543
961.2502, 4.649658
961.7323, 5.659668
962.2144, 8.372314
962.6965, 10.78931
963.1786, 10.02637
963.6608, 4.270020
964.1429, 0.7529300
964.6250, 3.5645001E-02
965.1071, 0.5654300
965.5892, 1.290283
966.0714, 2.065430
966.5535, 2.907227
967.0356, 3.803223
967.5177, 3.699219
967.9998, 0.4685060
968.4819, 2.367676
968.9641, 2.486572
969.4462, 0.3776860
969.9283, 0.1574710
970.4104, 1.244629
970.8925, 1.624268
971.3746, 0.7097170
971.8568, 3.922363
972.3389, 5.287842
972.8210, 5.268066
973.3031, 5.039063
973.7852, 4.694092
974.2673, 4.532715
974.7495, 4.403809
975.2316, 4.609619
975.7137, 5.464844
976.1958, 6.991699
976.6779, 9.685547
977.1600, 13.80859
977.6422, 16.87939
978.1243, 15.92529
978.6064, 13.41309
979.0885, 11.72583
979.5706, 11.11670
980.0527, 11.34082
980.5349, 13.17651
981.0170, 14.61792
981.4991, 15.00366
981.9812, 14.42358
982.4633, 12.34741
982.9454, 9.237793
983.4276, 8.150391
983.9097, 12.03589
984.3918, 15.87451
984.8739, 15.73438
985.3560, 13.36768
985.8381, 11.44263
986.3203, 10.27710
986.8024, 9.443604
987.2845, 8.999512
987.7666, 8.799316
988.2487, 8.622314
988.7308, 8.612549
989.2130, 9.536865
989.6951, 11.38745
990.1772, 12.21777
990.6593, 8.850586
991.1414, 6.187256
991.6235, 7.962891
992.1057, 13.02124
992.5878, 14.54785
993.0699, 11.97729
993.5520, 9.697998
994.0341, 9.462891
994.5162, 9.958740
994.9984, 9.097412
995.4805, 7.605957
995.9626, 6.951416
996.4447, 8.750244
996.9268, 9.512207
997.4089, 8.311035
997.8911, 6.482910
998.3732, 5.209229
998.8553, 4.509277
999.3374, 3.678467
999.8195, 2.688232
1000.302, 1.808350
1000.784, 1.103271
1001.266, 0.7014160
1001.748, 0.6506350
1002.230, 0.9514160
1002.712, 1.752686
1003.194, 3.466797
1003.676, 4.426270
1004.159, 3.623291
1004.641, 2.231689
1005.123, 4.081299
1005.605, 8.054932
1006.087, 10.07202
1006.569, 8.201416
1007.051, 5.989990
1007.533, 4.696045
1008.016, 4.088623
1008.498, 4.363770
1008.980, 6.322998
1009.462, 6.204346
1009.944, 3.458984
1010.426, 1.391602
1010.908, 3.468506
1011.390, 7.014893
1011.872, 8.416992
1012.355, 7.908936
1012.837, 7.324951
1013.319, 7.130615
1013.801, 7.545654
1014.283, 8.707520
1014.765, 10.12866
1015.247, 11.04517
1015.729, 11.50146
1016.211, 12.07471
1016.694, 13.07520
1017.176, 13.20044
1017.658, 10.37646
1018.140, 6.932373
1018.622, 5.098877
1019.104, 5.384766
1019.586, 5.518555
1020.068, 5.720947
1020.551, 5.144043
1021.033, 2.694824
1021.515, 0.4216310
1021.997, 1.655762
1022.479, 1.324707
1022.961, 0.2255860
1023.443, 2.227783
1023.925, 4.172119
1024.407, 4.741943
1024.890, 4.714111
1025.372, 5.121338
1025.854, 5.910645
1026.336, 5.703613
1026.818, 4.460938
1027.300, 3.321533
1027.782, 3.350586
1028.264, 3.479004
1028.746, 2.439453
1029.229, 0.3317870
1029.711, 0.1086430
1030.193, 3.024658
1030.675, 5.134766
1031.157, 4.829102
1031.639, 3.263916
1032.121, 3.216309
1032.603, 4.181641
1033.086, 4.503418
1033.568, 3.287598
1034.050, 2.236572
1034.532, 2.112061
1035.014, 2.560547
1035.496, 3.420654
1035.978, 4.880859
1036.460, 5.412354
1036.943, 4.975342
1037.425, 4.176514
1037.907, 2.608154
1038.389, 1.524170
1038.871, 2.647461
1039.353, 5.527344
1039.835, 8.285889
1040.317, 11.39282
1040.799, 12.74170
1041.281, 11.55713
1041.764, 9.148193
1042.246, 6.723877
1042.728, 4.813477
1043.210, 5.995850
1043.692, 11.26880
1044.174, 15.07886
1044.656, 12.62231
1045.138, 9.178223
1045.621, 8.196533
1046.103, 9.514893
1046.585, 10.76611
1047.067, 11.99341
1047.549, 12.34253
1048.031, 10.93066
1048.513, 9.152344
1048.995, 8.727539
1049.478, 9.092041
1049.960, 9.295410
1050.442, 8.646240
1050.924, 8.642822
1051.406, 9.745117
1051.888, 10.71704
1052.370, 10.18579
1052.852, 8.636719
1053.334, 7.232910
1053.817, 6.185547
1054.299, 6.737793
1054.781, 13.37134
1055.263, 17.67432
1055.745, 13.64404
1056.227, 5.171631
1056.709, 1.217041
1057.191, 1.967529
1057.673, 3.547119
1058.156, 5.370850
1058.638, 6.832764
1059.120, 6.530762
1059.602, 6.030273
1060.084, 7.551270
1060.566, 12.09863
1061.048, 13.91870
1061.530, 11.68555
1062.013, 9.369385
1062.495, 8.692139
1062.977, 9.415039
1063.459, 11.82983
1063.941, 14.97339
1064.423, 16.15332
1064.905, 12.76416
1065.387, 9.654053
1065.870, 8.137451
1066.352, 7.708496
1066.834, 8.254395
1067.316, 9.828369
1067.798, 11.06348
1068.280, 11.75171
1068.762, 12.04614
1069.244, 12.17896
1069.726, 11.97021
1070.208, 11.05054
1070.691, 9.609863
1071.173, 8.523193
1071.655, 7.800781
1072.137, 7.391602
1072.619, 7.237305
1073.101, 7.568604
1073.583, 9.483643
1074.065, 11.64893
1074.548, 11.79077
1075.030, 9.418457
1075.512, 7.799316
1075.994, 7.719238
1076.476, 8.096436
1076.958, 9.025879
1077.440, 10.12207
1077.922, 9.670898
1078.405, 7.974365
1078.887, 6.444824
1079.369, 5.571533
1079.851, 4.972168
1080.333, 4.424072
1080.815, 4.279297
1081.297, 4.974609
1081.779, 6.733643
1082.261, 7.583252
1082.744, 7.468994
1083.226, 7.181885
1083.708, 7.019043
1084.190, 7.173828
1084.672, 8.137939
1085.154, 9.604980
1085.636, 10.59204
1086.118, 10.99878
1086.601, 10.75000
1087.083, 9.526855
1087.565, 8.323242
1088.047, 8.732666
1088.529, 10.00098
1089.011, 10.79224
1089.493, 10.92041
1089.975, 10.21436
1090.458, 7.428955
1090.940, 5.115479
1091.422, 4.012207
1091.904, 4.120850
1092.386, 6.369385
1092.868, 10.20093
1093.350, 11.79688
1093.832, 9.363281
1094.314, 6.706543
1094.797, 6.419189
1095.279, 7.196045
1095.761, 8.173096
1096.243, 9.427490
1096.725, 8.665039
1097.207, 5.671387
1097.689, 3.384521
1098.171, 3.936768
1098.653, 5.552490
1099.136, 6.838135
1099.618, 7.526855
1100.100, 7.045654
1100.582, 3.860107
1101.064, 2.190918
1101.546, 2.504395
1102.028, 3.343262
1102.510, 3.350830
1102.993, 2.881348
1103.475, 2.585938
1103.957, 2.522461
1104.439, 2.853027
1104.921, 4.065430
1105.403, 5.233398
1105.885, 6.472412
1106.367, 7.238770
1106.849, 5.960449
1107.332, 3.193359
1107.814, 1.773682
1108.296, 2.161377
1108.778, 3.553711
1109.260, 7.067627
1109.742, 9.885254
1110.224, 9.365723
1110.706, 6.469727
1111.188, 6.894531
1111.671, 10.72314
1112.153, 12.85352
1112.635, 11.01611
1113.117, 8.524414
1113.599, 8.815674
1114.081, 10.21655
1114.563, 10.72241
1115.045, 9.922119
1115.528, 9.426514
1116.010, 9.307861
1116.492, 9.191406
1116.974, 9.008057
1117.456, 8.614014
1117.938, 7.598389
1118.420, 6.247803
1118.902, 5.147949
1119.385, 4.030762
1119.867, 4.260254
1120.349, 6.969238
1120.831, 8.955566
1121.313, 6.191895
1121.795, 0.5708010
1122.277, 2.473633
1122.759, 3.061279
1123.241, 2.987793
1123.724, 2.584473
1124.206, 2.354736
1124.688, 2.925537
1125.170, 3.349854
1125.652, 1.503662
1126.134, 2.087158
1126.616, 3.468750
1127.098, 2.115234
1127.580, 0.6042480
1128.063, 0.5881350
1128.545, 1.090332
1129.027, 1.969482
1129.509, 2.863037
1129.991, 2.056152
1130.473, 0.4807130
1130.955, 1.968262
1131.437, 1.416748
1131.920, 0.6740720
1132.402, 2.762451
1132.884, 4.653320
1133.366, 2.298584
1133.848, 4.957764
1134.330, 7.662842
1134.812, 4.955811
1135.294, 2.330078
1135.776, 2.341309
1136.259, 3.268555
1136.741, 2.501221
1137.223, 1.160400
1137.705, 1.062256
1138.187, 3.283203
1138.669, 5.199707
1139.151, 6.786133
1139.633, 8.016113
1140.115, 9.140625
1140.598, 9.763428
1141.080, 8.492676
1141.562, 6.028076
1142.044, 4.285156
1142.526, 4.481689
1143.008, 4.841553
1143.490, 5.338379
1143.972, 5.701660
1144.455, 5.860840
1144.937, 5.670654
1145.419, 4.147949
1145.901, 1.532227
1146.383, 0.3901370
1146.865, 0.3984380
1147.347, 0.1203610
1147.829, 1.052490
1148.312, 1.933350
1148.794, 1.719482
1149.276, 0.6757810
1149.758, 0.8352050
1150.240, 2.451172
1150.722, 3.756104
1151.204, 2.752686
1151.686, 1.998535
1152.168, 3.260986
1152.651, 5.729248
1153.133, 7.113281
1153.615, 7.435547
1154.097, 7.423828
1154.579, 7.081787
1155.061, 7.175781
1155.543, 8.861572
1156.025, 10.81641
1156.507, 11.98901
1156.990, 12.40039
1157.472, 11.96973
1157.954, 10.61621
1158.436, 9.920410
1158.918, 10.50806
1159.400, 11.79956
1159.882, 14.40210
1160.364, 16.70850
1160.847, 16.34473
1161.329, 12.51758
1161.811, 10.62134
1162.293, 10.92944
1162.775, 11.52490
1163.257, 11.47070
1163.739, 11.09399
1164.221, 10.22241
1164.703, 9.490723
1165.186, 10.11597
1165.668, 13.55664
1166.150, 15.28174
1166.632, 15.00586
1167.114, 13.96216
1167.596, 12.67334
1168.078, 11.40527
1168.560, 10.17969
1169.042, 9.375732
1169.525, 10.01709
1170.007, 14.94238
1170.489, 16.87476
1170.971, 14.68188
1171.453, 11.51514
1171.935, 10.73169
1172.417, 10.98218
1172.899, 8.644775
1173.382, 4.516357
1173.864, 3.100098
1174.346, 9.273438
1174.828, 13.36719
1175.310, 13.60620
1175.792, 12.22070
1176.274, 11.77637
1176.756, 12.01733
1177.239, 12.44189
1177.721, 12.96875
1178.203, 13.44434
1178.685, 13.33521
1179.167, 13.84106
1179.649, 15.60986
1180.131, 17.43262
1180.613, 17.16895
1181.095, 15.60962
1181.578, 15.30005
1182.060, 16.70337
1182.542, 17.11450
1183.024, 13.71704
1183.506, 11.35278
1183.988, 11.99854
1184.470, 14.41235
1184.952, 16.02051
1185.434, 16.88867
1185.917, 17.15918
1186.399, 16.75781
1186.881, 16.36816
1187.363, 16.12817
1187.845, 16.19409
1188.327, 16.68286
1188.809, 17.37500
1189.291, 17.63159
1189.774, 17.62158
1190.256, 18.09570
1190.738, 19.67896
1191.220, 21.05566
1191.702, 21.75903
1192.184, 21.44092
1192.666, 19.50464
1193.148, 16.41870
1193.630, 15.41284
1194.113, 16.27710
1194.595, 17.86597
1195.077, 20.48315
1195.559, 22.27759
1196.041, 21.73828
1196.523, 20.46826
1197.005, 19.64893
1197.487, 19.26831
1197.969, 19.03613
1198.452, 18.93774
1198.934, 18.82104
1199.416, 19.42163
1199.898, 18.95776
1200.380, 14.92310
1200.862, 10.62964
1201.344, 9.621582
1201.826, 11.88477
1202.309, 13.15625
1202.791, 13.49023
1203.273, 13.81348
1203.755, 14.69800
1204.237, 15.65503
1204.719, 16.80908
1205.201, 17.66479
1205.683, 17.35132
1206.166, 15.88477
1206.648, 15.30103
1207.130, 15.60596
1207.612, 15.77222
1208.094, 14.69604
1208.576, 13.76172
1209.058, 14.22998
1209.540, 15.01270
1210.022, 14.34692
1210.505, 12.31201
1210.987, 11.20801
1211.469, 11.19189
1211.951, 11.54932
1212.433, 11.83496
1212.915, 12.37524
1213.397, 13.66064
1213.879, 15.20093
1214.361, 16.04932
1214.844, 16.27026
1215.326, 17.02368
1215.808, 18.44336
1216.290, 18.99731
1216.772, 15.90723
1217.254, 13.51538
1217.736, 14.83472
1218.218, 18.32690
1218.701, 20.41016
1219.183, 21.00220
1219.665, 20.25342
1220.147, 18.09033
1220.629, 16.65308
1221.111, 17.43188
1221.593, 18.82056
1222.075, 20.21704
1222.557, 21.39795
1223.040, 21.79150
1223.522, 21.45557
1224.004, 20.80225
1224.486, 19.93872
1224.968, 18.59521
1225.450, 15.77954
1225.932, 13.39624
1226.414, 12.43872
1226.896, 12.60059
1227.379, 13.16528
1227.861, 14.02905
1228.343, 14.57397
1228.825, 14.65967
1229.307, 14.46094
1229.789, 13.63403
1230.271, 12.98706
1230.753, 12.87109
1231.236, 13.20020
1231.718, 14.02588
1232.200, 15.11206
1232.682, 15.53052
1233.164, 15.00220
1233.646, 13.99072
1234.128, 11.95557
1234.610, 10.40820
1235.093, 10.29565
1235.575, 11.06689
1236.057, 10.48877
1236.539, 9.239014
1237.021, 9.867920
1237.503, 13.86304
1237.985, 16.79053
1238.467, 15.64575
1238.949, 14.73438
1239.432, 16.23120
1239.914, 19.06763
1240.396, 20.60791
1240.878, 20.69263
1241.360, 18.42456
1241.842, 12.16577
1242.324, 8.007568
1242.806, 8.271484
1243.288, 9.109131
1243.771, 8.596436
1244.253, 7.427002
1244.735, 7.590576
1245.217, 8.564453
1245.699, 9.093994
1246.181, 8.710693
1246.663, 8.201660
1247.145, 7.503906
1247.628, 7.003418
1248.110, 6.413330
1248.592, 6.630127
1249.074, 11.57422
1249.556, 18.20947
1250.038, 20.38574
1250.520, 13.58252
1251.002, 9.833496
1251.484, 10.27075
1251.967, 11.71997
1252.449, 12.53394
1252.931, 13.06250
1253.413, 14.28174
1253.895, 15.50122
1254.377, 15.27319
1254.859, 12.14526
1255.341, 11.13232
1255.823, 12.70117
1256.306, 14.09009
1256.788, 13.35645
1257.270, 11.95190
1257.752, 11.52759
1258.234, 11.69580
1258.716, 11.94019
1259.198, 12.44214
1259.680, 12.13477
1260.163, 10.96826
1260.645, 9.845703
1261.127, 9.435059
1261.609, 9.149902
1262.091, 8.579346
1262.573, 7.737793
1263.055, 6.371826
1263.537, 4.143799
1264.020, 4.264404
1264.502, 6.682373
1264.984, 9.371338
1265.466, 12.08301
1265.948, 13.40967
1266.430, 10.89673
1266.912, 7.446045
1267.394, 6.569580
1267.876, 8.308838
1268.359, 8.651367
1268.841, 7.733154
1269.323, 6.794434
1269.805, 6.927490
1270.287, 6.649658
1270.769, 4.343506
1271.251, 2.249512
1271.733, 2.563721
1272.215, 4.884033
1272.698, 5.560059
1273.180, 4.914795
1273.662, 4.313232
1274.144, 5.564941
1274.626, 5.057617
1275.108, 0.4611820
1275.590, 3.594482
1276.072, 2.329102
1276.555, 2.176025
1277.037, 2.392334
1277.519, 0.3103030
1278.001, 1.860596
1278.483, 6.5919999E-03
1278.965, 2.098389
1279.447, 4.545654
1279.929, 6.176270
1280.411, 5.303711
1280.894, 3.437744
1281.376, 3.519775
1281.858, 4.826172
1282.340, 5.721680
1282.822, 5.905273
1283.304, 5.402588
1283.786, 3.967773
1284.268, 3.166748
1284.750, 4.413086
1285.233, 6.599609
1285.715, 9.038086
1286.197, 11.25415
1286.679, 12.26929
1287.161, 11.62500
1287.643, 11.78638
1288.125, 12.73267
1288.607, 11.62500
1289.090, 11.36206
1289.572, 9.693359
1290.054, 7.754395
1290.536, 6.190186
1291.018, 6.424072
1291.500, 8.524414
1291.982, 10.28394
1292.464, 11.64795
1292.947, 12.27295
1293.429, 12.50708
1293.911, 11.39600
1294.393, 7.240967
1294.875, 2.945557
1295.357, 0.6269530
1295.839, 3.1005999E-02
1296.321, 0.1213380
1296.803, 0.3269040
1297.286, 0.9370120
1297.768, 1.439941
1298.250, 2.333252
1298.732, 3.190186
1299.214, 4.021973
1299.696, 2.646973
1300.178, 0.3762210
1300.660, 0.0000000E+00
##END=



