##NAMES=Osarizawaite
##RRUFFID=R060401
##IDEAL CHEMISTRY=Cu^2+^Pb^2+^Al_2_(S^6+^O_4_)_2_(OH)_6_
##LOCALITY=Akita Prefecture, Japan
##OWNER=RRUFF
##SOURCE=American Museum of Natural History
##DESCRIPTION=Yellowish-green granular mass
##STATUS=The identification of this mineral is not yet confirmed.
##URL=rruff.info/R060401
9.060547e+001, 3.560677e+002
9.108759e+001, 3.636253e+002
9.156970e+001, 3.705806e+002
9.205182e+001, 3.695045e+002
9.253394e+001, 3.653289e+002
9.301605e+001, 3.603448e+002
9.349817e+001, 3.562761e+002
9.398029e+001, 3.533304e+002
9.446240e+001, 3.501985e+002
9.494452e+001, 3.476964e+002
9.542664e+001, 3.438735e+002
9.590874e+001, 3.369874e+002
9.639086e+001, 3.274579e+002
9.687298e+001, 3.181406e+002
9.735509e+001, 3.120682e+002
9.783721e+001, 3.095832e+002
9.831933e+001, 3.076059e+002
9.880145e+001, 3.073398e+002
9.928356e+001, 3.065124e+002
9.976568e+001, 3.030643e+002
1.002478e+002, 2.964142e+002
1.007299e+002, 2.881366e+002
1.012120e+002, 2.821854e+002
1.016941e+002, 2.801040e+002
1.021763e+002, 2.787515e+002
1.026584e+002, 2.784860e+002
1.031405e+002, 2.787248e+002
1.036226e+002, 2.786870e+002
1.041047e+002, 2.779007e+002
1.045868e+002, 2.764806e+002
1.050690e+002, 2.752547e+002
1.055511e+002, 2.751409e+002
1.060332e+002, 2.743213e+002
1.065153e+002, 2.709096e+002
1.069974e+002, 2.653116e+002
1.074795e+002, 2.609340e+002
1.079617e+002, 2.611817e+002
1.084438e+002, 2.647498e+002
1.089259e+002, 2.668027e+002
1.094080e+002, 2.651078e+002
1.098901e+002, 2.621546e+002
1.103722e+002, 2.618295e+002
1.108544e+002, 2.652905e+002
1.113365e+002, 2.686739e+002
1.118186e+002, 2.690139e+002
1.123007e+002, 2.674102e+002
1.127828e+002, 2.659545e+002
1.132649e+002, 2.661677e+002
1.137471e+002, 2.678793e+002
1.142292e+002, 2.688126e+002
1.147113e+002, 2.682963e+002
1.151934e+002, 2.675533e+002
1.156755e+002, 2.669786e+002
1.161576e+002, 2.666003e+002
1.166397e+002, 2.663165e+002
1.171219e+002, 2.659345e+002
1.176040e+002, 2.651847e+002
1.180861e+002, 2.652314e+002
1.185682e+002, 2.667700e+002
1.190503e+002, 2.684406e+002
1.195324e+002, 2.692332e+002
1.200146e+002, 2.690200e+002
1.204967e+002, 2.686145e+002
1.209788e+002, 2.694212e+002
1.214609e+002, 2.734283e+002
1.219430e+002, 2.755967e+002
1.224251e+002, 2.742302e+002
1.229073e+002, 2.715773e+002
1.233894e+002, 2.703260e+002
1.238715e+002, 2.715911e+002
1.243536e+002, 2.744766e+002
1.248357e+002, 2.768468e+002
1.253178e+002, 2.789022e+002
1.258000e+002, 2.803379e+002
1.262821e+002, 2.804562e+002
1.267642e+002, 2.796662e+002
1.272463e+002, 2.796869e+002
1.277284e+002, 2.821994e+002
1.282105e+002, 2.853036e+002
1.286927e+002, 2.856235e+002
1.291748e+002, 2.819316e+002
1.296569e+002, 2.772969e+002
1.301390e+002, 2.742056e+002
1.306211e+002, 2.725986e+002
1.311032e+002, 2.729313e+002
1.315854e+002, 2.780652e+002
1.320675e+002, 2.843035e+002
1.325496e+002, 2.878841e+002
1.330317e+002, 2.868223e+002
1.335138e+002, 2.831479e+002
1.339959e+002, 2.817392e+002
1.344781e+002, 2.838581e+002
1.349602e+002, 2.864325e+002
1.354423e+002, 2.894785e+002
1.359244e+002, 2.922045e+002
1.364065e+002, 2.933546e+002
1.368886e+002, 2.918911e+002
1.373708e+002, 2.881132e+002
1.378529e+002, 2.863337e+002
1.383350e+002, 2.900202e+002
1.388171e+002, 2.923656e+002
1.392992e+002, 2.911905e+002
1.397813e+002, 2.872842e+002
1.402635e+002, 2.824076e+002
1.407456e+002, 2.777296e+002
1.412277e+002, 2.729117e+002
1.417098e+002, 2.723389e+002
1.421919e+002, 2.805242e+002
1.426740e+002, 2.883180e+002
1.431561e+002, 2.898690e+002
1.436383e+002, 2.851796e+002
1.441204e+002, 2.793353e+002
1.446025e+002, 2.776724e+002
1.450846e+002, 2.810856e+002
1.455667e+002, 2.831081e+002
1.460488e+002, 2.819559e+002
1.465310e+002, 2.800061e+002
1.470131e+002, 2.803377e+002
1.474952e+002, 2.838985e+002
1.479773e+002, 2.876042e+002
1.484594e+002, 2.869418e+002
1.489415e+002, 2.827371e+002
1.494237e+002, 2.794122e+002
1.499058e+002, 2.795906e+002
1.503879e+002, 2.819512e+002
1.508700e+002, 2.826087e+002
1.513521e+002, 2.798662e+002
1.518342e+002, 2.767510e+002
1.523164e+002, 2.759116e+002
1.527985e+002, 2.771181e+002
1.532806e+002, 2.786078e+002
1.537627e+002, 2.795788e+002
1.542448e+002, 2.800600e+002
1.547269e+002, 2.787553e+002
1.552091e+002, 2.722285e+002
1.556912e+002, 2.663265e+002
1.561733e+002, 2.647600e+002
1.566554e+002, 2.675172e+002
1.571375e+002, 2.713199e+002
1.576196e+002, 2.718380e+002
1.581018e+002, 2.672661e+002
1.585839e+002, 2.647124e+002
1.590660e+002, 2.667336e+002
1.595481e+002, 2.691486e+002
1.600302e+002, 2.690243e+002
1.605123e+002, 2.657687e+002
1.609945e+002, 2.612040e+002
1.614766e+002, 2.586656e+002
1.619587e+002, 2.607630e+002
1.624408e+002, 2.609561e+002
1.629229e+002, 2.584573e+002
1.634050e+002, 2.545671e+002
1.638871e+002, 2.499531e+002
1.643693e+002, 2.448944e+002
1.648514e+002, 2.401723e+002
1.653335e+002, 2.378047e+002
1.658156e+002, 2.398027e+002
1.662977e+002, 2.413508e+002
1.667798e+002, 2.424859e+002
1.672620e+002, 2.427871e+002
1.677441e+002, 2.411532e+002
1.682262e+002, 2.367238e+002
1.687083e+002, 2.309587e+002
1.691904e+002, 2.281829e+002
1.696725e+002, 2.295095e+002
1.701547e+002, 2.310111e+002
1.706368e+002, 2.313929e+002
1.711189e+002, 2.307701e+002
1.716010e+002, 2.294002e+002
1.720831e+002, 2.269489e+002
1.725652e+002, 2.241747e+002
1.730474e+002, 2.226349e+002
1.735295e+002, 2.230084e+002
1.740116e+002, 2.233258e+002
1.744937e+002, 2.218719e+002
1.749758e+002, 2.186500e+002
1.754579e+002, 2.154553e+002
1.759401e+002, 2.124667e+002
1.764222e+002, 2.102607e+002
1.769043e+002, 2.097622e+002
1.773864e+002, 2.116042e+002
1.778685e+002, 2.140708e+002
1.783506e+002, 2.150691e+002
1.788328e+002, 2.144129e+002
1.793149e+002, 2.128839e+002
1.797970e+002, 2.093643e+002
1.802791e+002, 2.057524e+002
1.807612e+002, 2.039373e+002
1.812433e+002, 2.047484e+002
1.817255e+002, 2.070590e+002
1.822076e+002, 2.085889e+002
1.826897e+002, 2.094512e+002
1.831718e+002, 2.091423e+002
1.836539e+002, 2.066788e+002
1.841360e+002, 2.035751e+002
1.846181e+002, 2.014067e+002
1.851003e+002, 2.009543e+002
1.855824e+002, 2.018013e+002
1.860645e+002, 2.024658e+002
1.865466e+002, 2.024525e+002
1.870287e+002, 2.028925e+002
1.875108e+002, 2.048532e+002
1.879930e+002, 2.071031e+002
1.884751e+002, 2.077692e+002
1.889572e+002, 2.056877e+002
1.894393e+002, 2.016321e+002
1.899214e+002, 1.999977e+002
1.904035e+002, 2.028713e+002
1.908857e+002, 2.058418e+002
1.913678e+002, 2.088464e+002
1.918499e+002, 2.113450e+002
1.923320e+002, 2.121464e+002
1.928141e+002, 2.101974e+002
1.932962e+002, 2.061945e+002
1.937784e+002, 2.057444e+002
1.942605e+002, 2.127547e+002
1.947426e+002, 2.182968e+002
1.952247e+002, 2.178021e+002
1.957068e+002, 2.130850e+002
1.961889e+002, 2.097086e+002
1.966711e+002, 2.115484e+002
1.971532e+002, 2.172901e+002
1.976353e+002, 2.198672e+002
1.981174e+002, 2.165120e+002
1.985995e+002, 2.128834e+002
1.990816e+002, 2.119605e+002
1.995638e+002, 2.135254e+002
2.000459e+002, 2.162412e+002
2.005280e+002, 2.202999e+002
2.010101e+002, 2.246021e+002
2.014922e+002, 2.263383e+002
2.019743e+002, 2.245214e+002
2.024565e+002, 2.210198e+002
2.029386e+002, 2.164426e+002
2.034207e+002, 2.107012e+002
2.039028e+002, 2.066669e+002
2.043849e+002, 2.072024e+002
2.048670e+002, 2.100672e+002
2.053492e+002, 2.120685e+002
2.058313e+002, 2.123415e+002
2.063134e+002, 2.119438e+002
2.067955e+002, 2.123579e+002
2.072776e+002, 2.138931e+002
2.077597e+002, 2.147930e+002
2.082419e+002, 2.134592e+002
2.087240e+002, 2.113697e+002
2.092061e+002, 2.098862e+002
2.096882e+002, 2.094517e+002
2.101703e+002, 2.097815e+002
2.106524e+002, 2.106416e+002
2.111346e+002, 2.125481e+002
2.116167e+002, 2.135865e+002
2.120988e+002, 2.124357e+002
2.125809e+002, 2.105305e+002
2.130630e+002, 2.093176e+002
2.135451e+002, 2.094586e+002
2.140273e+002, 2.102478e+002
2.145094e+002, 2.099838e+002
2.149915e+002, 2.077496e+002
2.154736e+002, 2.061220e+002
2.159557e+002, 2.062117e+002
2.164378e+002, 2.067884e+002
2.169200e+002, 2.065668e+002
2.174021e+002, 2.049624e+002
2.178842e+002, 2.024697e+002
2.183663e+002, 2.004318e+002
2.188484e+002, 1.986668e+002
2.193305e+002, 1.977586e+002
2.198127e+002, 1.989643e+002
2.202948e+002, 2.005079e+002
2.207769e+002, 2.001422e+002
2.212590e+002, 1.968406e+002
2.217411e+002, 1.919463e+002
2.222232e+002, 1.894693e+002
2.227054e+002, 1.931255e+002
2.231875e+002, 1.948299e+002
2.236696e+002, 1.924501e+002
2.241517e+002, 1.884727e+002
2.246338e+002, 1.858429e+002
2.251159e+002, 1.858685e+002
2.255980e+002, 1.876681e+002
2.260802e+002, 1.887043e+002
2.265623e+002, 1.881996e+002
2.270444e+002, 1.878255e+002
2.275265e+002, 1.880792e+002
2.280086e+002, 1.884206e+002
2.284907e+002, 1.879906e+002
2.289729e+002, 1.863876e+002
2.294550e+002, 1.842013e+002
2.299371e+002, 1.830148e+002
2.304192e+002, 1.834937e+002
2.309013e+002, 1.838555e+002
2.313834e+002, 1.838636e+002
2.318656e+002, 1.835876e+002
2.323477e+002, 1.830051e+002
2.328298e+002, 1.820397e+002
2.333119e+002, 1.810386e+002
2.337940e+002, 1.809488e+002
2.342761e+002, 1.823665e+002
2.347583e+002, 1.830625e+002
2.352404e+002, 1.822750e+002
2.357225e+002, 1.804346e+002
2.362046e+002, 1.779964e+002
2.366867e+002, 1.748050e+002
2.371688e+002, 1.718153e+002
2.376510e+002, 1.710799e+002
2.381331e+002, 1.729135e+002
2.386152e+002, 1.743526e+002
2.390973e+002, 1.741609e+002
2.395794e+002, 1.728904e+002
2.400615e+002, 1.716401e+002
2.405437e+002, 1.706022e+002
2.410258e+002, 1.698711e+002
2.415079e+002, 1.697402e+002
2.419900e+002, 1.702114e+002
2.424721e+002, 1.704403e+002
2.429542e+002, 1.697646e+002
2.434364e+002, 1.685748e+002
2.439185e+002, 1.679498e+002
2.444006e+002, 1.683152e+002
2.448827e+002, 1.688905e+002
2.453648e+002, 1.689586e+002
2.458469e+002, 1.685672e+002
2.463290e+002, 1.678835e+002
2.468112e+002, 1.666678e+002
2.472933e+002, 1.651944e+002
2.477754e+002, 1.643770e+002
2.482575e+002, 1.646848e+002
2.487396e+002, 1.650725e+002
2.492217e+002, 1.646156e+002
2.497039e+002, 1.635329e+002
2.501860e+002, 1.625583e+002
2.506681e+002, 1.619804e+002
2.511502e+002, 1.618069e+002
2.516323e+002, 1.623255e+002
2.521144e+002, 1.645766e+002
2.525966e+002, 1.657350e+002
2.530787e+002, 1.635123e+002
2.535608e+002, 1.590859e+002
2.540429e+002, 1.550593e+002
2.545250e+002, 1.530442e+002
2.550071e+002, 1.525952e+002
2.554893e+002, 1.520217e+002
2.559714e+002, 1.513908e+002
2.564535e+002, 1.504981e+002
2.569356e+002, 1.484961e+002
2.574177e+002, 1.463061e+002
2.578998e+002, 1.456053e+002
2.583820e+002, 1.479301e+002
2.588641e+002, 1.521231e+002
2.593462e+002, 1.539297e+002
2.598283e+002, 1.518321e+002
2.603104e+002, 1.497351e+002
2.607925e+002, 1.487236e+002
2.612747e+002, 1.485257e+002
2.617568e+002, 1.489448e+002
2.622389e+002, 1.500638e+002
2.627210e+002, 1.514064e+002
2.632031e+002, 1.514659e+002
2.636852e+002, 1.492449e+002
2.641674e+002, 1.474135e+002
2.646495e+002, 1.464203e+002
2.651316e+002, 1.461396e+002
2.656137e+002, 1.467500e+002
2.660958e+002, 1.484052e+002
2.665779e+002, 1.502926e+002
2.670601e+002, 1.501308e+002
2.675422e+002, 1.454911e+002
2.680243e+002, 1.432994e+002
2.685064e+002, 1.465890e+002
2.689885e+002, 1.512820e+002
2.694706e+002, 1.536904e+002
2.699528e+002, 1.525359e+002
2.704349e+002, 1.493099e+002
2.709170e+002, 1.467178e+002
2.713991e+002, 1.447641e+002
2.718812e+002, 1.435710e+002
2.723633e+002, 1.437093e+002
2.728455e+002, 1.441087e+002
2.733276e+002, 1.435374e+002
2.738097e+002, 1.418691e+002
2.742918e+002, 1.404418e+002
2.747739e+002, 1.417019e+002
2.752560e+002, 1.483639e+002
2.757382e+002, 1.518128e+002
2.762202e+002, 1.507153e+002
2.767024e+002, 1.481422e+002
2.771845e+002, 1.453082e+002
2.776666e+002, 1.427602e+002
2.781487e+002, 1.411895e+002
2.786308e+002, 1.416993e+002
2.791129e+002, 1.454029e+002
2.795951e+002, 1.472760e+002
2.800772e+002, 1.461514e+002
2.805593e+002, 1.445631e+002
2.810414e+002, 1.435012e+002
2.815235e+002, 1.431826e+002
2.820056e+002, 1.436471e+002
2.824878e+002, 1.451285e+002
2.829699e+002, 1.479943e+002
2.834520e+002, 1.491651e+002
2.839341e+002, 1.476462e+002
2.844162e+002, 1.456838e+002
2.848983e+002, 1.437130e+002
2.853805e+002, 1.420131e+002
2.858626e+002, 1.410438e+002
2.863447e+002, 1.412717e+002
2.868268e+002, 1.426647e+002
2.873089e+002, 1.432344e+002
2.877910e+002, 1.422151e+002
2.882732e+002, 1.412684e+002
2.887553e+002, 1.413101e+002
2.892374e+002, 1.417446e+002
2.897195e+002, 1.411651e+002
2.902016e+002, 1.385690e+002
2.906837e+002, 1.345994e+002
2.911659e+002, 1.328761e+002
2.916480e+002, 1.359534e+002
2.921301e+002, 1.382837e+002
2.926122e+002, 1.388580e+002
2.930943e+002, 1.381740e+002
2.935764e+002, 1.365572e+002
2.940586e+002, 1.340847e+002
2.945407e+002, 1.316077e+002
2.950228e+002, 1.314381e+002
2.955049e+002, 1.372032e+002
2.959870e+002, 1.408889e+002
2.964691e+002, 1.403608e+002
2.969513e+002, 1.384170e+002
2.974334e+002, 1.383404e+002
2.979155e+002, 1.411372e+002
2.983976e+002, 1.449592e+002
2.988797e+002, 1.466908e+002
2.993618e+002, 1.449312e+002
2.998440e+002, 1.434817e+002
3.003261e+002, 1.429558e+002
3.008082e+002, 1.423641e+002
3.012903e+002, 1.403709e+002
3.017724e+002, 1.369489e+002
3.022545e+002, 1.338370e+002
3.027367e+002, 1.331594e+002
3.032188e+002, 1.356955e+002
3.037009e+002, 1.379597e+002
3.041830e+002, 1.410524e+002
3.046651e+002, 1.430495e+002
3.051472e+002, 1.418538e+002
3.056294e+002, 1.379802e+002
3.061115e+002, 1.343156e+002
3.065936e+002, 1.334571e+002
3.070757e+002, 1.356120e+002
3.075578e+002, 1.366630e+002
3.080399e+002, 1.360998e+002
3.085221e+002, 1.351652e+002
3.090042e+002, 1.342980e+002
3.094863e+002, 1.334944e+002
3.099684e+002, 1.326309e+002
3.104505e+002, 1.316224e+002
3.109326e+002, 1.304941e+002
3.114148e+002, 1.294530e+002
3.118969e+002, 1.267205e+002
3.123790e+002, 1.260588e+002
3.128611e+002, 1.301519e+002
3.133432e+002, 1.365908e+002
3.138253e+002, 1.417248e+002
3.143075e+002, 1.439118e+002
3.147896e+002, 1.436398e+002
3.152717e+002, 1.420044e+002
3.157538e+002, 1.370320e+002
3.162359e+002, 1.335502e+002
3.167180e+002, 1.328812e+002
3.172001e+002, 1.334737e+002
3.176823e+002, 1.337069e+002
3.181644e+002, 1.331018e+002
3.186465e+002, 1.320773e+002
3.191286e+002, 1.311656e+002
3.196107e+002, 1.300073e+002
3.200928e+002, 1.300641e+002
3.205750e+002, 1.323030e+002
3.210571e+002, 1.350496e+002
3.215392e+002, 1.374274e+002
3.220213e+002, 1.391454e+002
3.225034e+002, 1.397413e+002
3.229855e+002, 1.384875e+002
3.234677e+002, 1.349007e+002
3.239498e+002, 1.331299e+002
3.244319e+002, 1.346546e+002
3.249140e+002, 1.363202e+002
3.253961e+002, 1.364201e+002
3.258782e+002, 1.352524e+002
3.263604e+002, 1.341105e+002
3.268425e+002, 1.339226e+002
3.273246e+002, 1.345810e+002
3.278067e+002, 1.348467e+002
3.282888e+002, 1.343265e+002
3.287709e+002, 1.339219e+002
3.292531e+002, 1.343394e+002
3.297352e+002, 1.349408e+002
3.302173e+002, 1.344413e+002
3.306994e+002, 1.321629e+002
3.311815e+002, 1.290054e+002
3.316636e+002, 1.273989e+002
3.321458e+002, 1.286912e+002
3.326279e+002, 1.299743e+002
3.331100e+002, 1.317004e+002
3.335921e+002, 1.331108e+002
3.340742e+002, 1.332179e+002
3.345563e+002, 1.318158e+002
3.350385e+002, 1.297839e+002
3.355206e+002, 1.282806e+002
3.360027e+002, 1.268930e+002
3.364848e+002, 1.273951e+002
3.369669e+002, 1.327675e+002
3.374490e+002, 1.375116e+002
3.379312e+002, 1.369022e+002
3.384133e+002, 1.315148e+002
3.388954e+002, 1.261624e+002
3.393775e+002, 1.254998e+002
3.398596e+002, 1.300361e+002
3.403417e+002, 1.328734e+002
3.408239e+002, 1.328999e+002
3.413060e+002, 1.326343e+002
3.417881e+002, 1.331640e+002
3.422702e+002, 1.340740e+002
3.427523e+002, 1.342201e+002
3.432344e+002, 1.327981e+002
3.437166e+002, 1.303134e+002
3.441987e+002, 1.292458e+002
3.446808e+002, 1.314599e+002
3.451629e+002, 1.330422e+002
3.456450e+002, 1.333184e+002
3.461271e+002, 1.329156e+002
3.466093e+002, 1.324716e+002
3.470914e+002, 1.322383e+002
3.475735e+002, 1.321683e+002
3.480556e+002, 1.321800e+002
3.485377e+002, 1.322827e+002
3.490198e+002, 1.324653e+002
3.495020e+002, 1.339944e+002
3.499841e+002, 1.346874e+002
3.504662e+002, 1.320191e+002
3.509483e+002, 1.263745e+002
3.514304e+002, 1.209962e+002
3.519125e+002, 1.196307e+002
3.523947e+002, 1.230177e+002
3.528768e+002, 1.254941e+002
3.533589e+002, 1.262142e+002
3.538410e+002, 1.268696e+002
3.543231e+002, 1.283956e+002
3.548052e+002, 1.303107e+002
3.552874e+002, 1.314869e+002
3.557695e+002, 1.310604e+002
3.562516e+002, 1.293563e+002
3.567337e+002, 1.282566e+002
3.572158e+002, 1.285648e+002
3.576979e+002, 1.283814e+002
3.581800e+002, 1.267094e+002
3.586621e+002, 1.246787e+002
3.591443e+002, 1.238191e+002
3.596264e+002, 1.247028e+002
3.601085e+002, 1.260590e+002
3.605906e+002, 1.250980e+002
3.610727e+002, 1.198515e+002
3.615548e+002, 1.175292e+002
3.620370e+002, 1.219258e+002
3.625191e+002, 1.269430e+002
3.630012e+002, 1.284761e+002
3.634833e+002, 1.264043e+002
3.639654e+002, 1.237047e+002
3.644475e+002, 1.237458e+002
3.649297e+002, 1.267927e+002
3.654118e+002, 1.280348e+002
3.658939e+002, 1.255126e+002
3.663760e+002, 1.232647e+002
3.668581e+002, 1.233407e+002
3.673402e+002, 1.248739e+002
3.678224e+002, 1.259233e+002
3.683045e+002, 1.251216e+002
3.687866e+002, 1.232464e+002
3.692687e+002, 1.225923e+002
3.697508e+002, 1.234226e+002
3.702329e+002, 1.249654e+002
3.707151e+002, 1.287115e+002
3.711972e+002, 1.321668e+002
3.716793e+002, 1.322684e+002
3.721614e+002, 1.278178e+002
3.726435e+002, 1.222900e+002
3.731256e+002, 1.201727e+002
3.736078e+002, 1.217255e+002
3.740899e+002, 1.229650e+002
3.745720e+002, 1.228800e+002
3.750541e+002, 1.223758e+002
3.755362e+002, 1.218424e+002
3.760183e+002, 1.213818e+002
3.765005e+002, 1.215354e+002
3.769826e+002, 1.234994e+002
3.774647e+002, 1.264841e+002
3.779468e+002, 1.272669e+002
3.784289e+002, 1.247171e+002
3.789110e+002, 1.220408e+002
3.793932e+002, 1.217420e+002
3.798753e+002, 1.228230e+002
3.803574e+002, 1.233850e+002
3.808395e+002, 1.222055e+002
3.813216e+002, 1.208328e+002
3.818037e+002, 1.215649e+002
3.822859e+002, 1.244566e+002
3.827680e+002, 1.268430e+002
3.832501e+002, 1.276068e+002
3.837322e+002, 1.270863e+002
3.842143e+002, 1.258142e+002
3.846964e+002, 1.234658e+002
3.851786e+002, 1.215776e+002
3.856607e+002, 1.210958e+002
3.861428e+002, 1.217596e+002
3.866249e+002, 1.232168e+002
3.871070e+002, 1.257959e+002
3.875891e+002, 1.279756e+002
3.880713e+002, 1.272020e+002
3.885534e+002, 1.237953e+002
3.890355e+002, 1.216571e+002
3.895176e+002, 1.237352e+002
3.899997e+002, 1.260938e+002
3.904818e+002, 1.239688e+002
3.909640e+002, 1.173898e+002
3.914461e+002, 1.109078e+002
3.919282e+002, 1.071612e+002
3.924103e+002, 1.062443e+002
3.928924e+002, 1.076047e+002
3.933745e+002, 1.136427e+002
3.938567e+002, 1.191278e+002
3.943388e+002, 1.214267e+002
3.948209e+002, 1.217904e+002
3.953030e+002, 1.229531e+002
3.957851e+002, 1.261134e+002
3.962672e+002, 1.294049e+002
3.967494e+002, 1.292502e+002
3.972315e+002, 1.232813e+002
3.977136e+002, 1.195217e+002
3.981957e+002, 1.197896e+002
3.986778e+002, 1.213725e+002
3.991599e+002, 1.222166e+002
3.996420e+002, 1.220511e+002
4.001241e+002, 1.215293e+002
4.006063e+002, 1.212828e+002
4.010884e+002, 1.213437e+002
4.015705e+002, 1.204772e+002
4.020526e+002, 1.156105e+002
4.025347e+002, 1.133042e+002
4.030168e+002, 1.183138e+002
4.034990e+002, 1.266656e+002
4.039811e+002, 1.316321e+002
4.044632e+002, 1.299383e+002
4.049453e+002, 1.242013e+002
4.054274e+002, 1.207543e+002
4.059095e+002, 1.213270e+002
4.063917e+002, 1.214089e+002
4.068738e+002, 1.201432e+002
4.073559e+002, 1.189032e+002
4.078380e+002, 1.186288e+002
4.083201e+002, 1.194409e+002
4.088022e+002, 1.209777e+002
4.092844e+002, 1.232485e+002
4.097665e+002, 1.264063e+002
4.102486e+002, 1.275397e+002
4.107307e+002, 1.240059e+002
4.112128e+002, 1.212581e+002
4.116949e+002, 1.212312e+002
4.121771e+002, 1.229768e+002
4.126592e+002, 1.249313e+002
4.131413e+002, 1.263681e+002
4.136234e+002, 1.274488e+002
4.141055e+002, 1.286310e+002
4.145876e+002, 1.302075e+002
4.150698e+002, 1.309926e+002
4.155519e+002, 1.292122e+002
4.160340e+002, 1.275459e+002
4.165161e+002, 1.284431e+002
4.169982e+002, 1.320031e+002
4.174803e+002, 1.352923e+002
4.179625e+002, 1.355248e+002
4.184446e+002, 1.331402e+002
4.189267e+002, 1.309451e+002
4.194088e+002, 1.285067e+002
4.198909e+002, 1.274676e+002
4.203730e+002, 1.299532e+002
4.208552e+002, 1.344402e+002
4.213373e+002, 1.378672e+002
4.218194e+002, 1.392164e+002
4.223015e+002, 1.390670e+002
4.227836e+002, 1.371567e+002
4.232657e+002, 1.335353e+002
4.237479e+002, 1.318311e+002
4.242300e+002, 1.341766e+002
4.247121e+002, 1.386769e+002
4.251942e+002, 1.424536e+002
4.256763e+002, 1.455690e+002
4.261584e+002, 1.477089e+002
4.266406e+002, 1.480621e+002
4.271227e+002, 1.475455e+002
4.276048e+002, 1.478207e+002
4.280869e+002, 1.492170e+002
4.285690e+002, 1.506806e+002
4.290511e+002, 1.510353e+002
4.295333e+002, 1.503285e+002
4.300154e+002, 1.507937e+002
4.304975e+002, 1.532289e+002
4.309796e+002, 1.560960e+002
4.314617e+002, 1.588061e+002
4.319438e+002, 1.612596e+002
4.324260e+002, 1.633879e+002
4.329081e+002, 1.651841e+002
4.333902e+002, 1.664710e+002
4.338723e+002, 1.667078e+002
4.343544e+002, 1.639143e+002
4.348365e+002, 1.634372e+002
4.353187e+002, 1.681414e+002
4.358008e+002, 1.734400e+002
4.362829e+002, 1.746279e+002
4.367650e+002, 1.718031e+002
4.372471e+002, 1.693673e+002
4.377292e+002, 1.717652e+002
4.382114e+002, 1.791992e+002
4.386935e+002, 1.837415e+002
4.391756e+002, 1.830228e+002
4.396577e+002, 1.819992e+002
4.401398e+002, 1.808951e+002
4.406219e+002, 1.804249e+002
4.411040e+002, 1.818428e+002
4.415862e+002, 1.856567e+002
4.420683e+002, 1.902738e+002
4.425504e+002, 1.926411e+002
4.430325e+002, 1.920028e+002
4.435146e+002, 1.914501e+002
4.439967e+002, 1.909909e+002
4.444789e+002, 1.908954e+002
4.449610e+002, 1.915306e+002
4.454431e+002, 1.927260e+002
4.459252e+002, 1.939238e+002
4.464073e+002, 1.949878e+002
4.468894e+002, 1.956927e+002
4.473716e+002, 1.949746e+002
4.478537e+002, 1.922683e+002
4.483358e+002, 1.895455e+002
4.488179e+002, 1.868000e+002
4.493000e+002, 1.848596e+002
4.497821e+002, 1.852223e+002
4.502643e+002, 1.886977e+002
4.507464e+002, 1.920770e+002
4.512285e+002, 1.918398e+002
4.517106e+002, 1.888395e+002
4.521927e+002, 1.875935e+002
4.526748e+002, 1.895995e+002
4.531570e+002, 1.922978e+002
4.536391e+002, 1.934224e+002
4.541212e+002, 1.931569e+002
4.546033e+002, 1.916840e+002
4.550854e+002, 1.876474e+002
4.555675e+002, 1.834570e+002
4.560497e+002, 1.813879e+002
4.565318e+002, 1.812522e+002
4.570139e+002, 1.815686e+002
4.574960e+002, 1.816478e+002
4.579781e+002, 1.816306e+002
4.584602e+002, 1.820636e+002
4.589424e+002, 1.839762e+002
4.594245e+002, 1.841995e+002
4.599066e+002, 1.808088e+002
4.603887e+002, 1.762283e+002
4.608708e+002, 1.727776e+002
4.613529e+002, 1.708528e+002
4.618351e+002, 1.697820e+002
4.623172e+002, 1.689559e+002
4.627993e+002, 1.683732e+002
4.632814e+002, 1.682578e+002
4.637635e+002, 1.694418e+002
4.642456e+002, 1.701076e+002
4.647278e+002, 1.689644e+002
4.652099e+002, 1.673067e+002
4.656920e+002, 1.670657e+002
4.661741e+002, 1.689606e+002
4.666562e+002, 1.718781e+002
4.671383e+002, 1.741381e+002
4.676205e+002, 1.759651e+002
4.681026e+002, 1.764568e+002
4.685847e+002, 1.745301e+002
4.690668e+002, 1.721888e+002
4.695489e+002, 1.701936e+002
4.700310e+002, 1.685244e+002
4.705132e+002, 1.668503e+002
4.709953e+002, 1.647619e+002
4.714774e+002, 1.627273e+002
4.719595e+002, 1.621504e+002
4.724416e+002, 1.634469e+002
4.729237e+002, 1.646546e+002
4.734059e+002, 1.649090e+002
4.738880e+002, 1.648653e+002
4.743701e+002, 1.650339e+002
4.748522e+002, 1.654638e+002
4.753343e+002, 1.661910e+002
4.758164e+002, 1.675704e+002
4.762986e+002, 1.692313e+002
4.767807e+002, 1.703129e+002
4.772628e+002, 1.707222e+002
4.777449e+002, 1.705082e+002
4.782270e+002, 1.695401e+002
4.787091e+002, 1.679237e+002
4.791913e+002, 1.662205e+002
4.796734e+002, 1.639191e+002
4.801555e+002, 1.621363e+002
4.806376e+002, 1.617844e+002
4.811197e+002, 1.623357e+002
4.816018e+002, 1.627325e+002
4.820839e+002, 1.626394e+002
4.825660e+002, 1.621954e+002
4.830482e+002, 1.615083e+002
4.835303e+002, 1.603625e+002
4.840124e+002, 1.598546e+002
4.844945e+002, 1.604938e+002
4.849766e+002, 1.612507e+002
4.854587e+002, 1.619745e+002
4.859409e+002, 1.623580e+002
4.864230e+002, 1.616585e+002
4.869051e+002, 1.593756e+002
4.873872e+002, 1.562544e+002
4.878693e+002, 1.545394e+002
4.883514e+002, 1.551936e+002
4.888336e+002, 1.554512e+002
4.893157e+002, 1.551443e+002
4.897978e+002, 1.544206e+002
4.902799e+002, 1.529734e+002
4.907620e+002, 1.510761e+002
4.912441e+002, 1.497944e+002
4.917263e+002, 1.506131e+002
4.922084e+002, 1.527239e+002
4.926905e+002, 1.516342e+002
4.931726e+002, 1.454154e+002
4.936547e+002, 1.406551e+002
4.941368e+002, 1.416883e+002
4.946190e+002, 1.447809e+002
4.951011e+002, 1.463394e+002
4.955832e+002, 1.456807e+002
4.960653e+002, 1.439929e+002
4.965474e+002, 1.416351e+002
4.970295e+002, 1.389398e+002
4.975117e+002, 1.368650e+002
4.979938e+002, 1.355085e+002
4.984759e+002, 1.349977e+002
4.989580e+002, 1.361315e+002
4.994401e+002, 1.383723e+002
4.999222e+002, 1.389009e+002
5.004044e+002, 1.367677e+002
5.008865e+002, 1.336992e+002
5.013686e+002, 1.295490e+002
5.018507e+002, 1.252278e+002
5.023328e+002, 1.227776e+002
5.028149e+002, 1.229478e+002
5.032971e+002, 1.242774e+002
5.037792e+002, 1.247065e+002
5.042613e+002, 1.238778e+002
5.047434e+002, 1.234188e+002
5.052255e+002, 1.233309e+002
5.057076e+002, 1.235657e+002
5.061898e+002, 1.248002e+002
5.066719e+002, 1.262646e+002
5.071540e+002, 1.262960e+002
5.076361e+002, 1.239630e+002
5.081182e+002, 1.203671e+002
5.086003e+002, 1.178743e+002
5.090825e+002, 1.162070e+002
5.095646e+002, 1.164023e+002
5.100467e+002, 1.218191e+002
5.105288e+002, 1.263354e+002
5.110109e+002, 1.254443e+002
5.114930e+002, 1.203504e+002
5.119752e+002, 1.161566e+002
5.124573e+002, 1.166790e+002
5.129394e+002, 1.198195e+002
5.134215e+002, 1.208534e+002
5.139036e+002, 1.196210e+002
5.143857e+002, 1.171775e+002
5.148679e+002, 1.125983e+002
5.153500e+002, 1.079803e+002
5.158321e+002, 1.058261e+002
5.163142e+002, 1.062817e+002
5.167963e+002, 1.083107e+002
5.172784e+002, 1.136622e+002
5.177606e+002, 1.193154e+002
5.182427e+002, 1.200826e+002
5.187248e+002, 1.157897e+002
5.192069e+002, 1.117622e+002
5.196890e+002, 1.115741e+002
5.201711e+002, 1.145053e+002
5.206533e+002, 1.170231e+002
5.211354e+002, 1.204021e+002
5.216175e+002, 1.218034e+002
5.220996e+002, 1.192281e+002
5.225817e+002, 1.153339e+002
5.230638e+002, 1.127015e+002
5.235460e+002, 1.117778e+002
5.240281e+002, 1.115680e+002
5.245102e+002, 1.111274e+002
5.249923e+002, 1.104764e+002
5.254744e+002, 1.103611e+002
5.259565e+002, 1.108579e+002
5.264387e+002, 1.118556e+002
5.269208e+002, 1.146234e+002
5.274029e+002, 1.171886e+002
5.278850e+002, 1.168117e+002
5.283671e+002, 1.129837e+002
5.288492e+002, 1.090542e+002
5.293314e+002, 1.091937e+002
5.298135e+002, 1.128576e+002
5.302956e+002, 1.145025e+002
5.307777e+002, 1.130982e+002
5.312598e+002, 1.111653e+002
5.317419e+002, 1.100022e+002
5.322241e+002, 1.094076e+002
5.327062e+002, 1.090772e+002
5.331883e+002, 1.088384e+002
5.336704e+002, 1.091071e+002
5.341525e+002, 1.106497e+002
5.346346e+002, 1.128655e+002
5.351168e+002, 1.143603e+002
5.355989e+002, 1.148082e+002
5.360810e+002, 1.146038e+002
5.365631e+002, 1.140138e+002
5.370452e+002, 1.130121e+002
5.375273e+002, 1.123381e+002
5.380095e+002, 1.116635e+002
5.384916e+002, 1.116428e+002
5.389737e+002, 1.132140e+002
5.394558e+002, 1.153600e+002
5.399379e+002, 1.165559e+002
5.404200e+002, 1.163234e+002
5.409022e+002, 1.153505e+002
5.413843e+002, 1.144705e+002
5.418664e+002, 1.135885e+002
5.423485e+002, 1.133424e+002
5.428306e+002, 1.141173e+002
5.433127e+002, 1.151556e+002
5.437948e+002, 1.169162e+002
5.442769e+002, 1.185829e+002
5.447590e+002, 1.187113e+002
5.452411e+002, 1.166133e+002
5.457233e+002, 1.140242e+002
5.462054e+002, 1.132888e+002
5.466875e+002, 1.142607e+002
5.471696e+002, 1.146911e+002
5.476517e+002, 1.138323e+002
5.481339e+002, 1.131497e+002
5.486160e+002, 1.145551e+002
5.490981e+002, 1.172042e+002
5.495802e+002, 1.186461e+002
5.500623e+002, 1.176825e+002
5.505444e+002, 1.161801e+002
5.510266e+002, 1.147255e+002
5.515087e+002, 1.136848e+002
5.519908e+002, 1.145035e+002
5.524729e+002, 1.177254e+002
5.529550e+002, 1.206549e+002
5.534371e+002, 1.194899e+002
5.539193e+002, 1.129610e+002
5.544014e+002, 1.101602e+002
5.548835e+002, 1.143674e+002
5.553656e+002, 1.181072e+002
5.558477e+002, 1.182493e+002
5.563298e+002, 1.163489e+002
5.568120e+002, 1.146438e+002
5.572941e+002, 1.139963e+002
5.577762e+002, 1.143076e+002
5.582583e+002, 1.159939e+002
5.587404e+002, 1.194577e+002
5.592225e+002, 1.206503e+002
5.597047e+002, 1.169264e+002
5.601868e+002, 1.142717e+002
5.606689e+002, 1.168565e+002
5.611510e+002, 1.219214e+002
5.616331e+002, 1.246706e+002
5.621152e+002, 1.232041e+002
5.625974e+002, 1.203881e+002
5.630795e+002, 1.182198e+002
5.635616e+002, 1.168160e+002
5.640437e+002, 1.168628e+002
5.645258e+002, 1.187378e+002
5.650079e+002, 1.209912e+002
5.654901e+002, 1.225480e+002
5.659722e+002, 1.233197e+002
5.664543e+002, 1.230939e+002
5.669364e+002, 1.206027e+002
5.674185e+002, 1.185713e+002
5.679006e+002, 1.180003e+002
5.683828e+002, 1.185348e+002
5.688649e+002, 1.201628e+002
5.693470e+002, 1.226626e+002
5.698291e+002, 1.246119e+002
5.703112e+002, 1.241242e+002
5.707933e+002, 1.209983e+002
5.712755e+002, 1.190478e+002
5.717576e+002, 1.192179e+002
5.722397e+002, 1.194191e+002
5.727218e+002, 1.192227e+002
5.732039e+002, 1.187547e+002
5.736860e+002, 1.176586e+002
5.741682e+002, 1.159156e+002
5.746503e+002, 1.154295e+002
5.751324e+002, 1.199073e+002
5.756145e+002, 1.275478e+002
5.760966e+002, 1.295750e+002
5.765787e+002, 1.242091e+002
5.770609e+002, 1.180450e+002
5.775430e+002, 1.141467e+002
5.780251e+002, 1.126314e+002
5.785072e+002, 1.138087e+002
5.789893e+002, 1.197902e+002
5.794714e+002, 1.237129e+002
5.799536e+002, 1.205850e+002
5.804357e+002, 1.152045e+002
5.809178e+002, 1.138807e+002
5.813999e+002, 1.170254e+002
5.818820e+002, 1.207448e+002
5.823641e+002, 1.221750e+002
5.828463e+002, 1.215759e+002
5.833284e+002, 1.204394e+002
5.838105e+002, 1.176487e+002
5.842926e+002, 1.159723e+002
5.847747e+002, 1.160413e+002
5.852568e+002, 1.169068e+002
5.857390e+002, 1.180902e+002
5.862211e+002, 1.194042e+002
5.867032e+002, 1.206410e+002
5.871853e+002, 1.217700e+002
5.876674e+002, 1.226325e+002
5.881495e+002, 1.226431e+002
5.886317e+002, 1.216533e+002
5.891138e+002, 1.206684e+002
5.895959e+002, 1.195788e+002
5.900780e+002, 1.190757e+002
5.905601e+002, 1.206119e+002
5.910422e+002, 1.241428e+002
5.915244e+002, 1.258242e+002
5.920065e+002, 1.220778e+002
5.924886e+002, 1.178648e+002
5.929707e+002, 1.184643e+002
5.934528e+002, 1.226724e+002
5.939349e+002, 1.258184e+002
5.944171e+002, 1.257906e+002
5.948992e+002, 1.241065e+002
5.953813e+002, 1.234305e+002
5.958634e+002, 1.242989e+002
5.963455e+002, 1.245877e+002
5.968276e+002, 1.227739e+002
5.973098e+002, 1.220479e+002
5.977919e+002, 1.250400e+002
5.982740e+002, 1.297067e+002
5.987561e+002, 1.324296e+002
5.992382e+002, 1.316859e+002
5.997203e+002, 1.295754e+002
6.002025e+002, 1.292049e+002
6.006846e+002, 1.304887e+002
6.011667e+002, 1.298590e+002
6.016488e+002, 1.256370e+002
6.021309e+002, 1.221440e+002
6.026130e+002, 1.228011e+002
6.030952e+002, 1.262635e+002
6.035773e+002, 1.302719e+002
6.040594e+002, 1.356871e+002
6.045415e+002, 1.394634e+002
6.050236e+002, 1.392845e+002
6.055057e+002, 1.367923e+002
6.059879e+002, 1.339817e+002
6.064700e+002, 1.313645e+002
6.069521e+002, 1.296686e+002
6.074342e+002, 1.295397e+002
6.079163e+002, 1.308597e+002
6.083984e+002, 1.328032e+002
6.088806e+002, 1.368393e+002
6.093627e+002, 1.394116e+002
6.098448e+002, 1.394742e+002
6.103269e+002, 1.385725e+002
6.108090e+002, 1.375423e+002
6.112911e+002, 1.366664e+002
6.117733e+002, 1.362398e+002
6.122554e+002, 1.364986e+002
6.127375e+002, 1.373167e+002
6.132196e+002, 1.382454e+002
6.137017e+002, 1.392064e+002
6.141838e+002, 1.413506e+002
6.146660e+002, 1.458214e+002
6.151481e+002, 1.506718e+002
6.156302e+002, 1.542263e+002
6.161123e+002, 1.565317e+002
6.165944e+002, 1.562101e+002
6.170765e+002, 1.493859e+002
6.175587e+002, 1.432505e+002
6.180408e+002, 1.441401e+002
6.185229e+002, 1.492565e+002
6.190050e+002, 1.517714e+002
6.194871e+002, 1.493528e+002
6.199692e+002, 1.458539e+002
6.204514e+002, 1.467233e+002
6.209335e+002, 1.527812e+002
6.214156e+002, 1.569817e+002
6.218977e+002, 1.583527e+002
6.223798e+002, 1.588976e+002
6.228619e+002, 1.589358e+002
6.233441e+002, 1.585205e+002
6.238262e+002, 1.573139e+002
6.243083e+002, 1.552957e+002
6.247904e+002, 1.539080e+002
6.252725e+002, 1.550681e+002
6.257546e+002, 1.577300e+002
6.262367e+002, 1.589177e+002
6.267188e+002, 1.583984e+002
6.272009e+002, 1.574124e+002
6.276830e+002, 1.564438e+002
6.281652e+002, 1.555388e+002
6.286473e+002, 1.546967e+002
6.291294e+002, 1.536292e+002
6.296115e+002, 1.534680e+002
6.300936e+002, 1.556095e+002
6.305757e+002, 1.576592e+002
6.310579e+002, 1.580617e+002
6.315400e+002, 1.568766e+002
6.320221e+002, 1.542688e+002
6.325042e+002, 1.502632e+002
6.329863e+002, 1.462631e+002
6.334684e+002, 1.451738e+002
6.339506e+002, 1.476508e+002
6.344327e+002, 1.499177e+002
6.349148e+002, 1.531802e+002
6.353969e+002, 1.543157e+002
6.358790e+002, 1.497538e+002
6.363611e+002, 1.427677e+002
6.368433e+002, 1.394066e+002
6.373254e+002, 1.421989e+002
6.378075e+002, 1.455083e+002
6.382896e+002, 1.449058e+002
6.387717e+002, 1.420755e+002
6.392538e+002, 1.403804e+002
6.397360e+002, 1.402547e+002
6.402181e+002, 1.399217e+002
6.407002e+002, 1.379678e+002
6.411823e+002, 1.349659e+002
6.416644e+002, 1.332400e+002
6.421465e+002, 1.341113e+002
6.426287e+002, 1.344921e+002
6.431108e+002, 1.343905e+002
6.435929e+002, 1.337588e+002
6.440750e+002, 1.321177e+002
6.445571e+002, 1.299110e+002
6.450392e+002, 1.282303e+002
6.455214e+002, 1.277053e+002
6.460035e+002, 1.279486e+002
6.464856e+002, 1.285008e+002
6.469677e+002, 1.293597e+002
6.474498e+002, 1.300470e+002
6.479319e+002, 1.308618e+002
6.484141e+002, 1.306548e+002
6.488962e+002, 1.270793e+002
6.493783e+002, 1.215134e+002
6.498604e+002, 1.194117e+002
6.503425e+002, 1.246144e+002
6.508246e+002, 1.286797e+002
6.513068e+002, 1.268287e+002
6.517889e+002, 1.227789e+002
6.522710e+002, 1.213599e+002
6.527531e+002, 1.229518e+002
6.532352e+002, 1.245642e+002
6.537173e+002, 1.237638e+002
6.541995e+002, 1.212803e+002
6.546816e+002, 1.202210e+002
6.551637e+002, 1.211491e+002
6.556458e+002, 1.221635e+002
6.561279e+002, 1.243404e+002
6.566100e+002, 1.253278e+002
6.570922e+002, 1.226988e+002
6.575743e+002, 1.175307e+002
6.580564e+002, 1.135694e+002
6.585385e+002, 1.125203e+002
6.590206e+002, 1.128368e+002
6.595027e+002, 1.135441e+002
6.599849e+002, 1.144260e+002
6.604670e+002, 1.147678e+002
6.609491e+002, 1.143887e+002
6.614312e+002, 1.140479e+002
6.619133e+002, 1.147256e+002
6.623954e+002, 1.161997e+002
6.628776e+002, 1.153154e+002
6.633597e+002, 1.084013e+002
6.638418e+002, 1.039530e+002
6.643239e+002, 1.040201e+002
6.648060e+002, 1.059120e+002
6.652881e+002, 1.083347e+002
6.657703e+002, 1.105835e+002
6.662524e+002, 1.113623e+002
6.667345e+002, 1.093780e+002
6.672166e+002, 1.061799e+002
6.676987e+002, 1.047308e+002
6.681808e+002, 1.049792e+002
6.686630e+002, 1.047788e+002
6.691451e+002, 1.031345e+002
6.696272e+002, 1.021668e+002
6.701093e+002, 1.050250e+002
6.705914e+002, 1.111092e+002
6.710735e+002, 1.132247e+002
6.715557e+002, 1.066820e+002
6.720378e+002, 1.017670e+002
6.725199e+002, 1.035966e+002
6.730020e+002, 1.076967e+002
6.734841e+002, 1.094091e+002
6.739662e+002, 1.080434e+002
6.744484e+002, 1.049640e+002
6.749305e+002, 1.007323e+002
6.754126e+002, 9.633510e+001
6.758947e+002, 9.543419e+001
6.763768e+002, 9.890141e+001
6.768589e+002, 1.020995e+002
6.773411e+002, 1.048315e+002
6.778232e+002, 1.061772e+002
6.783053e+002, 1.044403e+002
6.787874e+002, 1.006379e+002
6.792695e+002, 9.856165e+001
6.797516e+002, 1.002822e+002
6.802338e+002, 1.024044e+002
6.807159e+002, 1.028788e+002
6.811980e+002, 1.024832e+002
6.816801e+002, 1.025910e+002
6.821622e+002, 1.033495e+002
6.826443e+002, 1.036275e+002
6.831265e+002, 1.023006e+002
6.836086e+002, 9.997463e+001
6.840907e+002, 9.970094e+001
6.845728e+002, 1.024687e+002
6.850549e+002, 1.051221e+002
6.855370e+002, 1.077430e+002
6.860192e+002, 1.096745e+002
6.865013e+002, 1.102748e+002
6.869834e+002, 1.098457e+002
6.874655e+002, 1.093165e+002
6.879476e+002, 1.092335e+002
6.884297e+002, 1.087867e+002
6.889119e+002, 1.070673e+002
6.893940e+002, 1.044737e+002
6.898761e+002, 1.013899e+002
6.903582e+002, 9.794287e+001
6.908403e+002, 9.618041e+001
6.913224e+002, 9.801133e+001
6.918046e+002, 1.025313e+002
6.922867e+002, 1.054970e+002
6.927688e+002, 1.064968e+002
6.932509e+002, 1.065080e+002
6.937330e+002, 1.042395e+002
6.942151e+002, 1.022987e+002
6.946973e+002, 1.029973e+002
6.951794e+002, 1.052349e+002
6.956615e+002, 1.059099e+002
6.961436e+002, 1.032008e+002
6.966257e+002, 1.002189e+002
6.971078e+002, 1.014490e+002
6.975900e+002, 1.053265e+002
6.980721e+002, 1.056890e+002
6.985542e+002, 1.014177e+002
6.990363e+002, 9.755038e+001
6.995184e+002, 9.761673e+001
7.000005e+002, 1.005785e+002
7.004827e+002, 1.028283e+002
7.009648e+002, 1.041334e+002
7.014469e+002, 1.050505e+002
7.019290e+002, 1.049326e+002
7.024111e+002, 1.050424e+002
7.028932e+002, 1.069906e+002
7.033754e+002, 1.095879e+002
7.038575e+002, 1.101648e+002
7.043396e+002, 1.075171e+002
7.048217e+002, 1.039957e+002
7.053038e+002, 1.021754e+002
7.057859e+002, 1.019070e+002
7.062681e+002, 1.028931e+002
7.067502e+002, 1.053927e+002
7.072323e+002, 1.070581e+002
7.077144e+002, 1.063002e+002
7.081965e+002, 1.041190e+002
7.086786e+002, 1.028748e+002
7.091607e+002, 1.031084e+002
7.096428e+002, 1.026400e+002
7.101249e+002, 1.001875e+002
7.106071e+002, 9.812743e+001
7.110892e+002, 9.793833e+001
7.115713e+002, 9.904039e+001
7.120534e+002, 1.005594e+002
7.125355e+002, 1.021528e+002
7.130176e+002, 1.033851e+002
7.134998e+002, 1.038148e+002
7.139819e+002, 1.034744e+002
7.144640e+002, 1.020633e+002
7.149461e+002, 9.918369e+001
7.154282e+002, 9.801317e+001
7.159103e+002, 1.008060e+002
7.163925e+002, 1.049972e+002
7.168746e+002, 1.063797e+002
7.173567e+002, 1.045743e+002
7.178388e+002, 1.036799e+002
7.183209e+002, 1.052018e+002
7.188030e+002, 1.064285e+002
7.192852e+002, 1.058197e+002
7.197673e+002, 1.042553e+002
7.202494e+002, 1.030086e+002
7.207315e+002, 1.023533e+002
7.212136e+002, 1.016373e+002
7.216957e+002, 1.000536e+002
7.221779e+002, 9.803038e+001
7.226600e+002, 9.698664e+001
7.231421e+002, 9.688741e+001
7.236242e+002, 9.821677e+001
7.241063e+002, 1.019051e+002
7.245884e+002, 1.058431e+002
7.250706e+002, 1.081292e+002
7.255527e+002, 1.087484e+002
7.260348e+002, 1.073478e+002
7.265169e+002, 1.006608e+002
7.269990e+002, 9.594469e+001
7.274811e+002, 9.694042e+001
7.279633e+002, 1.002894e+002
7.284454e+002, 1.030505e+002
7.289275e+002, 1.045292e+002
7.294096e+002, 1.045156e+002
7.298917e+002, 1.024992e+002
7.303738e+002, 9.986955e+001
7.308560e+002, 9.997782e+001
7.313381e+002, 1.029245e+002
7.318202e+002, 1.050108e+002
7.323023e+002, 1.054688e+002
7.327844e+002, 1.054481e+002
7.332665e+002, 1.060467e+002
7.337487e+002, 1.068009e+002
7.342308e+002, 1.060264e+002
7.347129e+002, 1.028678e+002
7.351950e+002, 9.982982e+001
7.356771e+002, 9.652605e+001
7.361592e+002, 9.426493e+001
7.366414e+002, 9.451077e+001
7.371235e+002, 9.661651e+001
7.376056e+002, 9.916147e+001
7.380877e+002, 1.015545e+002
7.385698e+002, 1.031323e+002
7.390519e+002, 1.028175e+002
7.395341e+002, 1.007638e+002
7.400162e+002, 9.800452e+001
7.404983e+002, 9.423088e+001
7.409804e+002, 9.154634e+001
7.414625e+002, 9.134297e+001
7.419446e+002, 9.252429e+001
7.424268e+002, 9.259128e+001
7.429089e+002, 9.061549e+001
7.433910e+002, 9.221203e+001
7.438731e+002, 1.027465e+002
7.443552e+002, 1.116359e+002
7.448373e+002, 1.126028e+002
7.453195e+002, 1.092716e+002
7.458016e+002, 1.069069e+002
7.462837e+002, 1.067380e+002
7.467658e+002, 1.064673e+002
7.472479e+002, 1.033617e+002
7.477300e+002, 9.901305e+001
7.482122e+002, 9.839334e+001
7.486943e+002, 1.015715e+002
7.491764e+002, 1.038715e+002
7.496585e+002, 1.039296e+002
7.501406e+002, 1.027865e+002
7.506227e+002, 1.010589e+002
7.511049e+002, 9.882169e+001
7.515870e+002, 9.811182e+001
7.520691e+002, 1.008962e+002
7.525512e+002, 1.024280e+002
7.530333e+002, 1.003400e+002
7.535154e+002, 9.787266e+001
7.539976e+002, 9.826782e+001
7.544797e+002, 1.008226e+002
7.549618e+002, 1.022206e+002
7.554439e+002, 1.003827e+002
7.559260e+002, 9.809792e+001
7.564081e+002, 1.001686e+002
7.568903e+002, 1.051119e+002
7.573724e+002, 1.059559e+002
7.578545e+002, 1.015958e+002
7.583366e+002, 9.793781e+001
7.588187e+002, 9.890190e+001
7.593008e+002, 1.026191e+002
7.597830e+002, 1.043725e+002
7.602651e+002, 1.028748e+002
7.607472e+002, 1.024558e+002
7.612293e+002, 1.046486e+002
7.617114e+002, 1.061389e+002
7.621935e+002, 1.049379e+002
7.626757e+002, 1.025310e+002
7.631578e+002, 1.007813e+002
7.636399e+002, 1.001460e+002
7.641220e+002, 1.003527e+002
7.646041e+002, 1.019328e+002
7.650862e+002, 1.038198e+002
7.655684e+002, 1.042035e+002
7.660505e+002, 1.033430e+002
7.665326e+002, 1.026807e+002
7.670147e+002, 1.026961e+002
7.674968e+002, 1.026137e+002
7.679789e+002, 1.013615e+002
7.684611e+002, 9.905690e+001
7.689432e+002, 9.877579e+001
7.694253e+002, 1.023046e+002
7.699074e+002, 1.047975e+002
7.703895e+002, 1.045804e+002
7.708716e+002, 1.039640e+002
7.713538e+002, 1.052391e+002
7.718359e+002, 1.074568e+002
7.723180e+002, 1.071223e+002
7.728001e+002, 1.013765e+002
7.732822e+002, 9.643588e+001
7.737643e+002, 9.774934e+001
7.742465e+002, 1.018966e+002
7.747286e+002, 1.040903e+002
7.752107e+002, 1.039722e+002
7.756928e+002, 1.028694e+002
7.761749e+002, 1.014089e+002
7.766570e+002, 1.003827e+002
7.771392e+002, 1.018291e+002
7.776213e+002, 1.063952e+002
7.781034e+002, 1.086615e+002
7.785855e+002, 1.077262e+002
7.790676e+002, 1.061358e+002
7.795497e+002, 1.044231e+002
7.800319e+002, 1.029977e+002
7.805140e+002, 1.024998e+002
7.809961e+002, 1.029924e+002
7.814782e+002, 1.035124e+002
7.819603e+002, 1.040228e+002
7.824424e+002, 1.042890e+002
7.829246e+002, 1.039392e+002
7.834067e+002, 1.033644e+002
7.838888e+002, 1.031423e+002
7.843709e+002, 1.033643e+002
7.848530e+002, 1.037422e+002
7.853351e+002, 1.040861e+002
7.858173e+002, 1.043631e+002
7.862994e+002, 1.048924e+002
7.867815e+002, 1.056765e+002
7.872636e+002, 1.038785e+002
7.877457e+002, 9.775929e+001
7.882278e+002, 9.315799e+001
7.887100e+002, 9.546743e+001
7.891921e+002, 1.026251e+002
7.896742e+002, 1.064098e+002
7.901563e+002, 1.053786e+002
7.906384e+002, 1.038291e+002
7.911205e+002, 1.005285e+002
7.916026e+002, 9.823109e+001
7.920847e+002, 9.942777e+001
7.925668e+002, 1.023543e+002
7.930490e+002, 1.040858e+002
7.935311e+002, 1.037575e+002
7.940132e+002, 1.024845e+002
7.944953e+002, 1.005849e+002
7.949774e+002, 9.862904e+001
7.954595e+002, 9.744978e+001
7.959417e+002, 9.711991e+001
7.964238e+002, 9.841250e+001
7.969059e+002, 1.017164e+002
7.973880e+002, 1.045063e+002
7.978701e+002, 1.036195e+002
7.983522e+002, 9.942646e+001
7.988344e+002, 9.826852e+001
7.993165e+002, 1.025456e+002
7.997986e+002, 1.052251e+002
8.002807e+002, 1.030715e+002
8.007628e+002, 1.009197e+002
8.012449e+002, 1.023625e+002
8.017271e+002, 1.060648e+002
8.022092e+002, 1.082507e+002
8.026913e+002, 1.079025e+002
8.031734e+002, 1.063212e+002
8.036555e+002, 1.028906e+002
8.041376e+002, 9.947532e+001
8.046198e+002, 9.812072e+001
8.051019e+002, 9.861999e+001
8.055840e+002, 1.001094e+002
8.060661e+002, 1.021847e+002
8.065482e+002, 1.041285e+002
8.070303e+002, 1.048451e+002
8.075125e+002, 1.044814e+002
8.079946e+002, 1.045692e+002
8.084767e+002, 1.053351e+002
8.089588e+002, 1.050839e+002
8.094409e+002, 1.024823e+002
8.099230e+002, 9.989729e+001
8.104052e+002, 1.002191e+002
8.108873e+002, 1.034701e+002
8.113694e+002, 1.062235e+002
8.118515e+002, 1.100600e+002
8.123336e+002, 1.112652e+002
8.128157e+002, 1.063208e+002
8.132979e+002, 1.007729e+002
8.137800e+002, 9.881445e+001
8.142621e+002, 1.001656e+002
8.147442e+002, 1.032375e+002
8.152263e+002, 1.078551e+002
8.157084e+002, 1.114093e+002
8.161906e+002, 1.104495e+002
8.166727e+002, 1.068617e+002
8.171548e+002, 1.041214e+002
8.176369e+002, 1.025448e+002
8.181190e+002, 1.023046e+002
8.186011e+002, 1.035717e+002
8.190833e+002, 1.052832e+002
8.195654e+002, 1.059578e+002
8.200475e+002, 1.055774e+002
8.205296e+002, 1.044562e+002
8.210117e+002, 1.016286e+002
8.214938e+002, 1.000422e+002
8.219760e+002, 1.014656e+002
8.224581e+002, 1.035537e+002
8.229402e+002, 1.040784e+002
8.234223e+002, 1.034810e+002
8.239044e+002, 1.039621e+002
8.243865e+002, 1.071266e+002
8.248687e+002, 1.096169e+002
8.253508e+002, 1.101103e+002
8.258329e+002, 1.093639e+002
8.263150e+002, 1.076168e+002
8.267971e+002, 1.053242e+002
8.272792e+002, 1.032794e+002
8.277614e+002, 1.018217e+002
8.282435e+002, 1.009338e+002
8.287256e+002, 1.007787e+002
8.292077e+002, 1.011740e+002
8.296898e+002, 1.013215e+002
8.301719e+002, 1.012014e+002
8.306541e+002, 1.016363e+002
8.311362e+002, 1.030885e+002
8.316183e+002, 1.046235e+002
8.321004e+002, 1.051224e+002
8.325825e+002, 1.045974e+002
8.330646e+002, 1.040085e+002
8.335468e+002, 1.030423e+002
8.340289e+002, 1.025180e+002
8.345110e+002, 1.029010e+002
8.349931e+002, 1.033840e+002
8.354752e+002, 1.032554e+002
8.359573e+002, 1.028449e+002
8.364395e+002, 1.030365e+002
8.369216e+002, 1.041419e+002
8.374037e+002, 1.055671e+002
8.378858e+002, 1.079596e+002
8.383679e+002, 1.097849e+002
8.388500e+002, 1.089144e+002
8.393322e+002, 1.061659e+002
8.398143e+002, 1.035111e+002
8.402964e+002, 1.017273e+002
8.407785e+002, 1.010958e+002
8.412606e+002, 1.026030e+002
8.417427e+002, 1.052701e+002
8.422249e+002, 1.043667e+002
8.427070e+002, 9.965157e+001
8.431891e+002, 9.770035e+001
8.436712e+002, 1.009484e+002
8.441533e+002, 1.044901e+002
8.446354e+002, 1.036820e+002
8.451176e+002, 9.973233e+001
8.455997e+002, 9.861314e+001
8.460818e+002, 1.029717e+002
8.465639e+002, 1.059950e+002
8.470460e+002, 1.069638e+002
8.475281e+002, 1.074323e+002
8.480103e+002, 1.080312e+002
8.484924e+002, 1.086459e+002
8.489745e+002, 1.089836e+002
8.494566e+002, 1.089881e+002
8.499387e+002, 1.090893e+002
8.504208e+002, 1.100763e+002
8.509030e+002, 1.107434e+002
8.513851e+002, 1.097516e+002
8.518672e+002, 1.077058e+002
8.523493e+002, 1.056600e+002
8.528314e+002, 1.038955e+002
8.533135e+002, 1.023621e+002
8.537957e+002, 1.010856e+002
8.542778e+002, 9.988257e+001
8.547599e+002, 9.762464e+001
8.552420e+002, 9.438908e+001
8.557241e+002, 9.510312e+001
8.562062e+002, 1.011469e+002
8.566884e+002, 1.068979e+002
8.571705e+002, 1.093546e+002
8.576526e+002, 1.096343e+002
8.581347e+002, 1.097394e+002
8.586168e+002, 1.097531e+002
8.590989e+002, 1.091964e+002
8.595811e+002, 1.069715e+002
8.600632e+002, 1.056068e+002
8.605453e+002, 1.070558e+002
8.610274e+002, 1.085524e+002
8.615095e+002, 1.067677e+002
8.619916e+002, 1.025184e+002
8.624738e+002, 1.001914e+002
8.629559e+002, 1.019705e+002
8.634380e+002, 1.047155e+002
8.639201e+002, 1.074257e+002
8.644022e+002, 1.093024e+002
8.648843e+002, 1.087365e+002
8.653665e+002, 1.064026e+002
8.658486e+002, 1.046742e+002
8.663307e+002, 1.045366e+002
8.668128e+002, 1.046688e+002
8.672949e+002, 1.032311e+002
8.677770e+002, 1.006938e+002
8.682592e+002, 9.880607e+001
8.687413e+002, 9.756002e+001
8.692234e+002, 9.852424e+001
8.697055e+002, 1.027208e+002
8.701876e+002, 1.067090e+002
8.706697e+002, 1.070343e+002
8.711519e+002, 1.044455e+002
8.716340e+002, 1.031990e+002
8.721161e+002, 1.044971e+002
8.725981e+002, 1.048258e+002
8.730803e+002, 1.023937e+002
8.735624e+002, 1.007531e+002
8.740445e+002, 1.020721e+002
8.745266e+002, 1.047696e+002
8.750087e+002, 1.066913e+002
8.754908e+002, 1.075492e+002
8.759730e+002, 1.078159e+002
8.764551e+002, 1.061745e+002
8.769372e+002, 1.055915e+002
8.774193e+002, 1.091688e+002
8.779014e+002, 1.142182e+002
8.783835e+002, 1.179016e+002
8.788657e+002, 1.193702e+002
8.793478e+002, 1.177338e+002
8.798299e+002, 1.118974e+002
8.803120e+002, 1.049530e+002
8.807941e+002, 1.010227e+002
8.812762e+002, 9.950840e+001
8.817584e+002, 9.833546e+001
8.822405e+002, 9.743283e+001
8.827226e+002, 9.858756e+001
8.832047e+002, 1.028212e+002
8.836868e+002, 1.076659e+002
8.841689e+002, 1.096604e+002
8.846511e+002, 1.089061e+002
8.851332e+002, 1.086480e+002
8.856153e+002, 1.095133e+002
8.860974e+002, 1.089925e+002
8.865795e+002, 1.051602e+002
8.870616e+002, 1.016681e+002
8.875438e+002, 1.021077e+002
8.880259e+002, 1.050207e+002
8.885080e+002, 1.058600e+002
8.889901e+002, 1.032849e+002
8.894722e+002, 1.016088e+002
8.899543e+002, 1.023796e+002
8.904365e+002, 1.031680e+002
8.909186e+002, 1.024921e+002
8.914007e+002, 1.011625e+002
8.918828e+002, 1.001240e+002
8.923649e+002, 9.963338e+001
8.928470e+002, 9.999398e+001
8.933292e+002, 1.023646e+002
8.938113e+002, 1.044107e+002
8.942934e+002, 1.027627e+002
8.947755e+002, 9.971121e+001
8.952576e+002, 9.947698e+001
8.957397e+002, 1.021279e+002
8.962219e+002, 1.052841e+002
8.967040e+002, 1.077129e+002
8.971861e+002, 1.094578e+002
8.976682e+002, 1.111736e+002
8.981503e+002, 1.124865e+002
8.986324e+002, 1.092804e+002
8.991146e+002, 1.010936e+002
8.995967e+002, 9.564462e+001
9.000788e+002, 9.564777e+001
9.005609e+002, 9.782584e+001
9.010430e+002, 9.930568e+001
9.015251e+002, 1.000903e+002
9.020073e+002, 1.000750e+002
9.024894e+002, 9.805013e+001
9.029715e+002, 9.775465e+001
9.034536e+002, 1.019731e+002
9.039357e+002, 1.048922e+002
9.044178e+002, 1.023436e+002
9.049000e+002, 9.780651e+001
9.053821e+002, 9.611050e+001
9.058642e+002, 9.774952e+001
9.063463e+002, 9.985577e+001
9.068284e+002, 1.028911e+002
9.073105e+002, 1.048626e+002
9.077927e+002, 1.034736e+002
9.082748e+002, 1.015304e+002
9.087569e+002, 1.026285e+002
9.092390e+002, 1.059652e+002
9.097211e+002, 1.079587e+002
9.102032e+002, 1.069669e+002
9.106854e+002, 1.045508e+002
9.111675e+002, 1.011670e+002
9.116496e+002, 9.782574e+001
9.121317e+002, 9.577491e+001
9.126138e+002, 9.528214e+001
9.130959e+002, 9.805281e+001
9.135781e+002, 1.041837e+002
9.140602e+002, 1.083375e+002
9.145423e+002, 1.047788e+002
9.150244e+002, 9.674355e+001
9.155065e+002, 9.439291e+001
9.159886e+002, 9.777672e+001
9.164708e+002, 1.006820e+002
9.169529e+002, 1.025444e+002
9.174350e+002, 1.027135e+002
9.179171e+002, 1.002638e+002
9.183992e+002, 9.696172e+001
9.188813e+002, 9.600817e+001
9.193635e+002, 9.777080e+001
9.198456e+002, 9.899352e+001
9.203277e+002, 9.897070e+001
9.208098e+002, 9.957422e+001
9.212919e+002, 1.026675e+002
9.217740e+002, 1.051886e+002
9.222562e+002, 1.038509e+002
9.227383e+002, 1.002349e+002
9.232204e+002, 9.936467e+001
9.237025e+002, 1.034054e+002
9.241846e+002, 1.060817e+002
9.246667e+002, 1.048667e+002
9.251489e+002, 1.028824e+002
9.256310e+002, 1.012755e+002
9.261131e+002, 1.004638e+002
9.265952e+002, 1.014111e+002
9.270773e+002, 1.038379e+002
9.275594e+002, 1.053342e+002
9.280416e+002, 1.040430e+002
9.285237e+002, 1.021714e+002
9.290058e+002, 1.015019e+002
9.294879e+002, 1.016869e+002
9.299700e+002, 1.028288e+002
9.304521e+002, 1.043331e+002
9.309343e+002, 1.039569e+002
9.314164e+002, 1.008410e+002
9.318985e+002, 9.769240e+001
9.323806e+002, 9.787450e+001
9.328627e+002, 1.004771e+002
9.333448e+002, 1.031083e+002
9.338270e+002, 1.056233e+002
9.343091e+002, 1.059274e+002
9.347912e+002, 1.034301e+002
9.352733e+002, 1.012075e+002
9.357554e+002, 1.015425e+002
9.362375e+002, 1.033608e+002
9.367197e+002, 1.039544e+002
9.372018e+002, 1.029307e+002
9.376839e+002, 1.030105e+002
9.381660e+002, 1.046099e+002
9.386481e+002, 1.063890e+002
9.391302e+002, 1.088629e+002
9.396124e+002, 1.101220e+002
9.400945e+002, 1.070443e+002
9.405766e+002, 1.004073e+002
9.410587e+002, 9.757439e+001
9.415408e+002, 1.016230e+002
9.420229e+002, 1.045947e+002
9.425051e+002, 1.058195e+002
9.429872e+002, 1.062244e+002
9.434693e+002, 1.057852e+002
9.439514e+002, 1.050496e+002
9.444335e+002, 1.045163e+002
9.449156e+002, 1.042882e+002
9.453978e+002, 1.049200e+002
9.458799e+002, 1.076151e+002
9.463620e+002, 1.099783e+002
9.468441e+002, 1.102156e+002
9.473262e+002, 1.099371e+002
9.478083e+002, 1.115243e+002
9.482905e+002, 1.139708e+002
9.487726e+002, 1.137882e+002
9.492547e+002, 1.096534e+002
9.497368e+002, 1.060614e+002
9.502189e+002, 1.081611e+002
9.507010e+002, 1.119222e+002
9.511832e+002, 1.113908e+002
9.516653e+002, 1.081941e+002
9.521474e+002, 1.063867e+002
9.526295e+002, 1.066852e+002
9.531116e+002, 1.076893e+002
9.535938e+002, 1.084972e+002
9.540759e+002, 1.095707e+002
9.545580e+002, 1.121819e+002
9.550400e+002, 1.158356e+002
9.555222e+002, 1.178103e+002
9.560043e+002, 1.180395e+002
9.564864e+002, 1.173949e+002
9.569685e+002, 1.160303e+002
9.574506e+002, 1.152561e+002
9.579327e+002, 1.166677e+002
9.584149e+002, 1.193412e+002
9.588970e+002, 1.186412e+002
9.593791e+002, 1.131320e+002
9.598612e+002, 1.119606e+002
9.603433e+002, 1.175793e+002
9.608254e+002, 1.226997e+002
9.613076e+002, 1.240240e+002
9.617897e+002, 1.230371e+002
9.622718e+002, 1.213688e+002
9.627539e+002, 1.189906e+002
9.632360e+002, 1.175560e+002
9.637181e+002, 1.176847e+002
9.642003e+002, 1.178133e+002
9.646824e+002, 1.169154e+002
9.651645e+002, 1.169087e+002
9.656466e+002, 1.200088e+002
9.661287e+002, 1.242083e+002
9.666108e+002, 1.257849e+002
9.670930e+002, 1.241128e+002
9.675751e+002, 1.231048e+002
9.680572e+002, 1.240102e+002
9.685393e+002, 1.251866e+002
9.690214e+002, 1.256537e+002
9.695035e+002, 1.263779e+002
9.699857e+002, 1.293250e+002
9.704678e+002, 1.331539e+002
9.709499e+002, 1.340538e+002
9.714320e+002, 1.304808e+002
9.719141e+002, 1.267374e+002
9.723962e+002, 1.242514e+002
9.728784e+002, 1.237228e+002
9.733605e+002, 1.272994e+002
9.738426e+002, 1.325178e+002
9.743247e+002, 1.354715e+002
9.748068e+002, 1.359118e+002
9.752889e+002, 1.360237e+002
9.757711e+002, 1.369467e+002
9.762532e+002, 1.382442e+002
9.767353e+002, 1.398834e+002
9.772174e+002, 1.413268e+002
9.776995e+002, 1.405739e+002
9.781816e+002, 1.387050e+002
9.786638e+002, 1.403818e+002
9.791459e+002, 1.464354e+002
9.796280e+002, 1.517392e+002
9.801101e+002, 1.518795e+002
9.805922e+002, 1.495859e+002
9.810743e+002, 1.507194e+002
9.815565e+002, 1.546282e+002
9.820386e+002, 1.571436e+002
9.825207e+002, 1.580083e+002
9.830028e+002, 1.594783e+002
9.834849e+002, 1.624823e+002
9.839670e+002, 1.657980e+002
9.844492e+002, 1.681619e+002
9.849313e+002, 1.696228e+002
9.854134e+002, 1.699502e+002
9.858955e+002, 1.686809e+002
9.863776e+002, 1.701921e+002
9.868597e+002, 1.757372e+002
9.873419e+002, 1.809632e+002
9.878240e+002, 1.836481e+002
9.883061e+002, 1.851398e+002
9.887882e+002, 1.872358e+002
9.892703e+002, 1.899270e+002
9.897524e+002, 1.933229e+002
9.902346e+002, 1.991385e+002
9.907167e+002, 2.016649e+002
9.911988e+002, 1.976192e+002
9.916809e+002, 1.938150e+002
9.921630e+002, 1.939803e+002
9.926451e+002, 1.968684e+002
9.931273e+002, 2.012594e+002
9.936094e+002, 2.079747e+002
9.940915e+002, 2.101342e+002
9.945736e+002, 2.017101e+002
9.950557e+002, 1.970110e+002
9.955378e+002, 2.013837e+002
9.960200e+002, 2.077094e+002
9.965021e+002, 2.119458e+002
9.969842e+002, 2.144493e+002
9.974663e+002, 2.163412e+002
9.979484e+002, 2.177834e+002
9.984305e+002, 2.184268e+002
9.989127e+002, 2.168667e+002
9.993948e+002, 2.161255e+002
9.998769e+002, 2.179016e+002
1.000359e+003, 2.207543e+002
1.000841e+003, 2.242623e+002
1.001323e+003, 2.275101e+002
1.001805e+003, 2.282632e+002
1.002287e+003, 2.254789e+002
1.002770e+003, 2.233131e+002
1.003252e+003, 2.242003e+002
1.003734e+003, 2.261419e+002
1.004216e+003, 2.280567e+002
1.004698e+003, 2.299136e+002
1.005180e+003, 2.327047e+002
1.005662e+003, 2.355489e+002
1.006144e+003, 2.347802e+002
1.006627e+003, 2.281531e+002
1.007109e+003, 2.226863e+002
1.007591e+003, 2.262918e+002
1.008073e+003, 2.324366e+002
1.008555e+003, 2.331115e+002
1.009037e+003, 2.305264e+002
1.009519e+003, 2.296707e+002
1.010001e+003, 2.310797e+002
1.010483e+003, 2.320135e+002
1.010966e+003, 2.308590e+002
1.011448e+003, 2.289817e+002
1.011930e+003, 2.278002e+002
1.012412e+003, 2.271422e+002
1.012894e+003, 2.270508e+002
1.013376e+003, 2.271589e+002
1.013858e+003, 2.263840e+002
1.014340e+003, 2.244728e+002
1.014823e+003, 2.216154e+002
1.015305e+003, 2.178199e+002
1.015787e+003, 2.138423e+002
1.016269e+003, 2.112380e+002
1.016751e+003, 2.094953e+002
1.017233e+003, 2.064650e+002
1.017715e+003, 2.022939e+002
1.018197e+003, 1.988860e+002
1.018679e+003, 1.967515e+002
1.019162e+003, 1.942513e+002
1.019644e+003, 1.899804e+002
1.020126e+003, 1.846806e+002
1.020608e+003, 1.796746e+002
1.021090e+003, 1.750435e+002
1.021572e+003, 1.716588e+002
1.022054e+003, 1.695572e+002
1.022536e+003, 1.689610e+002
1.023018e+003, 1.701685e+002
1.023501e+003, 1.708474e+002
1.023983e+003, 1.687297e+002
1.024465e+003, 1.648159e+002
1.024947e+003, 1.624697e+002
1.025429e+003, 1.619416e+002
1.025911e+003, 1.599948e+002
1.026393e+003, 1.563114e+002
1.026875e+003, 1.518635e+002
1.027358e+003, 1.462313e+002
1.027840e+003, 1.425252e+002
1.028322e+003, 1.444218e+002
1.028804e+003, 1.502010e+002
1.029286e+003, 1.527558e+002
1.029768e+003, 1.515982e+002
1.030250e+003, 1.489855e+002
1.030732e+003, 1.440652e+002
1.031214e+003, 1.401900e+002
1.031697e+003, 1.386435e+002
1.032179e+003, 1.384533e+002
1.032661e+003, 1.389226e+002
1.033143e+003, 1.398522e+002
1.033625e+003, 1.402653e+002
1.034107e+003, 1.403233e+002
1.034589e+003, 1.392611e+002
1.035071e+003, 1.352323e+002
1.035553e+003, 1.335714e+002
1.036036e+003, 1.380420e+002
1.036518e+003, 1.435053e+002
1.037000e+003, 1.444258e+002
1.037482e+003, 1.416830e+002
1.037964e+003, 1.404319e+002
1.038446e+003, 1.415263e+002
1.038928e+003, 1.424769e+002
1.039410e+003, 1.442643e+002
1.039893e+003, 1.445618e+002
1.040375e+003, 1.407808e+002
1.040857e+003, 1.365990e+002
1.041339e+003, 1.358280e+002
1.041821e+003, 1.378952e+002
1.042303e+003, 1.397462e+002
1.042785e+003, 1.414470e+002
1.043267e+003, 1.427078e+002
1.043750e+003, 1.433278e+002
1.044232e+003, 1.437409e+002
1.044714e+003, 1.446646e+002
1.045196e+003, 1.450083e+002
1.045678e+003, 1.426557e+002
1.046160e+003, 1.385876e+002
1.046642e+003, 1.375438e+002
1.047124e+003, 1.421659e+002
1.047606e+003, 1.448171e+002
1.048089e+003, 1.424330e+002
1.048571e+003, 1.404450e+002
1.049053e+003, 1.415371e+002
1.049535e+003, 1.436488e+002
1.050017e+003, 1.448493e+002
1.050499e+003, 1.451946e+002
1.050981e+003, 1.455307e+002
1.051463e+003, 1.461277e+002
1.051945e+003, 1.463427e+002
1.052428e+003, 1.457534e+002
1.052910e+003, 1.451041e+002
1.053392e+003, 1.455017e+002
1.053874e+003, 1.454018e+002
1.054356e+003, 1.421385e+002
1.054838e+003, 1.369929e+002
1.055320e+003, 1.348657e+002
1.055802e+003, 1.378625e+002
1.056285e+003, 1.399708e+002
1.056767e+003, 1.389531e+002
1.057249e+003, 1.373018e+002
1.057731e+003, 1.352991e+002
1.058213e+003, 1.339798e+002
1.058695e+003, 1.350426e+002
1.059177e+003, 1.375695e+002
1.059659e+003, 1.386290e+002
1.060141e+003, 1.372435e+002
1.060624e+003, 1.358304e+002
1.061106e+003, 1.351360e+002
1.061588e+003, 1.347289e+002
1.062070e+003, 1.343409e+002
1.062552e+003, 1.341663e+002
1.063034e+003, 1.347599e+002
1.063516e+003, 1.356861e+002
1.063998e+003, 1.355943e+002
1.064480e+003, 1.339428e+002
1.064963e+003, 1.330422e+002
1.065445e+003, 1.347889e+002
1.065927e+003, 1.363160e+002
1.066409e+003, 1.366168e+002
1.066891e+003, 1.355759e+002
1.067373e+003, 1.320408e+002
1.067855e+003, 1.273728e+002
1.068337e+003, 1.244519e+002
1.068820e+003, 1.239912e+002
1.069302e+003, 1.247959e+002
1.069784e+003, 1.274788e+002
1.070266e+003, 1.299073e+002
1.070748e+003, 1.309315e+002
1.071230e+003, 1.312286e+002
1.071712e+003, 1.311816e+002
1.072194e+003, 1.310205e+002
1.072677e+003, 1.311911e+002
1.073159e+003, 1.317693e+002
1.073641e+003, 1.318192e+002
1.074123e+003, 1.303215e+002
1.074605e+003, 1.289774e+002
1.075087e+003, 1.287743e+002
1.075569e+003, 1.289872e+002
1.076051e+003, 1.293946e+002
1.076533e+003, 1.295660e+002
1.077016e+003, 1.284142e+002
1.077498e+003, 1.259538e+002
1.077980e+003, 1.246937e+002
1.078462e+003, 1.266937e+002
1.078944e+003, 1.286576e+002
1.079426e+003, 1.291068e+002
1.079908e+003, 1.287744e+002
1.080390e+003, 1.276124e+002
1.080872e+003, 1.264117e+002
1.081354e+003, 1.263659e+002
1.081837e+003, 1.275514e+002
1.082319e+003, 1.290241e+002
1.082801e+003, 1.308714e+002
1.083283e+003, 1.320815e+002
1.083765e+003, 1.321452e+002
1.084247e+003, 1.314326e+002
1.084729e+003, 1.291852e+002
1.085211e+003, 1.269594e+002
1.085694e+003, 1.274422e+002
1.086176e+003, 1.301611e+002
1.086658e+003, 1.314378e+002
1.087140e+003, 1.297363e+002
1.087622e+003, 1.274089e+002
1.088104e+003, 1.239239e+002
1.088586e+003, 1.218126e+002
1.089068e+003, 1.236092e+002
1.089551e+003, 1.270152e+002
1.090033e+003, 1.301710e+002
1.090515e+003, 1.323800e+002
1.090997e+003, 1.321313e+002
1.091479e+003, 1.282506e+002
1.091961e+003, 1.254696e+002
1.092443e+003, 1.265844e+002
1.092925e+003, 1.280116e+002
1.093407e+003, 1.275506e+002
1.093890e+003, 1.267976e+002
1.094372e+003, 1.276430e+002
1.094854e+003, 1.294910e+002
1.095336e+003, 1.306358e+002
1.095818e+003, 1.307167e+002
1.096300e+003, 1.301991e+002
1.096782e+003, 1.283335e+002
1.097264e+003, 1.270819e+002
1.097746e+003, 1.272323e+002
1.098229e+003, 1.282722e+002
1.098711e+003, 1.308503e+002
1.099193e+003, 1.335765e+002
1.099675e+003, 1.334985e+002
1.100157e+003, 1.302160e+002
1.100639e+003, 1.284828e+002
1.101121e+003, 1.320075e+002
1.101603e+003, 1.336028e+002
1.102086e+003, 1.288278e+002
1.102568e+003, 1.242287e+002
1.103050e+003, 1.250647e+002
1.103532e+003, 1.279068e+002
1.104014e+003, 1.270719e+002
1.104496e+003, 1.227065e+002
1.104978e+003, 1.209737e+002
1.105460e+003, 1.246722e+002
1.105943e+003, 1.280686e+002
1.106425e+003, 1.310373e+002
1.106907e+003, 1.326149e+002
1.107389e+003, 1.309454e+002
1.107871e+003, 1.287498e+002
1.108353e+003, 1.295011e+002
1.108835e+003, 1.324197e+002
1.109317e+003, 1.334324e+002
1.109799e+003, 1.318257e+002
1.110281e+003, 1.293367e+002
1.110764e+003, 1.233865e+002
1.111246e+003, 1.201653e+002
1.111728e+003, 1.237067e+002
1.112210e+003, 1.285330e+002
1.112692e+003, 1.302955e+002
1.113174e+003, 1.300490e+002
1.113656e+003, 1.304583e+002
1.114138e+003, 1.314286e+002
1.114621e+003, 1.335649e+002
1.115103e+003, 1.400921e+002
1.115585e+003, 1.423408e+002
1.116067e+003, 1.352499e+002
1.116549e+003, 1.284824e+002
1.117031e+003, 1.281847e+002
1.117513e+003, 1.311599e+002
1.117995e+003, 1.322168e+002
1.118478e+003, 1.313154e+002
1.118960e+003, 1.318631e+002
1.119442e+003, 1.355196e+002
1.119924e+003, 1.364468e+002
1.120406e+003, 1.323959e+002
1.120888e+003, 1.292394e+002
1.121370e+003, 1.298677e+002
1.121852e+003, 1.320095e+002
1.122334e+003, 1.334098e+002
1.122817e+003, 1.339515e+002
1.123299e+003, 1.325671e+002
1.123781e+003, 1.280217e+002
1.124263e+003, 1.270496e+002
1.124745e+003, 1.309914e+002
1.125227e+003, 1.342722e+002
1.125709e+003, 1.352554e+002
1.126191e+003, 1.347995e+002
1.126673e+003, 1.333136e+002
1.127156e+003, 1.314181e+002
1.127638e+003, 1.307265e+002
1.128120e+003, 1.312946e+002
1.128602e+003, 1.314874e+002
1.129084e+003, 1.313194e+002
1.129566e+003, 1.302435e+002
1.130048e+003, 1.279169e+002
1.130530e+003, 1.271473e+002
1.131013e+003, 1.298524e+002
1.131495e+003, 1.333770e+002
1.131977e+003, 1.336077e+002
1.132459e+003, 1.313348e+002
1.132941e+003, 1.303681e+002
1.133423e+003, 1.306359e+002
1.133905e+003, 1.316654e+002
1.134387e+003, 1.332911e+002
1.134870e+003, 1.331803e+002
1.135352e+003, 1.304132e+002
1.135834e+003, 1.270711e+002
1.136316e+003, 1.249354e+002
1.136798e+003, 1.241368e+002
1.137280e+003, 1.256227e+002
1.137762e+003, 1.285952e+002
1.138244e+003, 1.302556e+002
1.138726e+003, 1.306354e+002
1.139208e+003, 1.305429e+002
1.139691e+003, 1.302523e+002
1.140173e+003, 1.300911e+002
1.140655e+003, 1.303021e+002
1.141137e+003, 1.303603e+002
1.141619e+003, 1.298202e+002
1.142101e+003, 1.285353e+002
1.142583e+003, 1.247200e+002
1.143065e+003, 1.205014e+002
1.143548e+003, 1.220084e+002
1.144030e+003, 1.280337e+002
1.144512e+003, 1.309206e+002
1.144994e+003, 1.278632e+002
1.145476e+003, 1.244431e+002
1.145958e+003, 1.255323e+002
1.146440e+003, 1.278065e+002
1.146922e+003, 1.284757e+002
1.147405e+003, 1.279191e+002
1.147887e+003, 1.258911e+002
1.148369e+003, 1.232965e+002
1.148851e+003, 1.217519e+002
1.149333e+003, 1.215252e+002
1.149815e+003, 1.218510e+002
1.150297e+003, 1.223857e+002
1.150779e+003, 1.233675e+002
1.151261e+003, 1.259128e+002
1.151744e+003, 1.278858e+002
1.152226e+003, 1.277059e+002
1.152708e+003, 1.260617e+002
1.153190e+003, 1.229660e+002
1.153672e+003, 1.193420e+002
1.154154e+003, 1.173320e+002
1.154636e+003, 1.173918e+002
1.155118e+003, 1.191482e+002
1.155600e+003, 1.260298e+002
1.156083e+003, 1.297451e+002
1.156565e+003, 1.243167e+002
1.157047e+003, 1.179368e+002
1.157529e+003, 1.165151e+002
1.158011e+003, 1.178752e+002
1.158493e+003, 1.182506e+002
1.158975e+003, 1.174546e+002
1.159457e+003, 1.170667e+002
1.159940e+003, 1.169563e+002
1.160422e+003, 1.176535e+002
1.160904e+003, 1.202329e+002
1.161386e+003, 1.220705e+002
1.161868e+003, 1.219377e+002
1.162350e+003, 1.210706e+002
1.162832e+003, 1.202308e+002
1.163314e+003, 1.197087e+002
1.163796e+003, 1.206808e+002
1.164279e+003, 1.238091e+002
1.164761e+003, 1.243958e+002
1.165243e+003, 1.212862e+002
1.165725e+003, 1.197525e+002
1.166207e+003, 1.210591e+002
1.166689e+003, 1.234329e+002
1.167171e+003, 1.263450e+002
1.167653e+003, 1.282058e+002
1.168135e+003, 1.261975e+002
1.168618e+003, 1.214580e+002
1.169100e+003, 1.212867e+002
1.169582e+003, 1.255780e+002
1.170064e+003, 1.253619e+002
1.170546e+003, 1.200215e+002
1.171028e+003, 1.176864e+002
1.171510e+003, 1.210586e+002
1.171992e+003, 1.242742e+002
1.172474e+003, 1.225286e+002
1.172957e+003, 1.183099e+002
1.173439e+003, 1.155096e+002
1.173921e+003, 1.138630e+002
1.174403e+003, 1.121745e+002
1.174885e+003, 1.109639e+002
1.175367e+003, 1.129693e+002
1.175849e+003, 1.176589e+002
1.176331e+003, 1.202975e+002
1.176814e+003, 1.188941e+002
1.177296e+003, 1.165698e+002
1.177778e+003, 1.155834e+002
1.178260e+003, 1.157738e+002
1.178742e+003, 1.181166e+002
1.179224e+003, 1.206573e+002
1.179706e+003, 1.205349e+002
1.180188e+003, 1.185413e+002
1.180671e+003, 1.162379e+002
1.181153e+003, 1.142154e+002
1.181635e+003, 1.131693e+002
1.182117e+003, 1.134929e+002
1.182599e+003, 1.145174e+002
1.183081e+003, 1.167157e+002
1.183563e+003, 1.185168e+002
1.184045e+003, 1.183556e+002
1.184527e+003, 1.178198e+002
1.185010e+003, 1.186084e+002
1.185492e+003, 1.202826e+002
1.185974e+003, 1.218416e+002
1.186456e+003, 1.232199e+002
1.186938e+003, 1.230595e+002
1.187420e+003, 1.187335e+002
1.187902e+003, 1.165227e+002
1.188384e+003, 1.195314e+002
1.188866e+003, 1.222618e+002
1.189349e+003, 1.228873e+002
1.189831e+003, 1.215322e+002
1.190313e+003, 1.170248e+002
1.190795e+003, 1.108769e+002
1.191277e+003, 1.094369e+002
1.191759e+003, 1.142614e+002
1.192241e+003, 1.168336e+002
1.192723e+003, 1.165189e+002
1.193206e+003, 1.162909e+002
1.193688e+003, 1.170469e+002
1.194170e+003, 1.165481e+002
1.194652e+003, 1.130427e+002
1.195134e+003, 1.093441e+002
1.195616e+003, 1.097926e+002
1.196098e+003, 1.130759e+002
1.196580e+003, 1.129699e+002
1.197063e+003, 1.100282e+002
1.197545e+003, 1.104788e+002
1.198027e+003, 1.143356e+002
1.198509e+003, 1.172398e+002
1.198991e+003, 1.179131e+002
1.199473e+003, 1.171615e+002
1.199955e+003, 1.154065e+002
1.200437e+003, 1.135928e+002
1.200919e+003, 1.127618e+002
1.201401e+003, 1.128291e+002
1.201884e+003, 1.142151e+002
1.202366e+003, 1.160933e+002
1.202848e+003, 1.172735e+002
1.203330e+003, 1.173721e+002
1.203812e+003, 1.153422e+002
1.204294e+003, 1.112087e+002
1.204776e+003, 1.083201e+002
1.205258e+003, 1.097106e+002
1.205741e+003, 1.107389e+002
1.206223e+003, 1.074462e+002
1.206705e+003, 1.037199e+002
1.207187e+003, 1.021979e+002
1.207669e+003, 1.022489e+002
1.208151e+003, 1.030347e+002
1.208633e+003, 1.044788e+002
1.209115e+003, 1.072213e+002
1.209598e+003, 1.120757e+002
1.210080e+003, 1.140618e+002
1.210562e+003, 1.093605e+002
1.211044e+003, 1.063074e+002
1.211526e+003, 1.085466e+002
1.212008e+003, 1.102317e+002
1.212490e+003, 1.077397e+002
1.212972e+003, 1.043826e+002
1.213454e+003, 1.045060e+002
1.213937e+003, 1.070462e+002
1.214419e+003, 1.064048e+002
1.214901e+003, 1.012905e+002
1.215383e+003, 1.000419e+002
1.215865e+003, 1.035814e+002
1.216347e+003, 1.052152e+002
1.216829e+003, 1.031790e+002
1.217311e+003, 1.015068e+002
1.217793e+003, 1.026173e+002
1.218276e+003, 1.047424e+002
1.218758e+003, 1.057189e+002
1.219240e+003, 1.056228e+002
1.219722e+003, 1.040986e+002
1.220204e+003, 1.017632e+002
1.220686e+003, 1.008718e+002
1.221168e+003, 1.013421e+002
1.221650e+003, 1.021646e+002
1.222133e+003, 1.030691e+002
1.222615e+003, 1.044246e+002
1.223097e+003, 1.065757e+002
1.223579e+003, 1.079501e+002
1.224061e+003, 1.062261e+002
1.224543e+003, 1.039969e+002
1.225025e+003, 1.033596e+002
1.225507e+003, 1.040259e+002
1.225990e+003, 1.065278e+002
1.226472e+003, 1.096178e+002
1.226954e+003, 1.110305e+002
1.227436e+003, 1.104919e+002
1.227918e+003, 1.096088e+002
1.228400e+003, 1.087400e+002
1.228882e+003, 1.077815e+002
1.229364e+003, 1.067280e+002
1.229846e+003, 1.055541e+002
1.230328e+003, 1.032667e+002
1.230811e+003, 1.019003e+002
1.231293e+003, 1.040871e+002
1.231775e+003, 1.074599e+002
1.232257e+003, 1.072748e+002
1.232739e+003, 1.035676e+002
1.233221e+003, 1.017138e+002
1.233703e+003, 1.021209e+002
1.234185e+003, 1.025570e+002
1.234668e+003, 1.028201e+002
1.235150e+003, 1.034316e+002
1.235632e+003, 1.046492e+002
1.236114e+003, 1.054451e+002
1.236596e+003, 1.049231e+002
1.237078e+003, 1.040102e+002
1.237560e+003, 1.049762e+002
1.238042e+003, 1.066235e+002
1.238525e+003, 1.039696e+002
1.239007e+003, 9.875086e+001
1.239489e+003, 9.650053e+001
1.239971e+003, 9.726468e+001
1.240453e+003, 9.901295e+001
1.240935e+003, 1.008108e+002
1.241417e+003, 1.010512e+002
1.241899e+003, 9.808266e+001
1.242381e+003, 9.559328e+001
1.242864e+003, 9.697616e+001
1.243346e+003, 9.954500e+001
1.243828e+003, 1.020923e+002
1.244310e+003, 1.037387e+002
1.244792e+003, 1.024228e+002
1.245274e+003, 9.991749e+001
1.245756e+003, 1.007237e+002
1.246238e+003, 1.054442e+002
1.246720e+003, 1.080415e+002
1.247203e+003, 1.056787e+002
1.247685e+003, 1.042398e+002
1.248167e+003, 1.050013e+002
1.248649e+003, 1.054494e+002
1.249131e+003, 1.049430e+002
1.249613e+003, 1.036163e+002
1.250095e+003, 1.011523e+002
1.250577e+003, 9.851275e+001
1.251059e+003, 9.758432e+001
1.251542e+003, 9.827634e+001
1.252024e+003, 9.973116e+001
1.252506e+003, 1.019446e+002
1.252988e+003, 1.034678e+002
1.253470e+003, 1.042083e+002
1.253952e+003, 1.055157e+002
1.254434e+003, 1.076407e+002
1.254916e+003, 1.074698e+002
1.255399e+003, 1.024675e+002
1.255881e+003, 9.734608e+001
1.256363e+003, 9.832049e+001
1.256845e+003, 1.025491e+002
1.257327e+003, 1.080891e+002
1.257809e+003, 1.126094e+002
1.258291e+003, 1.111903e+002
1.258773e+003, 1.063606e+002
1.259255e+003, 1.050269e+002
1.259738e+003, 1.077207e+002
1.260220e+003, 1.073739e+002
1.260702e+003, 9.944199e+001
1.261184e+003, 9.399032e+001
1.261666e+003, 9.537912e+001
1.262148e+003, 9.830190e+001
1.262630e+003, 1.017314e+002
1.263112e+003, 1.048691e+002
1.263594e+003, 1.079741e+002
1.264077e+003, 1.098134e+002
1.264559e+003, 1.077937e+002
1.265041e+003, 1.026442e+002
1.265523e+003, 1.009017e+002
1.266005e+003, 1.033628e+002
1.266487e+003, 1.045121e+002
1.266969e+003, 1.040667e+002
1.267451e+003, 1.035377e+002
1.267934e+003, 1.032844e+002
1.268416e+003, 1.026712e+002
1.268898e+003, 1.012825e+002
1.269380e+003, 1.004874e+002
1.269862e+003, 1.025176e+002
1.270344e+003, 1.051367e+002
1.270826e+003, 1.030506e+002
1.271308e+003, 9.931587e+001
1.271791e+003, 1.004513e+002
1.272273e+003, 1.043651e+002
1.272755e+003, 1.057721e+002
1.273237e+003, 1.044595e+002
1.273719e+003, 1.038566e+002
1.274201e+003, 1.052440e+002
1.274683e+003, 1.053286e+002
1.275165e+003, 1.006730e+002
1.275647e+003, 9.725314e+001
1.276130e+003, 9.779330e+001
1.276612e+003, 9.962344e+001
1.277094e+003, 1.026831e+002
1.277576e+003, 1.049247e+002
1.278058e+003, 1.033596e+002
1.278540e+003, 9.974644e+001
1.279022e+003, 9.918681e+001
1.279504e+003, 1.020074e+002
1.279986e+003, 1.032720e+002
1.280469e+003, 1.028597e+002
1.280951e+003, 1.013262e+002
1.281433e+003, 9.860223e+001
1.281915e+003, 9.712178e+001
1.282397e+003, 9.775988e+001
1.282879e+003, 9.928466e+001
1.283361e+003, 1.008209e+002
1.283843e+003, 1.021030e+002
1.284326e+003, 1.028147e+002
1.284808e+003, 1.029468e+002
##END=



