##NAMES=Parasymplesite
##RRUFFID=R150137
##IDEAL CHEMISTRY=Fe^2+^_3_(As^5+^O_4_)_2_&#183;8H_2_O
##LOCALITY=Kiura Mine, Oita Pref., Kyushu Island, Japan
##OWNER=RRUFF
##SOURCE=Jeremie Pfister
##DESCRIPTION=Aggregates of dark-bluish grey euhedral crystals, associated with smoky scorodite.
##STATUS=The identification of this mineral has been confirmed by single-crystal X-ray diffraction.
##URL=rruff.info/R150137
160.4542, 0.0000000E+00
160.9364, 2.3119999E-03
161.4185, 0.2526320
161.9006, 0.6762390
162.3827, 1.021576
162.8648, 1.240929
163.3469, 1.369789
163.8291, 1.555733
164.3112, 1.839348
164.7933, 2.311546
165.2754, 1.846611
165.7575, 1.228180
166.2396, 0.7812120
166.7218, 0.8496780
167.2039, 0.9577030
167.6860, 0.7180180
168.1681, 0.1453630
168.6502, 0.2468260
169.1323, 9.5140003E-03
169.6145, 0.5851520
170.0966, 1.166107
170.5787, 1.826752
171.0608, 2.265823
171.5429, 2.047470
172.0250, 1.132568
172.5072, 0.4195710
172.9893, 0.2684940
173.4714, 0.5763170
173.9535, 0.8845900
174.4356, 0.9873810
174.9177, 0.9842910
175.3999, 0.9917830
175.8820, 1.015617
176.3641, 1.027779
176.8462, 0.9459840
177.3283, 0.8230590
177.8104, 0.7968370
178.2926, 1.050247
178.7747, 1.409271
179.2568, 1.560738
179.7389, 1.466011
180.2210, 1.307289
180.7031, 1.312187
181.1853, 1.435127
181.6674, 1.512123
182.1495, 1.506546
182.6316, 1.392876
183.1137, 1.002113
183.5958, 0.2355500
184.0780, 0.4459760
184.5601, 0.2624130
185.0422, 0.6564940
185.5243, 1.460609
186.0064, 1.582344
186.4885, 1.205544
186.9707, 0.9870610
187.4528, 0.9922260
187.9349, 1.086456
188.4170, 1.076385
188.8991, 0.9655460
189.3812, 0.8138580
189.8634, 0.6082690
190.3455, 0.3694460
190.8276, 0.2271420
191.3097, 0.1946260
191.7918, 0.2425770
192.2739, 0.3292160
192.7561, 0.4552310
193.2382, 0.6034620
193.7203, 0.8315890
194.2024, 1.119850
194.6845, 1.155678
195.1666, 0.8332600
195.6488, 0.3817670
196.1309, 0.2820890
196.6130, 0.5700840
197.0951, 0.9140170
197.5772, 1.186096
198.0593, 1.388313
198.5415, 1.335617
199.0236, 0.9072800
199.5057, 0.3494570
199.9878, 0.2935490
200.4699, 0.8326490
200.9520, 1.412560
201.4342, 1.697151
201.9163, 1.663696
202.3984, 1.622604
202.8805, 1.559151
203.3626, 1.529274
203.8447, 1.782585
204.3269, 2.462845
204.8090, 2.908615
205.2911, 2.550407
205.7732, 1.185516
206.2553, 0.4185560
206.7374, 0.5103760
207.2196, 1.152206
207.7017, 1.502045
208.1838, 1.491028
208.6659, 1.378334
209.1480, 1.314751
209.6301, 1.327332
210.1123, 1.251656
210.5944, 1.038719
211.0765, 0.7521670
211.5586, 0.5809560
212.0407, 0.5584410
212.5229, 0.5760270
213.0050, 0.5613860
213.4871, 0.4808430
213.9692, 0.4894790
214.4513, 0.5903020
214.9334, 0.7863240
215.4156, 1.151367
215.8977, 1.856537
216.3798, 2.391953
216.8619, 2.407959
217.3440, 1.669983
217.8261, 1.147888
218.3083, 0.9303510
218.7904, 0.9418790
219.2725, 0.9717560
219.7546, 1.008949
220.2367, 1.081261
220.7188, 1.233727
221.2010, 1.572426
221.6831, 1.694939
222.1652, 1.496521
222.6473, 1.101151
223.1294, 0.8756330
223.6115, 0.8383100
224.0937, 0.9399870
224.5758, 1.194160
225.0579, 1.729424
225.5400, 2.099594
226.0221, 2.276596
226.5042, 2.269226
226.9864, 2.146019
227.4685, 1.748657
227.9506, 1.453682
228.4327, 1.450417
228.9148, 1.865662
229.3969, 2.282364
229.8791, 2.711464
230.3612, 3.134010
230.8433, 3.516945
231.3254, 3.923141
231.8075, 4.198524
232.2896, 4.259895
232.7718, 4.015099
233.2539, 3.769753
233.7360, 3.487579
234.2181, 3.219978
234.7002, 3.093697
235.1823, 3.169151
235.6645, 3.295135
236.1466, 3.425018
236.6287, 3.587257
237.1108, 3.666916
237.5929, 3.616318
238.0750, 3.502220
238.5572, 3.470428
239.0393, 3.586014
239.5214, 3.682541
240.0035, 3.693794
240.4856, 3.584236
240.9677, 3.498840
241.4499, 3.428116
241.9320, 3.368645
242.4141, 3.402260
242.8962, 3.640419
243.3783, 3.776276
243.8604, 3.677238
244.3426, 3.246498
244.8247, 2.945786
245.3068, 2.809738
245.7889, 2.783203
246.2710, 2.762978
246.7531, 2.669601
247.2353, 2.723221
247.7174, 3.067497
248.1995, 3.829170
248.6816, 4.259377
249.1637, 4.181686
249.6458, 3.849335
250.1280, 3.591888
250.6101, 3.408875
251.0922, 3.296051
251.5743, 3.270851
252.0564, 3.348488
252.5385, 3.394028
253.0207, 3.416725
253.5028, 3.397926
253.9849, 3.284210
254.4670, 2.933548
254.9491, 2.793633
255.4312, 3.062241
255.9134, 3.783478
256.3955, 4.179558
256.8776, 4.137825
257.3597, 3.895721
257.8418, 3.701828
258.3239, 3.589043
258.8061, 3.434326
259.2882, 3.174721
259.7703, 2.812729
260.2524, 2.602753
260.7345, 2.553513
261.2166, 2.640091
261.6988, 2.888931
262.1809, 3.408943
262.6630, 3.757256
263.1451, 3.787743
263.6272, 3.550476
264.1093, 3.529587
264.5915, 3.835007
265.0736, 4.164162
265.5557, 4.275612
266.0378, 4.121826
266.5199, 3.915192
267.0020, 3.675552
267.4842, 3.405380
267.9663, 3.099442
268.4484, 2.698273
268.9305, 2.397057
269.4126, 2.368141
269.8947, 2.680710
270.3769, 2.962631
270.8590, 3.183403
271.3411, 3.348793
271.8232, 3.488968
272.3053, 3.630119
272.7874, 3.666862
273.2696, 3.443298
273.7517, 2.873215
274.2338, 2.660393
274.7159, 2.950539
275.1980, 3.516190
275.6801, 3.815826
276.1623, 3.805855
276.6444, 3.728790
277.1265, 3.715912
277.6086, 3.776688
278.0907, 3.765244
278.5728, 3.670403
279.0550, 3.515373
279.5371, 3.323044
280.0192, 3.086159
280.5013, 2.870193
280.9834, 2.675369
281.4655, 2.504387
281.9477, 2.515747
282.4298, 2.771599
282.9119, 3.044060
283.3940, 2.897064
283.8761, 2.314056
284.3582, 1.975754
284.8404, 2.329643
285.3225, 3.202148
285.8046, 3.478668
286.2867, 3.079315
286.7688, 2.449722
287.2509, 2.035233
287.7331, 1.831848
288.2152, 1.764038
288.6973, 1.866638
289.1794, 2.056549
289.6615, 2.063637
290.1436, 1.879509
290.6258, 1.677986
291.1079, 1.650841
291.5900, 1.762062
292.0721, 1.806442
292.5542, 1.712067
293.0363, 1.542702
293.5185, 1.437401
294.0006, 1.393982
294.4827, 1.337532
294.9648, 1.180527
295.4469, 0.9573060
295.9290, 0.7856980
296.4112, 0.7021790
296.8933, 0.6474530
297.3754, 0.4646450
297.8575, 0.1907730
298.3396, 5.5702001E-02
298.8217, 0.3263630
299.3039, 0.8271260
299.7860, 1.214722
300.2681, 1.444778
300.7502, 1.559677
301.2323, 1.604858
301.7144, 1.580559
302.1966, 1.457870
302.6787, 1.101814
303.1608, 0.6975860
303.6429, 0.5592350
304.1250, 0.7548450
304.6071, 0.9039760
305.0893, 0.4588470
305.5714, 0.2917630
306.0535, 0.7260130
306.5356, 0.2417680
307.0177, 0.4880140
307.4998, 0.7849430
307.9820, 0.6314320
308.4641, 0.4053800
308.9462, 0.3904650
309.4283, 0.4656220
309.9104, 0.4663540
310.3925, 0.2520520
310.8747, 8.2470002E-03
311.3568, 0.1788100
311.8389, 0.3005980
312.3210, 0.2961880
312.8031, 4.6089001E-02
313.2852, 0.3077390
313.7674, 0.6393890
314.2495, 0.9791260
314.7316, 1.201675
315.2137, 1.169113
315.6958, 0.9476620
316.1779, 0.7605740
316.6601, 0.6835710
317.1422, 0.6814880
317.6243, 0.7578960
318.1064, 1.000854
318.5885, 1.135178
319.0706, 0.9702610
319.5528, 0.6321330
320.0349, 0.3759540
320.5170, 0.2741390
320.9991, 0.2698820
321.4812, 0.3969730
321.9633, 0.7357710
322.4455, 0.9235920
322.9276, 0.7706380
323.4097, 0.4739990
323.8918, 0.2706910
324.3739, 0.2825470
324.8560, 0.3086320
325.3382, 0.2549210
325.8203, 8.4830999E-02
326.3024, 7.1831003E-02
326.7845, 0.5108260
327.2666, 0.9918590
327.7487, 1.188705
328.2309, 0.7588200
328.7130, 0.3905640
329.1951, 0.1357800
329.6772, 1.0178000E-02
330.1593, 9.4149997E-03
330.6414, 0.1956710
331.1236, 0.4210050
331.6057, 0.6153560
332.0878, 0.8177950
332.5699, 0.9119490
333.0520, 0.8683780
333.5341, 0.7282490
334.0163, 0.6034240
334.4984, 0.4370880
334.9805, 0.3378370
335.4626, 0.3936230
335.9448, 0.7022780
336.4269, 0.8043980
336.9090, 0.6011890
337.3911, 0.2906190
337.8732, 0.2096410
338.3553, 0.4263150
338.8375, 0.6387630
339.3196, 0.7551730
339.8017, 0.7794950
340.2838, 0.8100280
340.7659, 0.8411030
341.2480, 0.8419110
341.7302, 0.8117830
342.2123, 0.7476120
342.6944, 0.7244030
343.1765, 0.7948300
343.6586, 0.9004970
344.1407, 0.8034290
344.6229, 0.4869540
345.1050, 0.1813350
345.5871, 2.7603000E-02
346.0692, 9.1709998E-03
346.5513, 0.1518860
347.0334, 0.5103070
347.5156, 0.9267200
347.9977, 1.135712
348.4798, 1.150627
348.9619, 1.102402
349.4440, 1.054161
349.9261, 1.010361
350.4083, 0.9541850
350.8904, 0.8679890
351.3725, 0.8105160
351.8546, 0.8576970
352.3367, 0.9996800
352.8188, 1.196922
353.3010, 1.597260
353.7831, 1.957458
354.2652, 1.892929
354.7473, 1.423958
355.2294, 0.9887080
355.7115, 0.9482960
356.1937, 1.119743
356.6758, 1.275604
357.1579, 1.418617
357.6400, 1.440720
358.1221, 1.109650
358.6042, 0.5511470
359.0864, 0.2056660
359.5685, 0.5382160
360.0506, 1.018173
360.5327, 1.218010
361.0148, 0.9380570
361.4969, 0.7231900
361.9791, 0.8947680
362.4612, 1.262329
362.9433, 1.501976
363.4254, 1.432144
363.9075, 1.263855
364.3896, 1.072136
364.8718, 0.8186570
365.3539, 0.7308960
365.8360, 1.020172
366.3181, 1.415970
366.8002, 1.675728
367.2823, 1.716896
367.7645, 1.681061
368.2466, 1.538033
368.7287, 1.302307
369.2108, 1.145630
369.6929, 1.111519
370.1750, 1.119827
370.6572, 1.139603
371.1393, 1.194862
371.6214, 1.200027
372.1035, 1.122955
372.5856, 1.006348
373.0677, 0.9617390
373.5499, 1.058601
374.0320, 1.093239
374.5141, 0.9626390
374.9962, 0.6372910
375.4783, 0.4075470
375.9604, 0.2656170
376.4426, 0.2355650
376.9247, 0.4440460
377.4068, 0.9731900
377.8889, 1.193787
378.3710, 0.8214650
378.8531, 4.5006000E-02
379.3353, 0.3110890
379.8174, 0.1985930
380.2995, 2.3544000E-02
380.7816, 8.3449997E-02
381.2637, 4.4300000E-04
381.7458, 8.8019997E-02
382.2280, 0.1756970
382.7101, 0.2289510
383.1922, 0.1350330
383.6743, 7.6797001E-02
384.1564, 0.1982270
384.6385, 5.7999999E-04
385.1207, 0.3422320
385.6028, 0.4384610
386.0849, 0.2520980
386.5670, 4.6615999E-02
387.0491, 0.1226350
387.5313, 0.3541560
388.0134, 0.4901810
388.4955, 0.3954620
388.9776, 0.2023320
389.4597, 4.6195999E-02
389.9418, 0.3218000
390.4240, 0.4546130
390.9061, 0.1721570
391.3882, 0.2115940
391.8703, 0.3966450
392.3524, 0.2475660
392.8345, 5.5031002E-02
393.3167, 1.8463001E-02
393.7988, 3.7459999E-02
394.2809, 0.1302490
394.7630, 0.5006640
395.2451, 0.8148570
395.7272, 0.9162140
396.2094, 0.7659990
396.6915, 0.5661620
397.1736, 0.1985320
397.6557, 0.1275180
398.1378, 0.2200470
398.6199, 0.2284770
399.1021, 0.5865630
399.5842, 0.7807850
400.0663, 0.8205870
400.5484, 0.7634960
401.0305, 0.5366670
401.5126, 0.2919540
401.9948, 9.2041001E-02
402.4769, 8.8638000E-02
402.9590, 0.1441190
403.4411, 1.5870000E-03
403.9232, 0.2118610
404.4053, 0.2493210
404.8875, 4.2808998E-02
405.3696, 0.1446990
405.8517, 0.2175900
406.3338, 0.1840900
406.8159, 0.2023010
407.2980, 0.2920230
407.7802, 0.3628540
408.2623, 0.3006970
408.7444, 0.1132350
409.2265, 2.4894999E-02
409.7086, 7.0572004E-02
410.1907, 6.1133999E-02
410.6729, 5.8853000E-02
411.1550, 6.4217001E-02
411.6371, 9.4573997E-02
412.1192, 0.1488420
412.6013, 0.2359090
413.0834, 0.3973460
413.5656, 0.6456760
414.0477, 0.8863070
414.5298, 1.084206
415.0119, 1.204796
415.4940, 1.180618
415.9761, 0.8453370
416.4583, 0.4586180
416.9404, 0.2509690
417.4225, 0.2117770
417.9046, 0.1967390
418.3867, 5.7750000E-03
418.8688, 0.1264650
419.3510, 5.5709999E-02
419.8331, 0.8386760
420.3152, 1.428886
420.7973, 1.418747
421.2794, 1.028709
421.7615, 0.6612630
422.2437, 0.2361370
422.7258, 2.2713000E-02
423.2079, 0.1807170
423.6900, 0.7694850
424.1721, 1.292519
424.6542, 1.882851
425.1364, 2.290436
425.6185, 2.315063
426.1006, 1.559273
426.5827, 1.028702
427.0648, 0.8235470
427.5469, 0.8934480
428.0291, 1.111542
428.5112, 1.603333
428.9933, 1.992966
429.4754, 2.071899
429.9575, 1.784019
430.4396, 1.581009
430.9218, 1.458900
431.4039, 1.423447
431.8860, 1.520584
432.3681, 1.756805
432.8502, 1.950012
433.3323, 2.041138
433.8145, 2.063896
434.2966, 2.120613
434.7787, 2.215729
435.2608, 2.290504
435.7429, 2.246002
436.2250, 2.154320
436.7072, 2.230148
437.1893, 2.539238
437.6714, 2.826538
438.1535, 2.693329
438.6356, 2.300568
439.1177, 2.018250
439.5999, 2.111992
440.0820, 2.316383
440.5641, 2.382835
441.0462, 2.336884
441.5283, 2.389618
442.0104, 2.854919
442.4926, 3.327682
442.9747, 3.430832
443.4568, 2.868835
443.9389, 2.395744
444.4210, 2.225845
444.9031, 2.282768
445.3853, 2.445770
445.8674, 3.022377
446.3495, 3.411736
446.8316, 3.354027
447.3137, 2.760025
447.7958, 2.347687
448.2780, 2.154716
448.7601, 2.101768
449.2422, 2.121262
449.7243, 2.242599
450.2064, 2.438843
450.6885, 2.756523
451.1707, 3.124390
451.6528, 3.357895
452.1349, 3.445343
452.6170, 3.454773
453.0991, 3.401276
453.5812, 3.284744
454.0634, 3.123779
454.5455, 2.897217
455.0276, 2.712128
455.5097, 2.681992
455.9918, 2.797371
456.4739, 3.002480
456.9561, 3.312912
457.4382, 3.607689
457.9203, 3.657646
458.4024, 3.506020
458.8845, 3.353119
459.3666, 3.313377
459.8488, 3.343422
460.3309, 3.414467
460.8130, 3.537025
461.2951, 3.615082
461.7772, 3.502029
462.2593, 3.314270
462.7415, 3.192963
463.2236, 3.266296
463.7057, 3.319992
464.1878, 3.258392
464.6699, 3.108070
465.1520, 2.966545
465.6342, 2.759384
466.1163, 2.665016
466.5984, 2.803665
467.0805, 3.306015
467.5626, 3.654762
468.0447, 3.765388
468.5269, 3.764282
469.0090, 3.779518
469.4911, 3.843658
469.9732, 3.853668
470.4553, 3.747276
470.9374, 3.577225
471.4196, 3.599319
471.9017, 3.871605
472.3838, 4.154625
472.8659, 4.310265
473.3480, 4.337906
473.8301, 4.378281
474.3123, 4.434059
474.7944, 4.498566
475.2765, 4.547966
475.7586, 4.592484
476.2407, 4.695518
476.7228, 4.915161
477.2050, 5.160484
477.6871, 5.282135
478.1692, 5.294098
478.6513, 5.257935
479.1334, 5.190826
479.6155, 5.108406
480.0977, 4.997444
480.5798, 4.840668
481.0619, 4.786263
481.5440, 4.999695
482.0261, 5.338516
482.5082, 5.638779
482.9904, 5.984169
483.4725, 6.145973
483.9546, 5.915298
484.4367, 5.398041
484.9188, 5.064964
485.4009, 5.171165
485.8831, 5.304474
486.3652, 5.293633
486.8473, 5.082832
487.3294, 4.920471
487.8115, 4.778549
488.2936, 4.709106
488.7758, 4.784256
489.2579, 5.057587
489.7400, 5.314133
490.2221, 5.557518
490.7042, 5.737923
491.1863, 5.607819
491.6685, 5.123322
492.1506, 4.772636
492.6327, 4.974380
493.1148, 5.576294
493.5969, 5.791107
494.0790, 5.577065
494.5612, 5.332687
495.0433, 5.603676
495.5254, 6.129425
496.0075, 6.313713
496.4896, 5.833069
496.9717, 5.202484
497.4539, 4.863922
497.9360, 4.761040
498.4181, 4.764816
498.9002, 4.833435
499.3823, 4.970848
499.8645, 5.250557
500.3466, 5.698898
500.8287, 5.949646
501.3108, 5.737999
501.7929, 5.371902
502.2751, 5.086571
502.7572, 4.730095
503.2393, 4.684311
503.7214, 5.116997
504.2035, 5.827324
504.6856, 6.428986
505.1678, 7.001137
505.6499, 7.297920
506.1320, 7.165382
506.6141, 6.635368
507.0962, 6.339302
507.5783, 6.304008
508.0605, 6.355438
508.5426, 6.377350
509.0247, 6.369987
509.5068, 6.304314
509.9889, 6.154213
510.4710, 6.017754
510.9532, 6.074905
511.4353, 6.274826
511.9174, 6.430931
512.3995, 6.479317
512.8816, 6.434448
513.3637, 6.216499
513.8458, 5.862305
514.3279, 5.642502
514.8101, 5.877449
515.2922, 6.208244
515.7743, 6.337769
516.2564, 6.177238
516.7385, 5.962891
517.2206, 5.743988
517.7028, 5.527184
518.1849, 5.321648
518.6670, 4.994675
519.1491, 4.839973
519.6312, 5.007492
520.1133, 5.400223
520.5955, 5.602882
521.0776, 5.558029
521.5597, 5.421272
522.0418, 5.245705
522.5239, 5.028648
523.0060, 4.804619
523.4882, 4.569504
523.9703, 4.339897
524.4524, 4.111839
524.9345, 3.893463
525.4166, 3.771294
525.8987, 3.788734
526.3809, 3.841148
526.8630, 3.717178
527.3451, 3.464401
527.8272, 3.281166
528.3093, 3.381813
528.7914, 3.532890
529.2736, 3.411751
529.7557, 3.035858
530.2378, 2.758736
530.7199, 2.921974
531.2020, 3.169693
531.6841, 3.186729
532.1663, 2.794159
532.6484, 2.440308
533.1305, 2.154152
533.6126, 1.996490
534.0947, 2.054291
534.5768, 2.713440
535.0590, 3.117554
535.5411, 3.045715
536.0232, 2.584511
536.5053, 2.254494
536.9874, 2.098618
537.4695, 1.996216
537.9517, 1.917389
538.4338, 1.860336
538.9159, 1.731178
539.3980, 1.503723
539.8801, 1.268745
540.3622, 1.125786
540.8444, 1.074600
541.3265, 1.107651
541.8086, 1.248116
542.2907, 1.412796
542.7728, 1.532822
543.2549, 1.597122
543.7371, 1.570999
544.2192, 1.279854
544.7013, 1.008247
545.1834, 1.032043
545.6655, 1.337143
546.1476, 1.589760
546.6298, 1.662056
547.1119, 1.612778
547.5940, 1.460335
548.0761, 1.097549
548.5582, 0.8627550
549.0403, 0.8530810
549.5225, 0.9491580
550.0046, 1.024239
550.4867, 1.072113
550.9688, 1.081032
551.4509, 1.039093
551.9330, 0.9704510
552.4152, 0.8956530
552.8973, 0.8021240
553.3794, 0.7846600
553.8615, 1.014076
554.3436, 1.391525
554.8257, 1.275818
555.3079, 0.6387250
555.7900, 2.9891999E-02
556.2721, 5.3879000E-02
556.7542, 0.4379580
557.2363, 0.6800380
557.7184, 0.6371920
558.2006, 0.5649720
558.6827, 0.7215880
559.1648, 0.9754330
559.6469, 1.105316
560.1290, 0.8544240
560.6111, 0.6401600
561.0933, 0.7311020
561.5754, 1.057968
562.0575, 1.142197
562.5396, 0.6978150
563.0217, 0.2008970
563.5038, 0.2105560
563.9860, 0.5793760
564.4681, 0.6458590
564.9502, 0.2900090
565.4323, 0.1892400
565.9144, 0.5193020
566.3965, 0.6979680
566.8787, 0.7556530
567.3608, 0.6591720
567.8429, 0.5170440
568.3250, 0.5979610
568.8071, 0.8421480
569.2892, 0.9103010
569.7714, 0.4347990
570.2535, 0.1573100
570.7356, 0.2100370
571.2177, 0.1957930
571.6998, 0.5945970
572.1819, 0.7323610
572.6641, 0.7430500
573.1462, 0.7093510
573.6283, 0.6259230
574.1104, 0.5849150
574.5925, 0.6916120
575.0746, 0.8097000
575.5568, 0.8101040
576.0389, 0.3418500
576.5210, 0.2604600
577.0031, 0.8890990
577.4852, 1.801231
577.9673, 2.049370
578.4495, 1.387253
578.9316, 0.8572390
579.4137, 0.8588790
579.8958, 1.231842
580.3779, 1.245804
580.8600, 0.8889160
581.3422, 0.4709320
581.8243, 0.1291120
582.3065, 0.1057430
582.7886, 0.1242290
583.2707, 8.9530997E-02
583.7528, 0.3724060
584.2349, 0.7132030
584.7170, 1.004089
585.1992, 1.097122
585.6813, 0.8657760
586.1634, 0.5808560
586.6455, 0.2760930
587.1276, 6.4849998E-03
587.6097, 0.1241910
588.0919, 4.1729999E-03
588.5740, 0.1535110
589.0561, 0.3484190
589.5382, 0.5593640
590.0203, 0.6191860
590.5024, 0.4584810
590.9846, 0.2873310
591.4667, 0.2113110
591.9488, 0.2312700
592.4309, 0.2624970
592.9130, 0.3140030
593.3951, 0.3373410
593.8773, 0.2794800
594.3594, 0.1546020
594.8415, 1.6487001E-02
595.3236, 0.2582240
595.8057, 0.4400250
596.2878, 0.3596040
596.7700, 0.1330490
597.2521, 2.4338000E-02
597.7342, 4.2465001E-02
598.2163, 0.1318660
598.6984, 0.1326140
599.1805, 7.1425997E-02
599.6627, 5.0751001E-02
600.1448, 0.1862950
600.6269, 0.2768780
601.1090, 0.2032700
601.5911, 6.3385002E-02
602.0732, 0.1223070
602.5554, 0.1713180
603.0375, 0.4517820
603.5196, 0.4104540
604.0017, 1.2444000E-02
604.4838, 0.2667160
604.9659, 0.3935780
605.4481, 0.4213030
605.9302, 0.4046940
606.4123, 0.3417430
606.8944, 0.2105710
607.3765, 7.1869001E-02
607.8586, 0.2899400
608.3408, 8.0696002E-02
608.8229, 0.3917010
609.3050, 0.7177960
609.7871, 0.5766910
610.2692, 0.3423840
610.7513, 0.2024990
611.2335, 0.1617580
611.7156, 0.1641770
612.1977, 0.2483370
612.6798, 0.3288960
613.1619, 0.3448720
613.6440, 0.2497480
614.1262, 0.3321910
614.6083, 0.7024000
615.0904, 1.079819
615.5725, 1.156006
616.0546, 0.9144130
616.5367, 0.8628230
617.0189, 1.112122
617.5010, 1.432564
617.9831, 1.442291
618.4652, 1.229713
618.9473, 1.109459
619.4294, 1.303101
619.9116, 1.510567
620.3937, 1.319290
620.8758, 0.8851090
621.3579, 0.6665950
621.8400, 1.112068
622.3221, 1.605339
622.8043, 1.830437
623.2864, 1.758507
623.7685, 1.697540
624.2506, 1.705475
624.7327, 1.710136
625.2148, 1.675087
625.6970, 1.592079
626.1791, 1.520226
626.6612, 1.443726
627.1433, 1.363548
627.6254, 1.276939
628.1075, 1.188492
628.5897, 1.151924
629.0718, 1.170525
629.5539, 1.262329
630.0360, 1.546371
630.5181, 1.927910
631.0002, 2.173370
631.4824, 2.072006
631.9645, 1.919800
632.4466, 1.949875
632.9287, 2.097282
633.4108, 2.159027
633.8929, 1.967941
634.3751, 1.770470
634.8572, 1.637230
635.3393, 1.565987
635.8214, 1.658882
636.3035, 2.062996
636.7856, 2.435463
637.2678, 2.551872
637.7499, 2.364380
638.2320, 2.276291
638.7141, 2.324242
639.1962, 2.342010
639.6783, 2.048347
640.1605, 1.554352
640.6426, 1.332329
641.1247, 1.525322
641.6068, 1.828896
642.0889, 1.938576
642.5710, 1.943184
643.0532, 1.990532
643.5353, 2.227699
644.0174, 2.423653
644.4995, 2.468719
644.9816, 2.408401
645.4637, 2.344032
645.9459, 2.227333
646.4280, 2.169571
646.9101, 2.233337
647.3922, 2.410378
647.8743, 2.503517
648.3564, 2.469971
648.8386, 2.428513
649.3207, 2.452797
649.8028, 2.539719
650.2849, 2.619362
650.7670, 2.687172
651.2491, 2.729134
651.7313, 2.731148
652.2134, 2.698555
652.6955, 2.617943
653.1776, 2.454002
653.6597, 2.357933
654.1418, 2.512337
654.6240, 2.757957
655.1061, 2.895897
655.5882, 2.758781
656.0703, 2.667130
656.5524, 2.681335
657.0345, 2.725914
657.5167, 2.661896
657.9988, 2.452217
658.4809, 2.206924
658.9630, 1.906067
659.4451, 1.633720
659.9272, 1.652840
660.4094, 1.947571
660.8915, 2.283653
661.3736, 2.660545
661.8557, 2.989868
662.3378, 2.955681
662.8199, 2.607384
663.3021, 2.402504
663.7842, 2.875450
664.2663, 3.439476
664.7484, 3.628120
665.2305, 3.330429
665.7126, 2.920403
666.1948, 2.232269
666.6769, 1.684212
667.1590, 1.579926
667.6411, 2.194008
668.1232, 2.611679
668.6053, 2.729973
669.0875, 2.733490
669.5696, 2.893234
670.0517, 3.213486
670.5338, 3.344070
671.0159, 3.170372
671.4980, 2.881226
671.9802, 2.751495
672.4623, 2.757591
672.9444, 2.807953
673.4265, 2.895226
673.9086, 2.974350
674.3907, 3.066513
674.8729, 3.147568
675.3550, 3.128723
675.8371, 2.859871
676.3192, 2.612289
676.8013, 2.481354
677.2834, 2.463364
677.7656, 2.531197
678.2477, 2.764305
678.7298, 2.893600
679.2119, 2.702919
679.6940, 2.233383
680.1761, 2.074463
680.6583, 2.246635
681.1404, 2.536774
681.6225, 2.951508
682.1046, 3.309654
682.5867, 3.135376
683.0688, 2.282516
683.5510, 1.551048
684.0331, 1.693428
684.5152, 2.175545
684.9973, 2.439934
685.4794, 2.174423
685.9615, 2.042267
686.4437, 2.289703
686.9258, 2.664337
687.4079, 2.852699
687.8900, 2.828171
688.3721, 2.664955
688.8542, 2.280205
689.3364, 1.877487
689.8185, 2.028954
690.3006, 2.674744
690.7827, 3.051323
691.2648, 2.714851
691.7469, 2.102600
692.2291, 1.838593
692.7112, 1.835670
693.1933, 1.823799
693.6754, 1.567680
694.1575, 1.353249
694.6396, 1.368118
695.1218, 1.597710
695.6039, 1.817314
696.0860, 1.973778
696.5681, 2.133179
697.0502, 2.372208
697.5323, 2.704605
698.0145, 2.677071
698.4966, 2.207649
698.9787, 1.681595
699.4608, 1.337387
699.9429, 1.169266
700.4250, 1.245842
700.9072, 1.590401
701.3893, 1.838539
701.8714, 1.483757
702.3535, 0.9266200
702.8356, 0.7114940
703.3177, 1.079735
703.7999, 1.362839
704.2820, 1.146194
704.7641, 0.7915120
705.2462, 0.7026900
705.7283, 1.197891
706.2104, 1.434143
706.6926, 1.271034
707.1747, 0.9345320
707.6568, 0.7824860
708.1389, 0.8255690
708.6210, 0.8978730
709.1031, 0.9920960
709.5853, 1.041649
710.0674, 0.8328480
710.5495, 0.4736940
711.0316, 0.2870940
711.5137, 0.7211610
711.9958, 1.108246
712.4780, 0.8541640
712.9601, 0.1760330
713.4422, 0.2582090
713.9243, 3.4340002E-02
714.4064, 0.2058490
714.8885, 0.2698820
715.3707, 0.1796650
715.8528, 0.1032030
716.3349, 5.2131999E-02
716.8170, 2.7023001E-02
717.2991, 0.2079390
717.7813, 0.4421230
718.2634, 0.4335330
718.7455, 0.1883470
719.2276, 2.6642000E-02
719.7097, 4.2435002E-02
720.1918, 0.2098850
720.6740, 0.2222440
721.1561, 5.9905998E-02
721.6382, 4.5929000E-02
722.1203, 0.1324690
722.6024, 0.3239590
723.0845, 0.3018190
723.5667, 0.1095730
724.0488, 0.1970520
724.5309, 0.2734680
725.0130, 0.7596210
725.4951, 0.7302470
725.9772, 0.1495740
726.4594, 0.1918640
726.9415, 0.2125850
727.4236, 0.1069340
727.9057, 0.1245190
728.3878, 0.1795040
728.8699, 4.1687001E-02
729.3521, 0.4439010
729.8342, 0.8291850
730.3163, 0.7116240
730.7984, 0.3538890
731.2805, 8.4518000E-02
731.7626, 2.6481999E-02
732.2448, 1.4270000E-03
732.7269, 2.2057001E-02
733.2090, 2.1300999E-02
733.6911, 3.0944999E-02
734.1732, 0.1469350
734.6553, 0.2653880
735.1375, 0.3925780
735.6196, 0.4845280
736.1017, 0.3948970
736.5838, 0.1760860
737.0659, 5.8456000E-02
737.5480, 0.2127150
738.0302, 0.4349980
738.5123, 0.5543670
738.9944, 0.5941240
739.4765, 0.6130370
739.9586, 0.7786790
740.4407, 0.7712170
740.9229, 0.2354280
741.4050, 0.6072690
741.8871, 0.7246700
742.3692, 0.2463000
742.8513, 0.9584200
743.3334, 0.7829970
743.8156, 2.7580000E-02
744.2977, 0.3648830
744.7798, 0.2560580
745.2619, 0.1953660
745.7440, 0.7216950
746.2261, 1.326553
746.7083, 1.271492
747.1904, 0.6223830
747.6725, 0.1963200
748.1546, 0.5799480
748.6367, 1.085426
749.1188, 1.356079
749.6010, 1.354660
750.0831, 1.322945
750.5652, 1.274521
751.0473, 1.179565
751.5294, 0.9621280
752.0115, 0.6304780
752.4937, 0.5295180
752.9758, 0.6717680
753.4579, 0.9006650
753.9400, 1.126373
754.4221, 1.328537
754.9042, 1.456032
755.3864, 1.500687
755.8685, 1.550903
756.3506, 1.745003
756.8327, 1.903511
757.3148, 1.855888
757.7969, 1.439796
758.2791, 1.232368
758.7612, 1.326752
759.2433, 1.507042
759.7254, 1.538048
760.2075, 1.403336
760.6896, 1.554131
761.1718, 2.092552
761.6539, 2.676102
762.1360, 2.975182
762.6181, 3.047256
763.1002, 2.951553
763.5823, 2.630981
764.0645, 2.446770
764.5466, 2.752983
765.0287, 3.218346
765.5108, 3.490059
765.9929, 3.377861
766.4750, 3.297867
766.9572, 3.250069
767.4393, 3.239769
767.9214, 3.317650
768.4035, 3.487633
768.8856, 3.461540
769.3677, 3.185654
769.8499, 2.807236
770.3320, 2.374260
770.8141, 1.975662
771.2962, 1.848549
771.7783, 2.225967
772.2604, 2.703743
772.7426, 3.176811
773.2247, 3.563347
773.7068, 3.755180
774.1889, 3.674644
774.6710, 3.475670
775.1531, 3.038673
775.6353, 2.588638
776.1174, 2.648193
776.5995, 3.248466
777.0816, 3.686501
777.5637, 3.764679
778.0458, 3.613991
778.5280, 3.303703
779.0101, 2.942619
779.4922, 2.753227
779.9743, 2.971489
780.4564, 3.176430
780.9385, 3.173866
781.4207, 3.063683
781.9028, 2.994652
782.3849, 2.974632
782.8670, 2.919456
783.3491, 2.826981
783.8312, 2.769196
784.3134, 2.870438
784.7955, 3.109520
785.2776, 3.229256
785.7597, 3.106895
786.2418, 2.885155
786.7239, 2.715271
787.2061, 2.575546
787.6882, 2.465767
788.1703, 2.420815
788.6524, 2.437271
789.1345, 2.522133
789.6166, 2.646576
790.0988, 2.758850
790.5809, 2.826630
791.0630, 2.943916
791.5451, 3.154060
792.0272, 3.404442
792.5093, 3.495193
792.9915, 3.448097
793.4736, 3.517403
793.9557, 3.978546
794.4378, 4.452492
794.9199, 4.394272
795.4020, 3.960251
795.8842, 3.584885
796.3663, 3.350975
796.8484, 3.308067
797.3305, 3.616379
797.8126, 4.130608
798.2947, 4.409622
798.7769, 4.381683
799.2590, 4.392418
799.7411, 4.572075
800.2232, 4.820015
800.7053, 4.810150
801.1874, 4.628525
801.6696, 4.572601
802.1517, 4.930489
802.6338, 5.293907
803.1159, 5.184113
803.5980, 4.780983
804.0801, 4.577568
804.5623, 4.891159
805.0444, 5.236038
805.5265, 5.471207
806.0086, 5.644318
806.4907, 5.949738
806.9728, 6.441536
807.4550, 6.778404
807.9371, 6.817802
808.4192, 6.670799
808.9013, 6.533195
809.3834, 6.403755
809.8655, 6.278023
810.3477, 5.994705
810.8298, 5.866753
811.3119, 6.254837
811.7940, 6.964104
812.2761, 7.406044
812.7582, 7.281448
813.2404, 7.196953
813.7225, 7.355515
814.2046, 7.594002
814.6867, 7.271507
815.1688, 6.381454
815.6509, 5.876305
816.1331, 6.244469
816.6152, 7.006241
817.0973, 7.657150
817.5794, 8.134155
818.0615, 8.293930
818.5436, 7.534294
819.0258, 7.018517
819.5079, 7.418480
819.9900, 8.399292
820.4721, 9.022247
820.9542, 9.214455
821.4363, 9.173203
821.9185, 8.821747
822.4006, 8.392181
822.8827, 8.485420
823.3648, 9.015915
823.8469, 9.482010
824.3290, 9.688728
824.8112, 9.779465
825.2933, 9.822998
825.7754, 9.859863
826.2575, 9.966393
826.7396, 10.16060
827.2217, 10.44689
827.7039, 10.97044
828.1860, 11.51142
828.6681, 11.54218
829.1502, 10.93196
829.6323, 10.77423
830.1144, 11.41740
830.5966, 12.40286
831.0787, 13.20991
831.5608, 13.80467
832.0429, 14.10687
832.5250, 13.91510
833.0071, 13.69854
833.4893, 13.67428
833.9714, 13.78113
834.4535, 13.92360
834.9356, 14.07739
835.4177, 14.30244
835.8998, 14.64283
836.3820, 14.99825
836.8641, 15.20269
837.3462, 15.27318
837.8283, 15.38708
838.3104, 15.60690
838.7925, 15.77920
839.2747, 15.68967
839.7568, 15.48073
840.2389, 15.34030
840.7210, 15.27699
841.2031, 15.36293
841.6852, 15.83810
842.1674, 16.30490
842.6495, 16.36862
843.1316, 15.96878
843.6137, 15.45833
844.0958, 14.78918
844.5779, 14.28371
845.0601, 14.60222
845.5422, 15.30002
846.0243, 15.31857
846.5064, 14.32908
846.9885, 13.52273
847.4706, 13.73745
847.9528, 14.30990
848.4349, 14.70157
848.9170, 14.89745
849.3991, 14.78369
849.8812, 14.23096
850.3633, 13.61913
850.8455, 13.26080
851.3276, 13.12669
851.8097, 13.05136
852.2918, 13.02662
852.7739, 13.00435
853.2560, 12.95886
853.7382, 12.89026
854.2203, 12.78941
854.7024, 12.65308
855.1845, 12.53176
855.6666, 12.52026
856.1487, 12.43612
856.6309, 12.13315
857.1130, 11.62276
857.5951, 11.42472
858.0772, 11.56529
858.5593, 11.69172
859.0414, 11.43792
859.5236, 11.08040
860.0057, 11.16730
860.4878, 11.62467
860.9699, 11.87910
861.4520, 11.50350
861.9341, 11.02589
862.4163, 10.63497
862.8984, 10.33321
863.3805, 10.23563
863.8626, 10.42263
864.3447, 10.53503
864.8268, 10.40668
865.3090, 10.12975
865.7911, 9.904694
866.2732, 9.726158
866.7553, 9.598808
867.2374, 9.589615
867.7195, 9.565910
868.2017, 9.354958
868.6838, 9.064629
869.1659, 9.031448
869.6480, 9.489914
870.1301, 9.794662
870.6122, 9.817505
871.0944, 9.634964
871.5765, 9.319244
872.0586, 8.895676
872.5407, 8.662903
873.0228, 8.765747
873.5049, 8.968124
873.9871, 9.187256
874.4692, 9.316422
874.9513, 9.198196
875.4334, 8.515099
875.9155, 7.939812
876.3976, 7.487488
876.8798, 7.199883
877.3619, 7.159737
877.8440, 7.381721
878.3261, 7.624413
878.8082, 7.881096
879.2903, 8.048615
879.7725, 7.954727
880.2546, 7.723297
880.7367, 7.521858
881.2188, 7.380737
881.7009, 7.261215
882.1830, 7.148216
882.6652, 7.051521
883.1473, 6.966667
883.6294, 6.878723
884.1115, 6.963280
884.5936, 7.266319
885.0757, 7.493294
885.5579, 7.360245
886.0400, 6.992325
886.5221, 6.613747
887.0042, 6.250191
887.4863, 5.951942
887.9684, 5.655930
888.4506, 5.519508
888.9327, 5.769371
889.4148, 6.357376
889.8969, 6.542336
890.3790, 6.210632
890.8611, 5.827576
891.3433, 5.571983
891.8254, 5.401054
892.3075, 5.151077
892.7896, 4.861145
893.2717, 4.711769
893.7538, 4.904099
894.2360, 5.129234
894.7181, 5.208855
895.2002, 5.179832
895.6823, 5.153397
896.1644, 5.180878
896.6465, 5.121506
897.1287, 4.858971
897.6108, 4.594406
898.0929, 4.959961
898.5750, 5.745033
899.0571, 5.800247
899.5392, 4.530266
900.0214, 3.350700
900.5035, 3.690781
900.9856, 4.602486
901.4677, 4.959946
901.9498, 4.005867
902.4319, 3.507439
902.9141, 3.710228
903.3962, 4.051689
903.8783, 3.953316
904.3604, 3.463257
904.8425, 3.136032
905.3246, 3.011963
905.8068, 2.935509
906.2889, 2.736481
906.7710, 2.551201
907.2531, 2.559425
907.7352, 2.796532
908.2173, 2.862198
908.6995, 2.574051
909.1816, 2.286781
909.6637, 2.174103
910.1458, 2.207619
910.6279, 2.210632
911.1101, 2.176201
911.5922, 2.052612
912.0743, 1.780319
912.5565, 1.448921
913.0386, 1.062859
913.5207, 0.6837460
914.0028, 0.4605560
914.4849, 0.6413270
914.9670, 0.7625430
915.4492, 0.7251590
915.9313, 0.5992740
916.4134, 0.4136890
916.8955, 0.1719360
917.3776, 0.5208360
917.8597, 1.896530
918.3419, 3.086266
918.8240, 2.330414
919.3061, 0.6924360
919.7882, 0.3131030
920.2703, 9.8040001E-03
920.7524, 0.3188170
921.2346, 0.4585800
921.7167, 0.4581530
922.1988, 0.2775340
922.6809, 9.2430003E-02
923.1630, 0.2424620
923.6451, 0.1442490
924.1273, 2.1454001E-02
924.6094, 0.1671070
925.0915, 0.2436900
925.5736, 0.1069340
926.0557, 0.2311630
926.5378, 0.3220980
927.0200, 0.3954620
927.5021, 0.8783040
927.9842, 0.6301570
928.4663, 0.1662140
928.9484, 0.3910750
929.4305, 5.5091999E-02
929.9127, 0.3406070
930.3948, 0.6654890
930.8769, 0.8294750
931.3590, 0.5854110
931.8411, 0.1061710
932.3232, 0.2208860
932.8054, 0.1476670
933.2875, 7.2669998E-02
933.7696, 4.9400002E-02
934.2517, 5.7640001E-02
934.7338, 7.1517996E-02
935.2159, 9.5023997E-02
935.6981, 0.1346890
936.1802, 0.2032700
936.6623, 0.2180180
937.1444, 1.0353000E-02
937.6265, 0.2582020
938.1086, 0.3627700
938.5908, 0.1979830
939.0729, 0.1654740
939.5550, 0.5164570
940.0371, 0.7660750
940.5192, 0.5795820
941.0013, 1.0773000E-02
941.4835, 0.4378810
941.9656, 0.7057570
942.4477, 0.7970960
942.9298, 0.5770570
943.4119, 0.2667010
943.8940, 7.1227998E-02
944.3762, 1.4839000E-02
944.8583, 8.6081997E-02
945.3404, 0.1884610
945.8225, 0.2655940
946.3046, 0.3202740
946.7867, 0.3325730
947.2689, 0.2405400
947.7510, 5.4595999E-02
948.2331, 0.1400300
948.7152, 0.3233180
949.1973, 0.4972840
949.6794, 0.7065960
950.1616, 0.8861920
950.6437, 0.9562840
951.1258, 0.8607030
951.6079, 0.7056730
952.0900, 0.4190980
952.5721, 0.1958390
953.0543, 0.2943570
953.5364, 0.6324770
954.0185, 0.6378330
954.5006, 0.3007050
954.9827, 8.7280003E-03
955.4648, 2.3941001E-02
955.9470, 8.1375003E-02
956.4291, 0.2332080
956.9112, 0.4137800
957.3933, 0.4845660
957.8754, 0.4372250
958.3575, 0.2912060
958.8397, 1.0422000E-02
959.3218, 0.3400270
959.8039, 0.3251190
960.2860, 5.9494000E-02
960.7681, 0.1217350
961.2502, 8.2176000E-02
961.7324, 5.4512002E-02
962.2145, 0.3237990
962.6966, 0.6007160
963.1787, 0.7215350
963.6608, 0.6504590
964.1429, 0.4845500
964.6251, 0.1784740
965.1072, 5.2765001E-02
965.5893, 0.1219710
966.0714, 0.5031200
966.5535, 0.6554180
967.0356, 0.5464940
967.5178, 0.3581310
967.9999, 3.6667001E-02
968.4820, 0.2718660
968.9641, 1.5533000E-02
969.4462, 0.6205670
969.9283, 0.7522960
970.4105, 0.2851030
970.8926, 4.5990001E-02
971.3747, 0.4999850
971.8568, 1.157173
972.3389, 1.276360
972.8210, 1.023506
973.3032, 0.7528920
973.7853, 0.4299550
974.2674, 0.3248980
974.7495, 0.6547010
975.2316, 1.078262
975.7137, 1.217148
976.1959, 1.059052
976.6780, 0.9756930
977.1601, 1.000679
977.6422, 1.027306
978.1243, 0.9021840
978.6064, 0.7791750
979.0886, 0.8723140
979.5707, 1.201904
980.0528, 1.419357
980.5349, 1.477547
981.0170, 1.386322
981.4991, 1.057739
981.9813, 0.6299210
982.4634, 0.6724090
982.9455, 1.102364
983.4276, 1.407463
983.9097, 1.249161
984.3918, 1.072937
984.8740, 1.314873
985.3561, 1.707359
985.8382, 1.815948
986.3203, 1.373039
986.8024, 1.208763
987.2845, 1.451637
987.7667, 1.765602
988.2488, 1.777756
988.7309, 1.598091
989.2130, 1.509003
989.6951, 1.533340
990.1772, 1.570976
990.6594, 1.619026
991.1415, 1.628609
991.6236, 1.520798
992.1057, 1.336197
992.5878, 1.328796
993.0699, 1.521523
993.5521, 1.717583
994.0342, 1.865646
994.5163, 1.949913
994.9984, 1.936653
995.4805, 1.845200
995.9626, 1.712662
996.4448, 1.399994
996.9269, 1.308380
997.4090, 1.613815
997.8911, 2.027092
998.3732, 2.298378
998.8553, 2.430046
999.3375, 2.583099
999.8196, 2.768845
1000.302, 2.769836
1000.784, 2.080093
1001.266, 1.434074
1001.748, 1.580666
1002.230, 2.442970
1002.712, 2.942795
1003.194, 2.867241
1003.677, 2.741188
1004.159, 2.685211
1004.641, 2.676506
1005.123, 2.669044
1005.605, 2.666306
1006.087, 2.689186
1006.569, 2.775299
1007.051, 2.806602
1007.533, 2.675690
1008.016, 2.497055
1008.498, 2.381416
1008.980, 2.355522
1009.462, 2.306519
1009.944, 2.230743
1010.426, 2.222130
1010.908, 2.394508
1011.390, 2.605179
1011.872, 2.706978
1012.355, 2.730095
1012.837, 2.743431
1013.319, 2.806107
1013.801, 2.743668
1014.283, 2.420334
1014.765, 2.043854
1015.247, 2.111839
1015.729, 2.552002
1016.212, 2.696701
1016.694, 2.363068
1017.176, 2.041512
1017.658, 2.172707
1018.140, 2.436470
1018.622, 2.567848
1019.104, 2.550903
1019.586, 2.416115
1020.068, 2.086365
1020.551, 1.917694
1021.033, 2.177261
1021.515, 2.670792
1021.997, 3.041649
1022.479, 3.275070
1022.961, 3.346352
1023.443, 3.119926
1023.925, 2.942169
1024.407, 2.890114
1024.890, 2.920441
1025.372, 3.027473
1025.854, 3.202095
1026.336, 3.213425
1026.818, 3.057755
1027.300, 2.917305
1027.782, 2.885818
1028.264, 2.914780
1028.747, 3.016968
1029.229, 3.223602
1029.711, 3.371468
1030.193, 3.453278
1030.675, 3.417297
1031.157, 3.211807
1031.639, 2.908516
1032.121, 2.613388
1032.604, 2.387314
1033.086, 2.372971
1033.568, 2.658363
1034.050, 3.024139
1034.532, 3.618187
1035.014, 4.077057
1035.496, 4.002220
1035.978, 3.256622
1036.460, 2.971786
1036.943, 3.182091
1037.425, 3.494240
1037.907, 3.696648
1038.389, 3.783966
1038.871, 3.694511
1039.353, 3.467216
1039.835, 3.267433
1040.317, 3.139557
1040.799, 3.071037
1041.282, 3.057983
1041.764, 3.078957
1042.246, 3.129410
1042.728, 3.207695
1043.210, 3.247482
1043.692, 3.214058
1044.174, 3.292770
1044.656, 3.921677
1045.139, 4.407089
1045.621, 4.186501
1046.103, 3.329590
1046.585, 2.836899
1047.067, 2.729561
1047.549, 2.756760
1048.031, 2.864418
1048.513, 2.970375
1048.995, 2.983688
1049.478, 2.920410
1049.960, 2.809265
1050.442, 2.579811
1050.924, 2.443611
1051.406, 2.442039
1051.888, 2.458336
1052.370, 2.344551
1052.852, 2.161133
1053.334, 2.156479
1053.817, 2.318512
1054.299, 2.424698
1054.781, 2.302498
1055.263, 2.169930
1055.745, 2.087456
1056.227, 2.071381
1056.709, 2.199364
1057.191, 2.480141
1057.674, 2.742973
1058.156, 2.984047
1058.638, 3.062462
1059.120, 2.659271
1059.602, 2.127777
1060.084, 1.866020
1060.566, 1.975616
1061.048, 2.041351
1061.531, 2.052948
1062.013, 1.994659
1062.495, 1.803238
1062.977, 1.583206
1063.459, 1.677376
1063.941, 1.962502
1064.423, 2.084679
1064.905, 1.761894
1065.387, 1.454849
1065.870, 1.258575
1066.352, 1.203888
1066.834, 1.338654
1067.316, 1.621002
1067.798, 1.845299
1068.280, 2.019234
1068.762, 2.061577
1069.244, 1.805321
1069.726, 1.485313
1070.209, 1.256828
1070.691, 1.129333
1071.173, 1.127579
1071.655, 1.338760
1072.137, 1.358116
1072.619, 1.049873
1073.101, 0.7037730
1073.583, 0.7594830
1074.066, 1.015900
1074.548, 1.140175
1075.030, 1.057861
1075.512, 1.011490
1075.994, 1.115616
1076.476, 1.200333
1076.958, 1.195068
1077.440, 1.116707
1077.922, 0.9976270
1078.405, 0.8579410
1078.887, 0.8090670
1079.369, 0.9776690
1079.851, 1.106705
1080.333, 0.8787380
1080.815, 0.6188430
1081.297, 0.7585980
1081.779, 1.416725
1082.262, 1.829872
1082.744, 2.000648
1083.226, 1.933441
1083.708, 1.368141
1084.190, 0.7686610
1084.672, 0.7208710
1085.154, 1.064636
1085.636, 1.221001
1086.119, 0.9594350
1086.601, 0.8382950
1087.083, 0.9439010
1087.565, 1.129982
1088.047, 1.307884
1088.529, 1.408447
1089.011, 1.224380
1089.493, 0.7373960
1089.975, 0.3179320
1090.458, 1.5343000E-02
1090.940, 9.5740996E-02
1091.422, 0.2301940
1091.904, 0.7932050
1092.386, 1.044502
1092.868, 1.029602
1093.350, 1.048241
1093.832, 1.231415
1094.314, 1.325508
1094.797, 0.9924090
1095.279, 0.6062240
1095.761, 0.5382540
1096.243, 0.8238600
1096.725, 1.045570
1097.207, 1.215340
1097.689, 1.199936
1098.171, 0.7339860
1098.654, 0.2366490
1099.136, 0.2872770
1099.618, 0.6415020
1100.100, 0.8130420
1100.582, 0.5462420
1101.064, 0.3794560
1101.546, 0.3225940
1102.028, 0.3728560
1102.510, 0.6070710
1102.993, 0.9170990
1103.475, 1.031967
1103.957, 0.9794620
1104.439, 0.9941940
1104.921, 1.326546
1105.403, 1.552986
1105.885, 1.529816
1106.367, 1.345909
1106.849, 1.127083
1107.332, 0.9012300
1107.814, 0.7926250
1108.296, 0.8185650
1108.778, 0.9566500
1109.260, 1.493950
1109.742, 1.850502
1110.224, 1.466667
1110.706, 0.5588460
1111.189, 0.3001940
1111.671, 0.7026370
1112.153, 1.095161
1112.635, 1.305489
1113.117, 1.321892
1113.599, 0.9116130
1114.081, 0.4245910
1114.563, 0.3317870
1115.046, 0.8016050
1115.528, 1.026222
1116.010, 0.9281390
1116.492, 0.8086930
1116.974, 0.8761060
1117.456, 0.9839020
1117.938, 0.8168640
1118.420, 0.5196230
1118.902, 0.3966900
1119.385, 0.8280030
1119.867, 0.9759370
1120.349, 0.7022930
1120.831, 0.3524630
1121.313, 0.2316820
1121.795, 0.2754210
1122.277, 0.3084110
1122.759, 0.3097920
1123.241, 0.1971510
1123.724, 0.4020310
1124.206, 0.6793370
1124.688, 0.2743910
1125.170, 0.4167330
1125.652, 0.7995760
1126.134, 0.9062880
1126.616, 0.9048230
1127.098, 0.8111040
1127.581, 0.7855610
1128.063, 1.092606
1128.545, 1.354446
1129.027, 1.302872
1129.509, 1.016350
1129.991, 0.7021180
1130.473, 0.3585590
1130.955, 0.1381000
1131.438, 9.6321002E-02
1131.920, 0.1260450
1132.402, 0.1671680
1132.884, 0.1992420
1133.366, 0.1659700
1133.848, 5.2703999E-02
1134.330, 0.1682970
1134.812, 0.5739670
1135.294, 0.8730160
1135.776, 0.8894500
1136.259, 0.7163620
1136.741, 0.2795720
1137.223, 0.1884840
1137.705, 0.3115620
1138.187, 0.2308730
1138.669, 0.6127930
1139.151, 0.8439480
1139.633, 0.8995210
1140.116, 0.6087270
1140.598, 0.2102360
1141.080, 0.2940060
1141.562, 0.6949160
1142.044, 0.9533840
1142.526, 0.8588710
1143.008, 0.6432720
1143.490, 0.2338330
1143.973, 0.1120300
1144.455, 9.2560001E-02
1144.937, 0.1976390
1145.419, 0.5511020
1145.901, 0.9142150
1146.383, 1.015175
1146.865, 0.3366700
1147.347, 0.1412890
1147.829, 4.0718000E-02
1148.312, 0.3117830
1148.794, 0.4065480
1149.276, 0.2894820
1149.758, 0.2330320
1150.240, 0.2679750
1150.722, 0.2715910
1151.204, 0.1110920
1151.686, 4.9545001E-02
1152.168, 0.1486360
1152.651, 0.1716000
1153.133, 1.1391000E-02
1153.615, 0.3185880
1154.097, 0.4719770
1154.579, 0.3338850
1155.061, 0.1838380
1155.543, 0.3016590
1156.025, 0.4617160
1156.508, 0.4481200
1156.990, 0.2824630
1157.472, 0.1537090
1157.954, 5.4595999E-02
1158.436, 0.1155930
1158.918, 0.4511340
1159.400, 0.7964250
1159.882, 0.8804090
1160.365, 0.8265760
1160.847, 0.7899930
1161.329, 0.8142470
1161.811, 0.6045000
1162.293, 0.1055680
1162.775, 0.2676620
1163.257, 0.2340550
1163.739, 4.7012001E-02
1164.221, 1.2878000E-02
1164.703, 5.5252001E-02
1165.186, 4.2511001E-02
1165.668, 9.2857003E-02
1166.150, 0.1703720
1166.632, 0.1687010
1167.114, 0.1841050
1167.596, 0.3340000
1168.078, 0.5166550
1168.560, 0.5499730
1169.043, 0.4775700
1169.525, 0.4180910
1170.007, 0.3410030
1170.489, 0.4206620
1170.971, 0.7697750
1171.453, 1.016357
1171.935, 0.6130520
1172.417, 6.1195001E-02
1172.900, 0.2424770
1173.382, 1.6876001E-02
1173.864, 0.3154220
1174.346, 0.7037050
1174.828, 0.8265690
1175.310, 0.5452350
1175.792, 0.1598210
1176.274, 0.1573410
1176.756, 0.3670580
1177.239, 0.3103560
1177.721, 2.2224000E-02
1178.203, 0.1432040
1178.685, 0.4994430
1179.167, 0.8797990
1179.649, 0.6472630
1180.131, 0.1737140
1180.613, 0.1433490
1181.095, 0.4218600
1181.578, 0.5945590
1182.060, 0.6041870
1182.542, 0.6589740
1183.024, 0.9067230
1183.506, 1.078766
1183.988, 1.049561
1184.470, 0.9174040
1184.952, 0.9530720
1185.435, 1.103928
1185.917, 1.202690
1186.399, 1.225761
1186.881, 1.105125
1187.363, 0.6094740
1187.845, 0.1754910
1188.327, 1.3412000E-02
1188.809, 7.0381001E-02
1189.292, 0.1843190
1189.774, 0.3437500
1190.256, 0.5028150
1190.738, 0.6613540
1191.220, 0.7734450
1191.702, 0.8353810
1192.184, 0.8148270
1192.666, 0.6205440
1193.148, 0.3201680
1193.630, 0.5383530
1194.113, 1.147957
1194.595, 1.365097
1195.077, 0.5189290
1195.559, 0.1582720
1196.041, 0.2437820
1196.523, 0.8489910
1197.005, 0.9403990
1197.487, 0.5632710
1197.970, 0.5039290
1198.452, 0.7316890
1198.934, 1.027138
1199.416, 1.482956
1199.898, 1.712059
1200.380, 1.355217
1200.862, 0.7989650
1201.344, 0.3717270
1201.827, 6.7116000E-02
1202.309, 7.9437003E-02
1202.791, 0.3831860
1203.273, 0.6457060
1203.755, 0.5471040
1204.237, 0.5025250
1204.719, 0.8672330
1205.201, 1.305016
1205.683, 1.388710
1206.166, 1.122711
1206.648, 0.9431760
1207.130, 0.8634570
1207.612, 0.8024440
1208.094, 0.7038040
1208.576, 0.6159520
1209.058, 0.5565950
1209.540, 0.5282140
1210.022, 0.5677800
1210.505, 0.6730350
1210.987, 0.6274950
1211.469, 0.4138870
1211.951, 0.2332310
1212.433, 0.2391050
1212.915, 0.2928770
1213.397, 0.2967830
1213.879, 0.3122480
1214.362, 0.5166090
1214.844, 0.8821790
1215.326, 0.9209520
1215.808, 0.5748670
1216.290, 0.2572250
1216.772, 0.1878200
1217.254, 0.2978440
1217.736, 0.6556780
1218.219, 1.106972
1218.701, 1.341553
1219.183, 1.371475
1219.665, 1.326378
1220.147, 1.217400
1220.629, 1.150360
1221.111, 1.345749
1221.593, 1.492851
1222.075, 1.396858
1222.557, 1.130371
1223.040, 0.8296740
1223.522, 0.5163350
1224.004, 0.3606570
1224.486, 0.4071430
1224.968, 0.5272900
1225.450, 0.7724990
1225.932, 0.9222110
1226.414, 0.8271940
1226.897, 0.5808870
1227.379, 0.4401470
1227.861, 0.4008330
1228.343, 0.4667820
1228.825, 0.6668170
1229.307, 0.7804870
1229.789, 0.4839780
1230.271, 0.3051760
1230.754, 0.6354220
1231.236, 1.228966
1231.718, 0.9517060
1232.200, 7.7454001E-02
1232.682, 0.2325060
1233.164, 0.4550480
1233.646, 1.019012
1234.128, 0.7637560
1234.610, 0.4210280
1235.093, 0.3120880
1235.575, 0.3750000
1236.057, 0.4407580
1236.539, 0.5283740
1237.021, 0.6507110
1237.503, 0.8433760
1237.985, 0.9524230
1238.467, 0.8769910
1238.949, 0.7515110
1239.432, 0.5951160
1239.914, 0.4537280
1240.396, 0.5149080
1240.878, 0.7065050
1241.360, 0.8304670
1241.842, 0.8262410
1242.324, 0.7480700
1242.806, 0.5513080
1243.289, 0.3835450
1243.771, 0.2806170
1244.253, 0.2739640
1244.735, 0.5280840
1245.217, 0.9342420
1245.699, 1.238586
1246.181, 1.399872
1246.663, 1.326241
1247.146, 0.8729630
1247.628, 0.5247500
1248.110, 0.6039430
1248.592, 0.8961180
1249.074, 0.9342880
1249.556, 0.7954250
1250.038, 0.6081620
1250.520, 0.2917180
1251.002, 0.2886960
1251.484, 0.7345810
1251.967, 1.100647
1252.449, 1.005730
1252.931, 0.7192150
1253.413, 0.6506580
1253.895, 0.7114640
1254.377, 0.7456210
1254.859, 0.6936720
1255.341, 0.7093890
1255.824, 0.8137360
1256.306, 0.8824080
1256.788, 0.8073270
1257.270, 0.7002640
1257.752, 0.7572780
1258.234, 0.8510670
1258.716, 0.7229230
1259.198, 0.2018050
1259.681, 0.2065960
1260.163, 0.8052670
1260.645, 1.288773
1261.127, 1.228081
1261.609, 0.9213330
1262.091, 0.3835530
1262.573, 9.1132998E-02
1263.055, 3.4508001E-02
1263.537, 0.6743090
1264.020, 0.9341280
1264.502, 0.7519150
1264.984, 0.5574800
1265.466, 0.5598070
1265.948, 0.6791310
1266.430, 1.003746
1266.912, 1.297462
1267.394, 1.349617
1267.876, 1.134613
1268.359, 0.8952030
1268.841, 0.6446080
1269.323, 0.5026470
1269.805, 0.5616990
1270.287, 0.7084050
1270.769, 0.9710770
1271.251, 1.236282
1271.733, 1.461876
1272.216, 1.626923
1272.698, 1.481377
1273.180, 1.088577
1273.662, 0.7449720
1274.144, 0.6082690
1274.626, 0.5024410
1275.108, 0.3540730
1275.590, 0.2665250
1276.073, 0.3606340
1276.555, 0.5741810
1277.037, 0.7287980
1277.519, 0.8176270
1278.001, 0.8221440
1278.483, 0.6497500
1278.965, 0.5218580
1279.447, 0.4578550
1279.929, 0.4238430
1280.411, 0.4339520
1280.894, 0.4358830
1281.376, 0.2159650
1281.858, 9.5931999E-02
1282.340, 9.0476997E-02
1282.822, 0.5773090
1283.304, 0.8903120
1283.786, 0.7763060
1284.268, 0.6688080
1284.751, 1.018257
1285.233, 1.398537
1285.715, 1.219894
1286.197, 0.7544780
1286.679, 0.4875260
1287.161, 0.5180890
1287.643, 0.3771900
1288.125, 4.8988000E-02
1288.608, 7.2838001E-02
1289.090, 0.4620590
1289.572, 1.051559
1290.054, 1.273483
1290.536, 1.299217
1291.018, 1.352112
1291.500, 1.330711
1291.982, 1.428673
1292.464, 1.521088
1292.947, 1.437645
1293.429, 0.8432310
1293.911, 0.3934480
1294.393, 0.5357890
1294.875, 0.6925280
1295.357, 0.5753170
1295.839, 0.1985860
1296.321, 0.3079760
1296.803, 0.7413020
1297.286, 0.9381640
1297.768, 0.4639050
1298.250, 0.1126710
1298.732, 4.6999999E-03
1299.214, 4.6875000E-02
1299.696, 0.1085890
1300.178, 0.0000000E+00
##END=



