##NAMES=Parasymplesite
##RRUFFID=R150137
##IDEAL CHEMISTRY=Fe^2+^_3_(As^5+^O_4_)_2_&#183;8H_2_O
##LOCALITY=Kiura Mine, Oita Pref., Kyushu Island, Japan
##OWNER=RRUFF
##SOURCE=Jeremie Pfister
##DESCRIPTION=Aggregates of dark-bluish grey euhedral crystals, associated with smoky scorodite.
##STATUS=The identification of this mineral has been confirmed by single-crystal X-ray diffraction.
##URL=rruff.info/R150137
8.813672e+001, 5.220860e+001
8.861884e+001, 5.288411e+001
8.910095e+001, 5.354675e+001
8.958307e+001, 5.420110e+001
9.006519e+001, 5.507475e+001
9.054730e+001, 5.649189e+001
9.102942e+001, 5.889145e+001
9.151154e+001, 6.104517e+001
9.199365e+001, 6.128149e+001
9.247577e+001, 5.990395e+001
9.295789e+001, 5.844493e+001
9.344000e+001, 5.809167e+001
9.392212e+001, 5.845996e+001
9.440424e+001, 5.854691e+001
9.488635e+001, 5.818089e+001
9.536847e+001, 5.756171e+001
9.585059e+001, 5.704060e+001
9.633270e+001, 5.660259e+001
9.681482e+001, 5.630703e+001
9.729694e+001, 5.613515e+001
9.777905e+001, 5.608541e+001
9.826117e+001, 5.646285e+001
9.874329e+001, 5.758786e+001
9.922540e+001, 5.927738e+001
9.970752e+001, 6.012342e+001
1.001896e+002, 5.992921e+001
1.006718e+002, 5.931991e+001
1.011539e+002, 5.904166e+001
1.016360e+002, 5.912908e+001
1.021181e+002, 5.940081e+001
1.026002e+002, 5.982994e+001
1.030823e+002, 6.044469e+001
1.035645e+002, 6.098297e+001
1.040466e+002, 6.121766e+001
1.045287e+002, 6.152056e+001
1.050108e+002, 6.266600e+001
1.054929e+002, 6.515026e+001
1.059750e+002, 6.773762e+001
1.064572e+002, 7.002811e+001
1.069393e+002, 7.243567e+001
1.074214e+002, 7.382836e+001
1.079035e+002, 7.384618e+001
1.083856e+002, 7.282374e+001
1.088677e+002, 7.192101e+001
1.093499e+002, 7.088451e+001
1.098320e+002, 7.014534e+001
1.103141e+002, 6.988647e+001
1.107962e+002, 7.059998e+001
1.112783e+002, 7.123349e+001
1.117604e+002, 7.157219e+001
1.122426e+002, 7.169218e+001
1.127247e+002, 7.209878e+001
1.132068e+002, 7.298425e+001
1.136889e+002, 7.412160e+001
1.141710e+002, 7.534672e+001
1.146531e+002, 7.694687e+001
1.151353e+002, 7.832188e+001
1.156174e+002, 7.916667e+001
1.160995e+002, 7.947785e+001
1.165816e+002, 7.995327e+001
1.170637e+002, 8.133614e+001
1.175458e+002, 8.286263e+001
1.180280e+002, 8.371738e+001
1.185101e+002, 8.277869e+001
1.189922e+002, 8.163352e+001
1.194743e+002, 8.125427e+001
1.199564e+002, 8.175789e+001
1.204385e+002, 8.249721e+001
1.209207e+002, 8.289502e+001
1.214028e+002, 8.326287e+001
1.218849e+002, 8.414634e+001
1.223670e+002, 8.677133e+001
1.228491e+002, 8.963011e+001
1.233312e+002, 9.098994e+001
1.238134e+002, 9.042222e+001
1.242955e+002, 8.926173e+001
1.247776e+002, 8.859319e+001
1.252597e+002, 8.833517e+001
1.257418e+002, 8.820889e+001
1.262239e+002, 8.801359e+001
1.267061e+002, 8.784049e+001
1.271882e+002, 8.782883e+001
1.276703e+002, 8.794784e+001
1.281524e+002, 8.834170e+001
1.286345e+002, 8.938097e+001
1.291166e+002, 9.101315e+001
1.295988e+002, 9.267051e+001
1.300809e+002, 9.406860e+001
1.305630e+002, 9.517535e+001
1.310451e+002, 9.583296e+001
1.315272e+002, 9.586557e+001
1.320094e+002, 9.552608e+001
1.324915e+002, 9.537073e+001
1.329736e+002, 9.540616e+001
1.334557e+002, 9.556392e+001
1.339378e+002, 9.584514e+001
1.344199e+002, 9.624480e+001
1.349021e+002, 9.651433e+001
1.353842e+002, 9.646335e+001
1.358663e+002, 9.622319e+001
1.363484e+002, 9.651990e+001
1.368305e+002, 9.743583e+001
1.373126e+002, 9.867277e+001
1.377948e+002, 1.000276e+002
1.382769e+002, 1.015949e+002
1.387590e+002, 1.028069e+002
1.392411e+002, 1.034859e+002
1.397232e+002, 1.036296e+002
1.402053e+002, 1.034419e+002
1.406875e+002, 1.028476e+002
1.411696e+002, 1.020199e+002
1.416517e+002, 1.011790e+002
1.421338e+002, 1.002976e+002
1.426159e+002, 9.945844e+001
1.430980e+002, 9.862995e+001
1.435802e+002, 9.775143e+001
1.440623e+002, 9.724703e+001
1.445444e+002, 9.721509e+001
1.450265e+002, 9.750899e+001
1.455086e+002, 9.790315e+001
1.459907e+002, 9.856219e+001
1.464729e+002, 9.911569e+001
1.469550e+002, 9.947437e+001
1.474371e+002, 9.970128e+001
1.479192e+002, 9.957140e+001
1.484013e+002, 9.879417e+001
1.488834e+002, 9.769381e+001
1.493656e+002, 9.697062e+001
1.498477e+002, 9.685558e+001
1.503298e+002, 9.692550e+001
1.508119e+002, 9.703609e+001
1.512940e+002, 9.721069e+001
1.517761e+002, 9.738966e+001
1.522583e+002, 9.764249e+001
1.527404e+002, 9.790638e+001
1.532225e+002, 9.800282e+001
1.537046e+002, 9.765093e+001
1.541867e+002, 9.731785e+001
1.546688e+002, 9.723045e+001
1.551510e+002, 9.789581e+001
1.556331e+002, 9.821413e+001
1.561152e+002, 9.776997e+001
1.565973e+002, 9.676834e+001
1.570794e+002, 9.602437e+001
1.575615e+002, 9.591343e+001
1.580437e+002, 9.598592e+001
1.585258e+002, 9.596330e+001
1.590079e+002, 9.573512e+001
1.594900e+002, 9.545914e+001
1.599721e+002, 9.508761e+001
1.604542e+002, 9.466125e+001
1.609364e+002, 9.441687e+001
1.614185e+002, 9.458714e+001
1.619006e+002, 9.490366e+001
1.623827e+002, 9.515054e+001
1.628648e+002, 9.521336e+001
1.633469e+002, 9.523808e+001
1.638291e+002, 9.534764e+001
1.643112e+002, 9.551897e+001
1.647933e+002, 9.552703e+001
1.652754e+002, 9.507093e+001
1.657575e+002, 9.446004e+001
1.662396e+002, 9.401951e+001
1.667218e+002, 9.407658e+001
1.672039e+002, 9.418098e+001
1.676860e+002, 9.393841e+001
1.681681e+002, 9.336327e+001
1.686502e+002, 9.296877e+001
1.691323e+002, 9.320377e+001
1.696145e+002, 9.379603e+001
1.700966e+002, 9.437436e+001
1.705787e+002, 9.503212e+001
1.710608e+002, 9.546801e+001
1.715429e+002, 9.524612e+001
1.720250e+002, 9.432732e+001
1.725072e+002, 9.347086e+001
1.729893e+002, 9.332033e+001
1.734714e+002, 9.362788e+001
1.739535e+002, 9.393508e+001
1.744356e+002, 9.403606e+001
1.749177e+002, 9.403040e+001
1.753999e+002, 9.403464e+001
1.758820e+002, 9.405454e+001
1.763641e+002, 9.406215e+001
1.768462e+002, 9.397520e+001
1.773283e+002, 9.384658e+001
1.778104e+002, 9.381416e+001
1.782926e+002, 9.406088e+001
1.787747e+002, 9.441276e+001
1.792568e+002, 9.455661e+001
1.797389e+002, 9.445383e+001
1.802210e+002, 9.428661e+001
1.807031e+002, 9.428261e+001
1.811853e+002, 9.439624e+001
1.816674e+002, 9.446355e+001
1.821495e+002, 9.444789e+001
1.826316e+002, 9.432377e+001
1.831137e+002, 9.392215e+001
1.835958e+002, 9.314436e+001
1.840780e+002, 9.245121e+001
1.845601e+002, 9.262278e+001
1.850422e+002, 9.352932e+001
1.855243e+002, 9.432068e+001
1.860064e+002, 9.442931e+001
1.864885e+002, 9.403905e+001
1.869707e+002, 9.380675e+001
1.874528e+002, 9.379774e+001
1.879349e+002, 9.387745e+001
1.884170e+002, 9.385252e+001
1.888991e+002, 9.372648e+001
1.893812e+002, 9.355925e+001
1.898634e+002, 9.333786e+001
1.903455e+002, 9.308298e+001
1.908276e+002, 9.292441e+001
1.913097e+002, 9.287542e+001
1.917918e+002, 9.290675e+001
1.922739e+002, 9.297665e+001
1.927561e+002, 9.308578e+001
1.932382e+002, 9.321700e+001
1.937203e+002, 9.342844e+001
1.942024e+002, 9.369990e+001
1.946845e+002, 9.371874e+001
1.951666e+002, 9.337917e+001
1.956488e+002, 9.291036e+001
1.961309e+002, 9.279319e+001
1.966130e+002, 9.306353e+001
1.970951e+002, 9.338960e+001
1.975772e+002, 9.364365e+001
1.980593e+002, 9.382765e+001
1.985415e+002, 9.375654e+001
1.990236e+002, 9.330961e+001
1.995057e+002, 9.273299e+001
1.999878e+002, 9.265809e+001
2.004699e+002, 9.317800e+001
2.009520e+002, 9.373854e+001
2.014342e+002, 9.400387e+001
2.019163e+002, 9.395100e+001
2.023984e+002, 9.389029e+001
2.028805e+002, 9.380701e+001
2.033626e+002, 9.375710e+001
2.038447e+002, 9.399019e+001
2.043269e+002, 9.464997e+001
2.048090e+002, 9.507471e+001
2.052911e+002, 9.469524e+001
2.057732e+002, 9.330889e+001
2.062553e+002, 9.252029e+001
2.067374e+002, 9.259026e+001
2.072196e+002, 9.321004e+001
2.077017e+002, 9.353748e+001
2.081838e+002, 9.350384e+001
2.086659e+002, 9.336834e+001
2.091480e+002, 9.328176e+001
2.096301e+002, 9.327116e+001
2.101123e+002, 9.317211e+001
2.105944e+002, 9.293563e+001
2.110765e+002, 9.262535e+001
2.115586e+002, 9.243023e+001
2.120407e+002, 9.238362e+001
2.125229e+002, 9.237693e+001
2.130050e+002, 9.233782e+001
2.134871e+002, 9.223263e+001
2.139692e+002, 9.221642e+001
2.144513e+002, 9.229222e+001
2.149334e+002, 9.246303e+001
2.154156e+002, 9.280267e+001
2.158977e+002, 9.348225e+001
2.163798e+002, 9.399187e+001
2.168619e+002, 9.398186e+001
2.173440e+002, 9.321767e+001
2.178261e+002, 9.266917e+001
2.183083e+002, 9.242515e+001
2.187904e+002, 9.241179e+001
2.192725e+002, 9.241616e+001
2.197546e+002, 9.242810e+001
2.202367e+002, 9.247538e+001
2.207188e+002, 9.260329e+001
2.212010e+002, 9.291767e+001
2.216831e+002, 9.301601e+001
2.221652e+002, 9.279370e+001
2.226473e+002, 9.237624e+001
2.231294e+002, 9.212840e+001
2.236115e+002, 9.206853e+001
2.240937e+002, 9.214744e+001
2.245758e+002, 9.237871e+001
2.250579e+002, 9.289089e+001
2.255400e+002, 9.323781e+001
2.260221e+002, 9.339524e+001
2.265042e+002, 9.338892e+001
2.269864e+002, 9.325101e+001
2.274685e+002, 9.282967e+001
2.279506e+002, 9.251054e+001
2.284327e+002, 9.248293e+001
2.289148e+002, 9.287367e+001
2.293969e+002, 9.326568e+001
2.298791e+002, 9.366992e+001
2.303612e+002, 9.406814e+001
2.308433e+002, 9.442701e+001
2.313254e+002, 9.480830e+001
2.318075e+002, 9.505857e+001
2.322896e+002, 9.509464e+001
2.327718e+002, 9.482437e+001
2.332539e+002, 9.455337e+001
2.337360e+002, 9.424537e+001
2.342181e+002, 9.395176e+001
2.347002e+002, 9.379932e+001
2.351823e+002, 9.384843e+001
2.356645e+002, 9.394791e+001
2.361466e+002, 9.405112e+001
2.366287e+002, 9.418652e+001
2.371108e+002, 9.423918e+001
2.375929e+002, 9.416143e+001
2.380750e+002, 9.402003e+001
2.385572e+002, 9.396076e+001
2.390393e+002, 9.404872e+001
2.395214e+002, 9.411748e+001
2.400035e+002, 9.410081e+001
2.404856e+002, 9.396318e+001
2.409677e+002, 9.384956e+001
2.414499e+002, 9.375047e+001
2.419320e+002, 9.368335e+001
2.424141e+002, 9.369715e+001
2.428962e+002, 9.390652e+001
2.433783e+002, 9.401344e+001
2.438604e+002, 9.388533e+001
2.443426e+002, 9.342535e+001
2.448247e+002, 9.309526e+001
2.453068e+002, 9.292970e+001
2.457889e+002, 9.287352e+001
2.462710e+002, 9.282352e+001
2.467531e+002, 9.270023e+001
2.472353e+002, 9.272382e+001
2.477174e+002, 9.303795e+001
2.481995e+002, 9.376302e+001
2.486816e+002, 9.413752e+001
2.491637e+002, 9.402449e+001
2.496458e+002, 9.366148e+001
2.501280e+002, 9.337326e+001
2.506101e+002, 9.315935e+001
2.510922e+002, 9.301552e+001
2.515743e+002, 9.295918e+001
2.520564e+002, 9.300557e+001
2.525385e+002, 9.301974e+001
2.530207e+002, 9.301094e+001
2.535028e+002, 9.296050e+001
2.539849e+002, 9.281170e+001
2.544670e+002, 9.242181e+001
2.549491e+002, 9.224266e+001
2.554312e+002, 9.247865e+001
2.559134e+002, 9.316770e+001
2.563955e+002, 9.353149e+001
2.568776e+002, 9.345735e+001
2.573597e+002, 9.318273e+001
2.578418e+002, 9.295621e+001
2.583239e+002, 9.281068e+001
2.588061e+002, 9.262312e+001
2.592882e+002, 9.233056e+001
2.597703e+002, 9.193552e+001
2.602524e+002, 9.169238e+001
2.607345e+002, 9.160986e+001
2.612166e+002, 9.166305e+001
2.616988e+002, 9.187837e+001
2.621809e+002, 9.236475e+001
2.626630e+002, 9.267935e+001
2.631451e+002, 9.267602e+001
2.636272e+002, 9.240484e+001
2.641093e+002, 9.234988e+001
2.645915e+002, 9.262099e+001
2.650736e+002, 9.291563e+001
2.655557e+002, 9.299241e+001
2.660378e+002, 9.280382e+001
2.665199e+002, 9.256223e+001
2.670020e+002, 9.228745e+001
2.674842e+002, 9.198194e+001
2.679663e+002, 9.164046e+001
2.684484e+002, 9.120356e+001
2.689305e+002, 9.086649e+001
2.694126e+002, 9.080162e+001
2.698947e+002, 9.107809e+001
2.703769e+002, 9.132368e+001
2.708590e+002, 9.150786e+001
2.713411e+002, 9.163647e+001
2.718232e+002, 9.173970e+001
2.723053e+002, 9.184350e+001
2.727874e+002, 9.184243e+001
2.732696e+002, 9.158128e+001
2.737517e+002, 9.097338e+001
2.742338e+002, 9.072257e+001
2.747159e+002, 9.097461e+001
2.751980e+002, 9.150209e+001
2.756801e+002, 9.176347e+001
2.761623e+002, 9.171517e+001
2.766444e+002, 9.159959e+001
2.771265e+002, 9.154798e+001
2.776086e+002, 9.156983e+001
2.780907e+002, 9.151934e+001
2.785728e+002, 9.138532e+001
2.790550e+002, 9.119102e+001
2.795371e+002, 9.095931e+001
2.800192e+002, 9.068298e+001
2.805013e+002, 9.042713e+001
2.809834e+002, 9.019270e+001
2.814655e+002, 8.998203e+001
2.819477e+002, 8.995361e+001
2.824298e+002, 9.016962e+001
2.829119e+002, 9.040208e+001
2.833940e+002, 9.021492e+001
2.838761e+002, 8.959165e+001
2.843582e+002, 8.921291e+001
2.848404e+002, 8.952627e+001
2.853225e+002, 9.035815e+001
2.858046e+002, 9.059399e+001
2.862867e+002, 9.015388e+001
2.867688e+002, 8.948347e+001
2.872509e+002, 8.902808e+001
2.877331e+002, 8.878140e+001
2.882152e+002, 8.866277e+001
2.886973e+002, 8.871319e+001
2.891794e+002, 8.885783e+001
2.896615e+002, 8.882360e+001
2.901436e+002, 8.859809e+001
2.906258e+002, 8.835509e+001
2.911079e+002, 8.828635e+001
2.915900e+002, 8.835586e+001
2.920721e+002, 8.835841e+001
2.925542e+002, 8.822210e+001
2.930363e+002, 8.801064e+001
2.935185e+002, 8.786312e+001
2.940006e+002, 8.777742e+001
2.944827e+002, 8.767863e+001
2.949648e+002, 8.747923e+001
2.954469e+002, 8.721358e+001
2.959290e+002, 8.699951e+001
2.964112e+002, 8.687348e+001
2.968933e+002, 8.677621e+001
2.973754e+002, 8.655082e+001
2.978575e+002, 8.623433e+001
2.983396e+002, 8.605660e+001
2.988217e+002, 8.628458e+001
2.993039e+002, 8.674262e+001
2.997860e+002, 8.708737e+001
3.002681e+002, 8.727452e+001
3.007502e+002, 8.734647e+001
3.012323e+002, 8.734818e+001
3.017144e+002, 8.727388e+001
3.021966e+002, 8.710760e+001
3.026787e+002, 8.670850e+001
3.031608e+002, 8.626121e+001
3.036429e+002, 8.607978e+001
3.041250e+002, 8.623228e+001
3.046071e+002, 8.633829e+001
3.050893e+002, 8.585001e+001
3.055714e+002, 8.505624e+001
3.060535e+002, 8.457888e+001
3.065356e+002, 8.502022e+001
3.070177e+002, 8.570712e+001
3.074998e+002, 8.596117e+001
3.079820e+002, 8.576477e+001
3.084641e+002, 8.549582e+001
3.089462e+002, 8.543800e+001
3.094283e+002, 8.547025e+001
3.099104e+002, 8.542807e+001
3.103925e+002, 8.517085e+001
3.108747e+002, 8.488413e+001
3.113568e+002, 8.465415e+001
3.118389e+002, 8.448949e+001
3.123210e+002, 8.445109e+001
3.128031e+002, 8.465845e+001
3.132852e+002, 8.496955e+001
3.137674e+002, 8.525847e+001
3.142495e+002, 8.555550e+001
3.147316e+002, 8.573534e+001
3.152137e+002, 8.566007e+001
3.156958e+002, 8.539594e+001
3.161779e+002, 8.516617e+001
3.166601e+002, 8.504650e+001
3.171422e+002, 8.500178e+001
3.176243e+002, 8.503544e+001
3.181064e+002, 8.523470e+001
3.185885e+002, 8.532300e+001
3.190706e+002, 8.511124e+001
3.195528e+002, 8.472964e+001
3.200349e+002, 8.443092e+001
3.205170e+002, 8.428658e+001
3.209991e+002, 8.423984e+001
3.214812e+002, 8.431246e+001
3.219633e+002, 8.457471e+001
3.224455e+002, 8.469315e+001
3.229276e+002, 8.448486e+001
3.234097e+002, 8.413625e+001
3.238918e+002, 8.387642e+001
3.243739e+002, 8.382641e+001
3.248560e+002, 8.378528e+001
3.253382e+002, 8.366119e+001
3.258203e+002, 8.342679e+001
3.263024e+002, 8.336246e+001
3.267845e+002, 8.375523e+001
3.272666e+002, 8.418106e+001
3.277487e+002, 8.430139e+001
3.282309e+002, 8.378918e+001
3.287130e+002, 8.335053e+001
3.291951e+002, 8.303850e+001
3.296772e+002, 8.285113e+001
3.301593e+002, 8.277435e+001
3.306414e+002, 8.287637e+001
3.311236e+002, 8.302371e+001
3.316057e+002, 8.315249e+001
3.320878e+002, 8.330510e+001
3.325699e+002, 8.335704e+001
3.330520e+002, 8.327193e+001
3.335341e+002, 8.308802e+001
3.340163e+002, 8.289870e+001
3.344984e+002, 8.265659e+001
3.349805e+002, 8.249129e+001
3.354626e+002, 8.249348e+001
3.359448e+002, 8.275351e+001
3.364269e+002, 8.280848e+001
3.369090e+002, 8.256239e+001
3.373911e+002, 8.221146e+001
3.378732e+002, 8.209020e+001
3.383553e+002, 8.226670e+001
3.388375e+002, 8.243909e+001
3.393196e+002, 8.251552e+001
3.398017e+002, 8.249907e+001
3.402838e+002, 8.247545e+001
3.407659e+002, 8.244699e+001
3.412480e+002, 8.240759e+001
3.417302e+002, 8.233801e+001
3.422123e+002, 8.223450e+001
3.426944e+002, 8.217204e+001
3.431765e+002, 8.220335e+001
3.436586e+002, 8.227000e+001
3.441407e+002, 8.213393e+001
3.446229e+002, 8.177776e+001
3.451050e+002, 8.142488e+001
3.455871e+002, 8.122090e+001
3.460692e+002, 8.116161e+001
3.465513e+002, 8.126610e+001
3.470334e+002, 8.158656e+001
3.475156e+002, 8.196442e+001
3.479977e+002, 8.212617e+001
3.484798e+002, 8.208977e+001
3.489619e+002, 8.199283e+001
3.494440e+002, 8.189523e+001
3.499261e+002, 8.179695e+001
3.504083e+002, 8.168237e+001
3.508904e+002, 8.154222e+001
3.513725e+002, 8.144255e+001
3.518546e+002, 8.145272e+001
3.523367e+002, 8.155806e+001
3.528188e+002, 8.171883e+001
3.533010e+002, 8.208286e+001
3.537831e+002, 8.240690e+001
3.542652e+002, 8.230633e+001
3.547473e+002, 8.180147e+001
3.552294e+002, 8.133047e+001
3.557115e+002, 8.125443e+001
3.561937e+002, 8.139040e+001
3.566758e+002, 8.151092e+001
3.571579e+002, 8.161873e+001
3.576400e+002, 8.160577e+001
3.581221e+002, 8.123978e+001
3.586042e+002, 8.064649e+001
3.590864e+002, 8.026637e+001
3.595685e+002, 8.056449e+001
3.600506e+002, 8.101017e+001
3.605327e+002, 8.117587e+001
3.610148e+002, 8.086187e+001
3.614969e+002, 8.061094e+001
3.619791e+002, 8.074881e+001
3.624612e+002, 8.108282e+001
3.629433e+002, 8.128905e+001
3.634254e+002, 8.119227e+001
3.639075e+002, 8.101617e+001
3.643896e+002, 8.079629e+001
3.648718e+002, 8.050998e+001
3.653539e+002, 8.038953e+001
3.658360e+002, 8.064626e+001
3.663181e+002, 8.100966e+001
3.668002e+002, 8.123716e+001
3.672823e+002, 8.124623e+001
3.677645e+002, 8.117843e+001
3.682466e+002, 8.100359e+001
3.687287e+002, 8.073624e+001
3.692108e+002, 8.055141e+001
3.696929e+002, 8.049330e+001
3.701750e+002, 8.047766e+001
3.706572e+002, 8.046690e+001
3.711393e+002, 8.049123e+001
3.716214e+002, 8.046561e+001
3.721035e+002, 8.035790e+001
3.725856e+002, 8.021080e+001
3.730677e+002, 8.013584e+001
3.735499e+002, 8.020251e+001
3.740320e+002, 8.020710e+001
3.745141e+002, 8.004659e+001
3.749962e+002, 7.969149e+001
3.754783e+002, 7.943214e+001
3.759604e+002, 7.926075e+001
3.764426e+002, 7.920144e+001
3.769247e+002, 7.938084e+001
3.774068e+002, 7.988106e+001
3.778889e+002, 8.007287e+001
3.783710e+002, 7.967192e+001
3.788531e+002, 7.886698e+001
3.793353e+002, 7.848266e+001
3.798174e+002, 7.856737e+001
3.802995e+002, 7.876210e+001
3.807816e+002, 7.879487e+001
3.812637e+002, 7.868407e+001
3.817458e+002, 7.856986e+001
3.822280e+002, 7.845589e+001
3.827101e+002, 7.837669e+001
3.831922e+002, 7.844507e+001
3.836743e+002, 7.863169e+001
3.841564e+002, 7.872815e+001
3.846385e+002, 7.850571e+001
3.851207e+002, 7.813837e+001
3.856028e+002, 7.801807e+001
3.860849e+002, 7.818085e+001
3.865670e+002, 7.836314e+001
3.870491e+002, 7.826421e+001
3.875313e+002, 7.801035e+001
3.880134e+002, 7.785267e+001
3.884955e+002, 7.792574e+001
3.889776e+002, 7.809770e+001
3.894597e+002, 7.832540e+001
3.899418e+002, 7.858039e+001
3.904240e+002, 7.869275e+001
3.909061e+002, 7.838997e+001
3.913882e+002, 7.798607e+001
3.918703e+002, 7.778121e+001
3.923524e+002, 7.791093e+001
3.928345e+002, 7.808445e+001
3.933167e+002, 7.813918e+001
3.937988e+002, 7.813964e+001
3.942809e+002, 7.821407e+001
3.947630e+002, 7.856630e+001
3.952451e+002, 7.886243e+001
3.957272e+002, 7.894621e+001
3.962094e+002, 7.877819e+001
3.966915e+002, 7.856069e+001
3.971736e+002, 7.817552e+001
3.976557e+002, 7.783207e+001
3.981378e+002, 7.772240e+001
3.986199e+002, 7.815407e+001
3.991021e+002, 7.849544e+001
3.995842e+002, 7.867307e+001
4.000663e+002, 7.869640e+001
4.005484e+002, 7.862297e+001
4.010305e+002, 7.837991e+001
4.015126e+002, 7.811911e+001
4.019948e+002, 7.790321e+001
4.024769e+002, 7.770667e+001
4.029590e+002, 7.763783e+001
4.034411e+002, 7.777464e+001
4.039232e+002, 7.798379e+001
4.044053e+002, 7.801009e+001
4.048875e+002, 7.778852e+001
4.053696e+002, 7.758608e+001
4.058517e+002, 7.749844e+001
4.063338e+002, 7.751744e+001
4.068159e+002, 7.748495e+001
4.072980e+002, 7.738116e+001
4.077802e+002, 7.729652e+001
4.082623e+002, 7.734516e+001
4.087444e+002, 7.751937e+001
4.092265e+002, 7.764440e+001
4.097086e+002, 7.767709e+001
4.101907e+002, 7.765476e+001
4.106729e+002, 7.763969e+001
4.111550e+002, 7.763236e+001
4.116371e+002, 7.765012e+001
4.121192e+002, 7.769188e+001
4.126013e+002, 7.776653e+001
4.130834e+002, 7.791565e+001
4.135656e+002, 7.815176e+001
4.140477e+002, 7.838024e+001
4.145298e+002, 7.856609e+001
4.150119e+002, 7.867471e+001
4.154940e+002, 7.863866e+001
4.159761e+002, 7.829158e+001
4.164583e+002, 7.789365e+001
4.169404e+002, 7.768138e+001
4.174225e+002, 7.763122e+001
4.179046e+002, 7.760471e+001
4.183867e+002, 7.740235e+001
4.188688e+002, 7.725879e+001
4.193510e+002, 7.742974e+001
4.198331e+002, 7.820156e+001
4.203152e+002, 7.878069e+001
4.207973e+002, 7.875954e+001
4.212794e+002, 7.835853e+001
4.217615e+002, 7.798007e+001
4.222437e+002, 7.754398e+001
4.227258e+002, 7.731966e+001
4.232079e+002, 7.746682e+001
4.236900e+002, 7.804481e+001
4.241721e+002, 7.855711e+001
4.246542e+002, 7.913679e+001
4.251364e+002, 7.953377e+001
4.256185e+002, 7.954784e+001
4.261006e+002, 7.878154e+001
4.265827e+002, 7.824052e+001
4.270648e+002, 7.802494e+001
4.275469e+002, 7.808443e+001
4.280291e+002, 7.829212e+001
4.285112e+002, 7.877356e+001
4.289933e+002, 7.915287e+001
4.294754e+002, 7.922153e+001
4.299575e+002, 7.892341e+001
4.304396e+002, 7.871020e+001
4.309218e+002, 7.857793e+001
4.314039e+002, 7.853233e+001
4.318860e+002, 7.861937e+001
4.323681e+002, 7.884551e+001
4.328502e+002, 7.902879e+001
4.333323e+002, 7.911097e+001
4.338145e+002, 7.912716e+001
4.342966e+002, 7.917817e+001
4.347787e+002, 7.926424e+001
4.352608e+002, 7.932908e+001
4.357429e+002, 7.927466e+001
4.362250e+002, 7.917307e+001
4.367072e+002, 7.925101e+001
4.371893e+002, 7.958432e+001
4.376714e+002, 7.988870e+001
4.381535e+002, 7.975860e+001
4.386356e+002, 7.936559e+001
4.391177e+002, 7.908762e+001
4.395999e+002, 7.919109e+001
4.400820e+002, 7.941061e+001
4.405641e+002, 7.949538e+001
4.410462e+002, 7.946170e+001
4.415283e+002, 7.951375e+001
4.420104e+002, 7.997331e+001
4.424926e+002, 8.044935e+001
4.429747e+002, 8.057710e+001
4.434568e+002, 8.004556e+001
4.439389e+002, 7.959103e+001
4.444210e+002, 7.942657e+001
4.449031e+002, 7.949348e+001
4.453853e+002, 7.968075e+001
4.458674e+002, 8.028987e+001
4.463495e+002, 8.070554e+001
4.468316e+002, 8.066175e+001
4.473137e+002, 8.006596e+001
4.477958e+002, 7.964424e+001
4.482780e+002, 7.944124e+001
4.487601e+002, 7.938051e+001
4.492422e+002, 7.941290e+001
4.497243e+002, 7.955836e+001
4.502064e+002, 7.976899e+001
4.506885e+002, 8.008863e+001
4.511707e+002, 8.045351e+001
4.516528e+002, 8.068258e+001
4.521349e+002, 8.076134e+001
4.526170e+002, 8.075960e+001
4.530991e+002, 8.069486e+001
4.535812e+002, 8.056702e+001
4.540634e+002, 8.039466e+001
4.545455e+002, 8.015663e+001
4.550276e+002, 7.996089e+001
4.555097e+002, 7.993350e+001
4.559918e+002, 8.005701e+001
4.564739e+002, 8.025092e+001
4.569561e+002, 8.054944e+001
4.574382e+002, 8.083222e+001
4.579203e+002, 8.087009e+001
4.584024e+002, 8.070628e+001
4.588845e+002, 8.054112e+001
4.593666e+002, 8.048913e+001
4.598488e+002, 8.050762e+001
4.603309e+002, 8.057473e+001
4.608130e+002, 8.069634e+001
4.612951e+002, 8.076414e+001
4.617772e+002, 8.063826e+001
4.622593e+002, 8.043745e+001
4.627415e+002, 8.030370e+001
4.632236e+002, 8.037330e+001
4.637057e+002, 8.042735e+001
4.641878e+002, 8.036353e+001
4.646699e+002, 8.021165e+001
4.651520e+002, 8.007369e+001
4.656342e+002, 7.987405e+001
4.661163e+002, 7.978278e+001
4.665984e+002, 7.991277e+001
4.670805e+002, 8.040129e+001
4.675626e+002, 8.073582e+001
4.680447e+002, 8.083206e+001
4.685269e+002, 8.081638e+001
4.690090e+002, 8.081693e+001
4.694911e+002, 8.086626e+001
4.699732e+002, 8.086134e+001
4.704553e+002, 8.073989e+001
4.709374e+002, 8.055466e+001
4.714196e+002, 8.056144e+001
4.719017e+002, 8.081828e+001
4.723838e+002, 8.108572e+001
4.728659e+002, 8.122559e+001
4.733480e+002, 8.123732e+001
4.738301e+002, 8.126165e+001
4.743123e+002, 8.130123e+001
4.747944e+002, 8.134937e+001
4.752765e+002, 8.138228e+001
4.757586e+002, 8.141015e+001
4.762407e+002, 8.149645e+001
4.767228e+002, 8.170138e+001
4.772050e+002, 8.192962e+001
4.776871e+002, 8.203403e+001
4.781692e+002, 8.202860e+001
4.786513e+002, 8.197491e+001
4.791334e+002, 8.189011e+001
4.796155e+002, 8.178985e+001
4.800977e+002, 8.166085e+001
4.805798e+002, 8.148580e+001
4.810619e+002, 8.141282e+001
4.815440e+002, 8.160741e+001
4.820261e+002, 8.192715e+001
4.825082e+002, 8.220815e+001
4.829904e+002, 8.253408e+001
4.834725e+002, 8.267619e+001
4.839546e+002, 8.242559e+001
4.844367e+002, 8.188818e+001
4.849188e+002, 8.153475e+001
4.854009e+002, 8.162034e+001
4.858831e+002, 8.173275e+001
4.863652e+002, 8.170075e+001
4.868473e+002, 8.146860e+001
4.873294e+002, 8.128470e+001
4.878115e+002, 8.112098e+001
4.882936e+002, 8.102940e+001
4.887758e+002, 8.108208e+001
4.892579e+002, 8.133272e+001
4.897400e+002, 8.156640e+001
4.902221e+002, 8.178674e+001
4.907042e+002, 8.194394e+001
4.911863e+002, 8.179044e+001
4.916685e+002, 8.128236e+001
4.921506e+002, 8.090788e+001
4.926327e+002, 8.108556e+001
4.931148e+002, 8.166310e+001
4.935969e+002, 8.185329e+001
4.940790e+002, 8.161443e+001
4.945612e+002, 8.134502e+001
4.950433e+002, 8.159065e+001
4.955254e+002, 8.209075e+001
4.960075e+002, 8.224911e+001
4.964896e+002, 8.174229e+001
4.969717e+002, 8.108523e+001
4.974539e+002, 8.071992e+001
4.979360e+002, 8.058997e+001
4.984181e+002, 8.056637e+001
4.989002e+002, 8.060731e+001
4.993823e+002, 8.071680e+001
4.998645e+002, 8.096838e+001
5.003466e+002, 8.138839e+001
5.008287e+002, 8.161049e+001
5.013108e+002, 8.136987e+001
5.017929e+002, 8.097451e+001
5.022751e+002, 8.065968e+001
5.027572e+002, 8.027348e+001
5.032393e+002, 8.019767e+001
5.037214e+002, 8.059999e+001
5.042035e+002, 8.127963e+001
5.046856e+002, 8.185036e+001
5.051678e+002, 8.239139e+001
5.056499e+002, 8.265690e+001
5.061320e+002, 8.248959e+001
5.066141e+002, 8.191203e+001
5.070962e+002, 8.156515e+001
5.075783e+002, 8.149177e+001
5.080605e+002, 8.151077e+001
5.085426e+002, 8.150007e+001
5.090247e+002, 8.145991e+001
5.095068e+002, 8.136127e+001
5.099889e+002, 8.117805e+001
5.104710e+002, 8.100834e+001
5.109532e+002, 8.103211e+001
5.114353e+002, 8.119851e+001
5.119174e+002, 8.132096e+001
5.123995e+002, 8.133553e+001
5.128816e+002, 8.125303e+001
5.133637e+002, 8.099567e+001
5.138458e+002, 8.060692e+001
5.143279e+002, 8.035258e+001
5.148101e+002, 8.055286e+001
5.152922e+002, 8.084885e+001
5.157743e+002, 8.094344e+001
5.162564e+002, 8.074787e+001
5.167385e+002, 8.049837e+001
5.172206e+002, 8.024418e+001
5.177028e+002, 7.999197e+001
5.181849e+002, 7.975087e+001
5.186670e+002, 7.938774e+001
5.191491e+002, 7.919632e+001
5.196312e+002, 7.932786e+001
5.201133e+002, 7.968449e+001
5.205955e+002, 7.985093e+001
5.210776e+002, 7.976970e+001
5.215597e+002, 7.959639e+001
5.220418e+002, 7.938412e+001
5.225239e+002, 7.913020e+001
5.230060e+002, 7.886913e+001
5.234882e+002, 7.859678e+001
5.239703e+002, 7.832890e+001
5.244524e+002, 7.806093e+001
5.249345e+002, 7.779931e+001
5.254166e+002, 7.763301e+001
5.258987e+002, 7.760977e+001
5.263809e+002, 7.762249e+001
5.268630e+002, 7.746006e+001
5.273451e+002, 7.716911e+001
5.278272e+002, 7.694762e+001
5.283093e+002, 7.700990e+001
5.287914e+002, 7.712127e+001
5.292736e+002, 7.695898e+001
5.297557e+002, 7.654035e+001
5.302378e+002, 7.621544e+001
5.307199e+002, 7.633518e+001
5.312020e+002, 7.654058e+001
5.316841e+002, 7.651595e+001
5.321663e+002, 7.608244e+001
5.326484e+002, 7.568776e+001
5.331305e+002, 7.535993e+001
5.336126e+002, 7.515974e+001
5.340947e+002, 7.517451e+001
5.345768e+002, 7.579055e+001
5.350590e+002, 7.615159e+001
5.355411e+002, 7.603674e+001
5.360232e+002, 7.553250e+001
5.365053e+002, 7.515890e+001
5.369874e+002, 7.495818e+001
5.374695e+002, 7.480653e+001
5.379517e+002, 7.466270e+001
5.384338e+002, 7.452866e+001
5.389159e+002, 7.432700e+001
5.393980e+002, 7.404073e+001
5.398801e+002, 7.375624e+001
5.403622e+002, 7.355907e+001
5.408444e+002, 7.344754e+001
5.413265e+002, 7.341967e+001
5.418086e+002, 7.350253e+001
5.422907e+002, 7.361039e+001
5.427728e+002, 7.366457e+001
5.432549e+002, 7.365683e+001
5.437371e+002, 7.356278e+001
5.442192e+002, 7.321959e+001
5.447013e+002, 7.289799e+001
5.451834e+002, 7.285432e+001
5.456655e+002, 7.307384e+001
5.461476e+002, 7.324299e+001
5.466298e+002, 7.325633e+001
5.471119e+002, 7.315864e+001
5.475940e+002, 7.295930e+001
5.480761e+002, 7.254976e+001
5.485582e+002, 7.226781e+001
5.490403e+002, 7.220997e+001
5.495225e+002, 7.225486e+001
5.500046e+002, 7.226405e+001
5.504867e+002, 7.223192e+001
5.509688e+002, 7.217352e+001
5.514509e+002, 7.208306e+001
5.519330e+002, 7.196925e+001
5.524152e+002, 7.184789e+001
5.528973e+002, 7.170409e+001
5.533794e+002, 7.163206e+001
5.538615e+002, 7.180492e+001
5.543436e+002, 7.212552e+001
5.548257e+002, 7.195576e+001
5.553079e+002, 7.126667e+001
5.557900e+002, 7.060597e+001
5.562721e+002, 7.057494e+001
5.567542e+002, 7.090627e+001
5.572363e+002, 7.110189e+001
5.577184e+002, 7.101583e+001
5.582006e+002, 7.090075e+001
5.586827e+002, 7.101265e+001
5.591648e+002, 7.122130e+001
5.596469e+002, 7.130802e+001
5.601290e+002, 7.101548e+001
5.606111e+002, 7.075964e+001
5.610933e+002, 7.080815e+001
5.615754e+002, 7.109168e+001
5.620575e+002, 7.113384e+001
5.625396e+002, 7.064831e+001
5.630217e+002, 7.010947e+001
5.635038e+002, 6.965250e+001
5.639860e+002, 6.923507e+001
5.644681e+002, 6.912546e+001
5.649502e+002, 6.944125e+001
5.654323e+002, 6.988151e+001
5.659144e+002, 7.017231e+001
5.663965e+002, 7.031154e+001
5.668787e+002, 7.032988e+001
5.673608e+002, 7.019414e+001
5.678429e+002, 7.001268e+001
5.683250e+002, 7.005398e+001
5.688071e+002, 7.025823e+001
5.692892e+002, 7.028614e+001
5.697714e+002, 6.976983e+001
5.702535e+002, 6.913622e+001
5.707356e+002, 6.904133e+001
5.712177e+002, 6.940476e+001
5.716998e+002, 6.976136e+001
5.721819e+002, 6.985773e+001
5.726641e+002, 6.982930e+001
5.731462e+002, 6.975819e+001
5.736283e+002, 6.963847e+001
5.741104e+002, 6.956087e+001
5.745925e+002, 6.963042e+001
5.750746e+002, 6.971159e+001
5.755568e+002, 6.967583e+001
5.760389e+002, 6.917178e+001
5.765210e+002, 6.905394e+001
5.770031e+002, 6.964545e+001
5.774852e+002, 7.052000e+001
5.779673e+002, 7.073005e+001
5.784495e+002, 7.003069e+001
5.789316e+002, 6.946522e+001
5.794137e+002, 6.943295e+001
5.798958e+002, 6.977214e+001
5.803779e+002, 6.975218e+001
5.808600e+002, 6.936116e+001
5.813422e+002, 6.890940e+001
5.818243e+002, 6.853408e+001
5.823065e+002, 6.826468e+001
5.827886e+002, 6.820896e+001
5.832707e+002, 6.838357e+001
5.837528e+002, 6.862939e+001
5.842349e+002, 6.893563e+001
5.847170e+002, 6.919257e+001
5.851992e+002, 6.925180e+001
5.856813e+002, 6.898701e+001
5.861634e+002, 6.866982e+001
5.866455e+002, 6.833383e+001
5.871276e+002, 6.803341e+001
5.876097e+002, 6.787182e+001
5.880919e+002, 6.796082e+001
5.885740e+002, 6.808721e+001
5.890561e+002, 6.825082e+001
5.895382e+002, 6.843094e+001
5.900203e+002, 6.846082e+001
5.905024e+002, 6.827068e+001
5.909846e+002, 6.807020e+001
5.914667e+002, 6.796494e+001
5.919488e+002, 6.795603e+001
5.924309e+002, 6.795899e+001
5.929130e+002, 6.798260e+001
5.933951e+002, 6.797829e+001
5.938773e+002, 6.789303e+001
5.943594e+002, 6.774101e+001
5.948415e+002, 6.754309e+001
5.953236e+002, 6.727483e+001
5.958057e+002, 6.706640e+001
5.962878e+002, 6.712033e+001
5.967700e+002, 6.732165e+001
5.972521e+002, 6.745438e+001
5.977342e+002, 6.736327e+001
5.982163e+002, 6.724986e+001
5.986984e+002, 6.722534e+001
5.991805e+002, 6.726307e+001
5.996627e+002, 6.726064e+001
6.001448e+002, 6.710234e+001
6.006269e+002, 6.698892e+001
6.011090e+002, 6.703918e+001
6.015911e+002, 6.728092e+001
6.020732e+002, 6.731231e+001
6.025554e+002, 6.699123e+001
6.030375e+002, 6.668636e+001
6.035196e+002, 6.670607e+001
6.040017e+002, 6.708440e+001
6.044838e+002, 6.734426e+001
6.049659e+002, 6.745208e+001
6.054481e+002, 6.746081e+001
6.059302e+002, 6.742448e+001
6.064123e+002, 6.734318e+001
6.068944e+002, 6.719398e+001
6.073765e+002, 6.689381e+001
6.078586e+002, 6.665839e+001
6.083408e+002, 6.685079e+001
6.088229e+002, 6.730469e+001
6.093050e+002, 6.760686e+001
6.097871e+002, 6.744010e+001
6.102692e+002, 6.718723e+001
6.107513e+002, 6.703141e+001
6.112335e+002, 6.697561e+001
6.117156e+002, 6.696348e+001
6.121977e+002, 6.703356e+001
6.126798e+002, 6.710049e+001
6.131619e+002, 6.710326e+001
6.136440e+002, 6.699538e+001
6.141262e+002, 6.706551e+001
6.146083e+002, 6.742374e+001
6.150904e+002, 6.778936e+001
6.155725e+002, 6.785395e+001
6.160546e+002, 6.760104e+001
6.165367e+002, 6.753850e+001
6.170189e+002, 6.777724e+001
6.175010e+002, 6.808748e+001
6.179831e+002, 6.808739e+001
6.184652e+002, 6.786536e+001
6.189473e+002, 6.773604e+001
6.194294e+002, 6.792066e+001
6.199116e+002, 6.811942e+001
6.203937e+002, 6.792005e+001
6.208758e+002, 6.747813e+001
6.213579e+002, 6.725554e+001
6.218400e+002, 6.770998e+001
6.223221e+002, 6.821368e+001
6.228043e+002, 6.843477e+001
6.232864e+002, 6.835526e+001
6.237685e+002, 6.828873e+001
6.242506e+002, 6.829139e+001
6.247327e+002, 6.829109e+001
6.252148e+002, 6.825134e+001
6.256970e+002, 6.816237e+001
6.261791e+002, 6.807333e+001
6.266612e+002, 6.798334e+001
6.271433e+002, 6.789771e+001
6.276254e+002, 6.780833e+001
6.281075e+002, 6.771883e+001
6.285897e+002, 6.768139e+001
6.290718e+002, 6.769773e+001
6.295539e+002, 6.778828e+001
6.300360e+002, 6.807152e+001
6.305181e+002, 6.845268e+001
6.310002e+002, 6.869820e+001
6.314824e+002, 6.859707e+001
6.319645e+002, 6.844130e+001
6.324466e+002, 6.847071e+001
6.329287e+002, 6.861985e+001
6.334108e+002, 6.868375e+001
6.338929e+002, 6.849568e+001
6.343751e+002, 6.830164e+001
6.348572e+002, 6.816883e+001
6.353393e+002, 6.809879e+001
6.358214e+002, 6.819351e+001
6.363035e+002, 6.859586e+001
6.367856e+002, 6.896290e+001
6.372678e+002, 6.907510e+001
6.377499e+002, 6.888894e+001
6.382320e+002, 6.880594e+001
6.387141e+002, 6.886076e+001
6.391962e+002, 6.888680e+001
6.396783e+002, 6.860335e+001
6.401605e+002, 6.812325e+001
6.406426e+002, 6.791637e+001
6.411247e+002, 6.812144e+001
6.416068e+002, 6.843523e+001
6.420889e+002, 6.854967e+001
6.425710e+002, 6.855581e+001
6.430532e+002, 6.860755e+001
6.435353e+002, 6.885511e+001
6.440174e+002, 6.906437e+001
6.444995e+002, 6.912260e+001
6.449816e+002, 6.906661e+001
6.454637e+002, 6.900584e+001
6.459459e+002, 6.890020e+001
6.464280e+002, 6.885795e+001
6.469101e+002, 6.893389e+001
6.473922e+002, 6.911464e+001
6.478743e+002, 6.920951e+001
6.483564e+002, 6.919134e+001
6.488386e+002, 6.916962e+001
6.493207e+002, 6.921323e+001
6.498028e+002, 6.931443e+001
6.502849e+002, 6.940556e+001
6.507670e+002, 6.948680e+001
6.512491e+002, 6.954484e+001
6.517313e+002, 6.956631e+001
6.522134e+002, 6.955611e+001
6.526955e+002, 6.949909e+001
6.531776e+002, 6.936521e+001
6.536597e+002, 6.930505e+001
6.541418e+002, 6.950644e+001
6.546240e+002, 6.979288e+001
6.551061e+002, 6.995977e+001
6.555882e+002, 6.983537e+001
6.560703e+002, 6.973813e+001
6.565524e+002, 6.976278e+001
6.570345e+002, 6.982837e+001
6.575167e+002, 6.978853e+001
6.579988e+002, 6.960929e+001
6.584809e+002, 6.939815e+001
6.589630e+002, 6.912588e+001
6.594451e+002, 6.886300e+001
6.599272e+002, 6.888023e+001
6.604094e+002, 6.917815e+001
6.608915e+002, 6.953735e+001
6.613736e+002, 6.995093e+001
6.618557e+002, 7.030634e+001
6.623378e+002, 7.028500e+001
6.628199e+002, 6.993961e+001
6.633021e+002, 6.973811e+001
6.637842e+002, 7.022578e+001
6.642663e+002, 7.081303e+001
6.647484e+002, 7.101897e+001
6.652305e+002, 7.074348e+001
6.657126e+002, 7.037254e+001
6.661948e+002, 6.973515e+001
6.666769e+002, 6.922375e+001
6.671590e+002, 6.912980e+001
6.676411e+002, 6.972871e+001
6.681232e+002, 7.013815e+001
6.686053e+002, 7.028745e+001
6.690875e+002, 7.034145e+001
6.695696e+002, 7.055358e+001
6.700517e+002, 7.092135e+001
6.705338e+002, 7.109915e+001
6.710159e+002, 7.097512e+001
6.714980e+002, 7.073533e+001
6.719802e+002, 7.062830e+001
6.724623e+002, 7.063075e+001
6.729444e+002, 7.068252e+001
6.734265e+002, 7.079175e+001
6.739086e+002, 7.090983e+001
6.743907e+002, 7.104527e+001
6.748729e+002, 7.116990e+001
6.753550e+002, 7.119495e+001
6.758371e+002, 7.097078e+001
6.763192e+002, 7.076768e+001
6.768013e+002, 7.067828e+001
6.772834e+002, 7.069626e+001
6.777656e+002, 7.079435e+001
6.782477e+002, 7.105518e+001
6.787298e+002, 7.122143e+001
6.792119e+002, 7.108144e+001
6.796940e+002, 7.066204e+001
6.801761e+002, 7.054591e+001
6.806583e+002, 7.075166e+001
6.811404e+002, 7.107134e+001
6.816225e+002, 7.151519e+001
6.821046e+002, 7.190270e+001
6.825867e+002, 7.175127e+001
6.830688e+002, 7.092296e+001
6.835510e+002, 7.023933e+001
6.840331e+002, 7.043568e+001
6.845152e+002, 7.097270e+001
6.849973e+002, 7.128832e+001
6.854794e+002, 7.104734e+001
6.859615e+002, 7.094975e+001
6.864437e+002, 7.125665e+001
6.869258e+002, 7.169120e+001
6.874079e+002, 7.193926e+001
6.878900e+002, 7.197276e+001
6.883721e+002, 7.186646e+001
6.888542e+002, 7.153809e+001
6.893364e+002, 7.119267e+001
6.898185e+002, 7.140260e+001
6.903006e+002, 7.210725e+001
6.907827e+002, 7.254253e+001
6.912648e+002, 7.226498e+001
6.917469e+002, 7.171291e+001
6.922291e+002, 7.151040e+001
6.927112e+002, 7.157003e+001
6.931933e+002, 7.162183e+001
6.936754e+002, 7.142915e+001
6.941575e+002, 7.127702e+001
6.946396e+002, 7.135329e+001
6.951218e+002, 7.164480e+001
6.956039e+002, 7.192709e+001
6.960860e+002, 7.214709e+001
6.965681e+002, 7.237025e+001
6.970502e+002, 7.267339e+001
6.975323e+002, 7.307156e+001
6.980145e+002, 7.311311e+001
6.984966e+002, 7.271534e+001
6.989787e+002, 7.225947e+001
6.994608e+002, 7.198356e+001
6.999429e+002, 7.188377e+001
7.004250e+002, 7.202918e+001
7.009072e+002, 7.244286e+001
7.013893e+002, 7.275957e+001
7.018714e+002, 7.247292e+001
7.023535e+002, 7.198414e+001
7.028356e+002, 7.183814e+001
7.033177e+002, 7.227635e+001
7.037999e+002, 7.263038e+001
7.042820e+002, 7.248528e+001
7.047641e+002, 7.220232e+001
7.052462e+002, 7.218501e+001
7.057283e+002, 7.275190e+001
7.062104e+002, 7.306038e+001
7.066926e+002, 7.297002e+001
7.071747e+002, 7.270652e+001
7.076568e+002, 7.262755e+001
7.081389e+002, 7.274398e+001
7.086210e+002, 7.289006e+001
7.091031e+002, 7.305845e+001
7.095853e+002, 7.318253e+001
7.100674e+002, 7.304861e+001
7.105495e+002, 7.276469e+001
7.110316e+002, 7.265422e+001
7.115137e+002, 7.316515e+001
7.119958e+002, 7.362861e+001
7.124780e+002, 7.345100e+001
7.129601e+002, 7.284966e+001
7.134422e+002, 7.249268e+001
7.139243e+002, 7.279448e+001
7.144064e+002, 7.311312e+001
7.148885e+002, 7.325603e+001
7.153707e+002, 7.324507e+001
7.158528e+002, 7.324873e+001
7.163349e+002, 7.327916e+001
7.168170e+002, 7.328388e+001
7.172991e+002, 7.319022e+001
7.177813e+002, 7.304402e+001
7.182634e+002, 7.313847e+001
7.187455e+002, 7.346774e+001
7.192276e+002, 7.376579e+001
7.197097e+002, 7.378016e+001
7.201918e+002, 7.369662e+001
7.206740e+002, 7.376888e+001
7.211561e+002, 7.401733e+001
7.216382e+002, 7.420859e+001
7.221203e+002, 7.411600e+001
7.226024e+002, 7.401074e+001
7.230845e+002, 7.411958e+001
7.235667e+002, 7.461804e+001
7.240488e+002, 7.479498e+001
7.245309e+002, 7.441997e+001
7.250130e+002, 7.403178e+001
7.254951e+002, 7.415285e+001
7.259772e+002, 7.482343e+001
7.264594e+002, 7.525461e+001
7.269415e+002, 7.536520e+001
7.274236e+002, 7.534956e+001
7.279057e+002, 7.545737e+001
7.283878e+002, 7.560275e+001
7.288699e+002, 7.555549e+001
7.293521e+002, 7.516064e+001
7.298342e+002, 7.486650e+001
7.303163e+002, 7.507578e+001
7.307984e+002, 7.552579e+001
7.312805e+002, 7.588780e+001
7.317626e+002, 7.603870e+001
7.322448e+002, 7.615965e+001
7.327269e+002, 7.627351e+001
7.332090e+002, 7.636616e+001
7.336911e+002, 7.640746e+001
7.341732e+002, 7.638520e+001
7.346553e+002, 7.636097e+001
7.351375e+002, 7.632829e+001
7.356196e+002, 7.633083e+001
7.361017e+002, 7.651521e+001
7.365838e+002, 7.682902e+001
7.370659e+002, 7.704178e+001
7.375480e+002, 7.698472e+001
7.380302e+002, 7.686157e+001
7.385123e+002, 7.683957e+001
7.389944e+002, 7.689575e+001
7.394765e+002, 7.697306e+001
7.399586e+002, 7.690392e+001
7.404407e+002, 7.700822e+001
7.409229e+002, 7.764272e+001
7.414050e+002, 7.859585e+001
7.418871e+002, 7.882046e+001
7.423692e+002, 7.794912e+001
7.428513e+002, 7.733447e+001
7.433334e+002, 7.760995e+001
7.438156e+002, 7.852254e+001
7.442977e+002, 7.895862e+001
7.447798e+002, 7.894787e+001
7.452619e+002, 7.898525e+001
7.457440e+002, 7.960967e+001
7.462261e+002, 8.031263e+001
7.467083e+002, 8.035592e+001
7.471904e+002, 7.980937e+001
7.476725e+002, 7.948341e+001
7.481546e+002, 7.996516e+001
7.486367e+002, 8.056873e+001
7.491188e+002, 8.093748e+001
7.496010e+002, 8.103457e+001
7.500831e+002, 8.110391e+001
7.505652e+002, 8.115617e+001
7.510473e+002, 8.116170e+001
7.515294e+002, 8.104872e+001
7.520115e+002, 8.082558e+001
7.524937e+002, 8.083229e+001
7.529758e+002, 8.107706e+001
7.534579e+002, 8.140508e+001
7.539400e+002, 8.172849e+001
7.544221e+002, 8.202819e+001
7.549042e+002, 8.225314e+001
7.553864e+002, 8.239516e+001
7.558685e+002, 8.254263e+001
7.563506e+002, 8.283387e+001
7.568327e+002, 8.309063e+001
7.573148e+002, 8.314574e+001
7.577969e+002, 8.283556e+001
7.582791e+002, 8.273152e+001
7.587612e+002, 8.292363e+001
7.592433e+002, 8.320032e+001
7.597254e+002, 8.332955e+001
7.602075e+002, 8.330368e+001
7.606896e+002, 8.356935e+001
7.611718e+002, 8.421111e+001
7.616539e+002, 8.489260e+001
7.621360e+002, 8.529252e+001
7.626181e+002, 8.547339e+001
7.631002e+002, 8.548856e+001
7.635823e+002, 8.526627e+001
7.640645e+002, 8.517705e+001
7.645466e+002, 8.557935e+001
7.650287e+002, 8.614613e+001
7.655108e+002, 8.652221e+001
7.659929e+002, 8.651256e+001
7.664750e+002, 8.653271e+001
7.669572e+002, 8.658237e+001
7.674393e+002, 8.666805e+001
7.679214e+002, 8.684529e+001
7.684035e+002, 8.712412e+001
7.688856e+002, 8.721316e+001
7.693677e+002, 8.703703e+001
7.698499e+002, 8.675102e+001
7.703320e+002, 8.641319e+001
7.708141e+002, 8.613081e+001
7.712962e+002, 8.614453e+001
7.717783e+002, 8.664748e+001
7.722604e+002, 8.723705e+001
7.727426e+002, 8.781813e+001
7.732247e+002, 8.831557e+001
7.737068e+002, 8.862093e+001
7.741889e+002, 8.865552e+001
7.746710e+002, 8.857504e+001
7.751531e+002, 8.826598e+001
7.756353e+002, 8.795641e+001
7.761174e+002, 8.815475e+001
7.765995e+002, 8.887823e+001
7.770816e+002, 8.942569e+001
7.775637e+002, 8.961608e+001
7.780458e+002, 8.958618e+001
7.785280e+002, 8.939613e+001
7.790101e+002, 8.914449e+001
7.794922e+002, 8.905711e+001
7.799743e+002, 8.938643e+001
7.804564e+002, 8.971231e+001
7.809385e+002, 8.982803e+001
7.814207e+002, 8.981185e+001
7.819028e+002, 8.983219e+001
7.823849e+002, 8.992457e+001
7.828670e+002, 9.000880e+001
7.833491e+002, 9.005254e+001
7.838312e+002, 9.009609e+001
7.843134e+002, 9.028126e+001
7.847955e+002, 9.060270e+001
7.852776e+002, 9.080692e+001
7.857597e+002, 9.076732e+001
7.862418e+002, 9.062583e+001
7.867239e+002, 9.053969e+001
7.872061e+002, 9.050813e+001
7.876882e+002, 9.052663e+001
7.881703e+002, 9.060166e+001
7.886524e+002, 9.071725e+001
7.891345e+002, 9.088612e+001
7.896166e+002, 9.109075e+001
7.900988e+002, 9.128091e+001
7.905809e+002, 9.142474e+001
7.910630e+002, 9.161723e+001
7.915451e+002, 9.190367e+001
7.920272e+002, 9.223420e+001
7.925093e+002, 9.240941e+001
7.929915e+002, 9.245155e+001
7.934736e+002, 9.261341e+001
7.939557e+002, 9.316146e+001
7.944378e+002, 9.371168e+001
7.949199e+002, 9.372487e+001
7.954020e+002, 9.336660e+001
7.958842e+002, 9.307516e+001
7.963663e+002, 9.292944e+001
7.968484e+002, 9.297531e+001
7.973305e+002, 9.337204e+001
7.978126e+002, 9.398109e+001
7.982947e+002, 9.435325e+001
7.987769e+002, 9.439541e+001
7.992590e+002, 9.447039e+001
7.997411e+002, 9.471361e+001
8.002232e+002, 9.502932e+001
8.007053e+002, 9.511457e+001
8.011874e+002, 9.501865e+001
8.016696e+002, 9.502371e+001
8.021517e+002, 9.544189e+001
8.026338e+002, 9.586494e+001
8.031159e+002, 9.581411e+001
8.035980e+002, 9.546928e+001
8.040801e+002, 9.532349e+001
8.045623e+002, 9.569402e+001
8.050444e+002, 9.609513e+001
8.055265e+002, 9.638583e+001
8.060086e+002, 9.661381e+001
8.064907e+002, 9.697339e+001
8.069728e+002, 9.751865e+001
8.074550e+002, 9.790829e+001
8.079371e+002, 9.799974e+001
8.084192e+002, 9.790406e+001
8.089013e+002, 9.781705e+001
8.093834e+002, 9.773745e+001
8.098655e+002, 9.766081e+001
8.103477e+002, 9.742583e+001
8.108298e+002, 9.734546e+001
8.113119e+002, 9.778039e+001
8.117940e+002, 9.853574e+001
8.122761e+002, 9.902305e+001
8.127582e+002, 9.894308e+001
8.132404e+002, 9.890247e+001
8.137225e+002, 9.910419e+001
8.142046e+002, 9.938503e+001
8.146867e+002, 9.910416e+001
8.151688e+002, 9.825494e+001
8.156509e+002, 9.778985e+001
8.161331e+002, 9.819728e+001
8.166152e+002, 9.899756e+001
8.170973e+002, 9.968623e+001
8.175794e+002, 1.002002e+002
8.180615e+002, 1.003961e+002
8.185436e+002, 9.967175e+001
8.190258e+002, 9.919045e+001
8.195079e+002, 9.962411e+001
8.199900e+002, 1.006378e+002
8.204721e+002, 1.012928e+002
8.209542e+002, 1.015162e+002
8.214363e+002, 1.015053e+002
8.219185e+002, 1.011834e+002
8.224006e+002, 1.007826e+002
8.228827e+002, 1.009038e+002
8.233648e+002, 1.014614e+002
8.238469e+002, 1.019538e+002
8.243290e+002, 1.021860e+002
8.248112e+002, 1.023014e+002
8.252933e+002, 1.023688e+002
8.257754e+002, 1.024287e+002
8.262575e+002, 1.025574e+002
8.267396e+002, 1.027728e+002
8.272217e+002, 1.030793e+002
8.277039e+002, 1.036221e+002
8.281860e+002, 1.041814e+002
8.286681e+002, 1.042295e+002
8.291502e+002, 1.036356e+002
8.296323e+002, 1.034932e+002
8.301144e+002, 1.041508e+002
8.305966e+002, 1.051498e+002
8.310787e+002, 1.059695e+002
8.315608e+002, 1.065760e+002
8.320429e+002, 1.068890e+002
8.325250e+002, 1.067071e+002
8.330071e+002, 1.064994e+002
8.334893e+002, 1.064829e+002
8.339714e+002, 1.065964e+002
8.344535e+002, 1.067444e+002
8.349356e+002, 1.069026e+002
8.354177e+002, 1.071309e+002
8.358998e+002, 1.074733e+002
8.363820e+002, 1.078295e+002
8.368641e+002, 1.080336e+002
8.373462e+002, 1.081027e+002
8.378283e+002, 1.082142e+002
8.383104e+002, 1.084305e+002
8.387925e+002, 1.085981e+002
8.392747e+002, 1.085028e+002
8.397568e+002, 1.082871e+002
8.402389e+002, 1.081389e+002
8.407210e+002, 1.080667e+002
8.412031e+002, 1.081426e+002
8.416852e+002, 1.086067e+002
8.421674e+002, 1.090614e+002
8.426495e+002, 1.091120e+002
8.431316e+002, 1.086980e+002
8.436137e+002, 1.081724e+002
8.440958e+002, 1.074872e+002
8.445779e+002, 1.069648e+002
8.450601e+002, 1.072654e+002
8.455422e+002, 1.079442e+002
8.460243e+002, 1.079426e+002
8.465064e+002, 1.069319e+002
8.469885e+002, 1.061034e+002
8.474706e+002, 1.062951e+002
8.479528e+002, 1.068437e+002
8.484349e+002, 1.072107e+002
8.489170e+002, 1.073811e+002
8.493991e+002, 1.072410e+002
8.498812e+002, 1.066610e+002
8.503633e+002, 1.060209e+002
8.508455e+002, 1.056333e+002
8.513276e+002, 1.054690e+002
8.518097e+002, 1.053626e+002
8.522918e+002, 1.053059e+002
8.527739e+002, 1.052508e+002
8.532560e+002, 1.051715e+002
8.537382e+002, 1.050680e+002
8.542203e+002, 1.049312e+002
8.547024e+002, 1.047580e+002
8.551845e+002, 1.045989e+002
8.556666e+002, 1.045486e+002
8.561487e+002, 1.044246e+002
8.566309e+002, 1.040809e+002
8.571130e+002, 1.035290e+002
8.575951e+002, 1.032887e+002
8.580772e+002, 1.033862e+002
8.585593e+002, 1.034686e+002
8.590414e+002, 1.031698e+002
8.595236e+002, 1.027664e+002
8.600057e+002, 1.028066e+002
8.604878e+002, 1.032165e+002
8.609699e+002, 1.034227e+002
8.614520e+002, 1.029981e+002
8.619341e+002, 1.024707e+002
8.624163e+002, 1.020256e+002
8.628984e+002, 1.016724e+002
8.633805e+002, 1.015227e+002
8.638626e+002, 1.016568e+002
8.643447e+002, 1.017155e+002
8.648268e+002, 1.015327e+002
8.653090e+002, 1.011998e+002
8.657911e+002, 1.009160e+002
8.662732e+002, 1.006794e+002
8.667553e+002, 1.004946e+002
8.672374e+002, 1.004272e+002
8.677195e+002, 1.003445e+002
8.682017e+002, 1.000738e+002
8.686838e+002, 9.972004e+001
8.691659e+002, 9.962077e+001
8.696480e+002, 1.000173e+002
8.701301e+002, 1.002594e+002
8.706122e+002, 1.002189e+002
8.710944e+002, 9.997020e+001
8.715765e+002, 9.958252e+001
8.720586e+002, 9.909291e+001
8.725407e+002, 9.879401e+001
8.730228e+002, 9.883004e+001
8.735049e+002, 9.896494e+001
8.739871e+002, 9.911593e+001
8.744692e+002, 9.917627e+001
8.749513e+002, 9.898459e+001
8.754334e+002, 9.822890e+001
8.759155e+002, 9.758170e+001
8.763976e+002, 9.705717e+001
8.768798e+002, 9.669650e+001
8.773619e+002, 9.658235e+001
8.778440e+002, 9.672910e+001
8.783261e+002, 9.689492e+001
8.788082e+002, 9.707211e+001
8.792903e+002, 9.715890e+001
8.797725e+002, 9.698860e+001
8.802546e+002, 9.668058e+001
8.807367e+002, 9.640194e+001
8.812188e+002, 9.618300e+001
8.817009e+002, 9.598503e+001
8.821830e+002, 9.579294e+001
8.826652e+002, 9.561656e+001
8.831473e+002, 9.545144e+001
8.836294e+002, 9.528159e+001
8.841115e+002, 9.526740e+001
8.845936e+002, 9.545773e+001
8.850757e+002, 9.556614e+001
8.855579e+002, 9.532429e+001
8.860400e+002, 9.486093e+001
8.865221e+002, 9.439387e+001
8.870042e+002, 9.394405e+001
8.874863e+002, 9.356054e+001
8.879684e+002, 9.317883e+001
8.884506e+002, 9.295622e+001
8.889327e+002, 9.311940e+001
8.894148e+002, 9.362024e+001
8.898969e+002, 9.371754e+001
8.903790e+002, 9.329530e+001
8.908611e+002, 9.281203e+001
8.913433e+002, 9.244572e+001
8.918254e+002, 9.215329e+001
8.923075e+002, 9.176839e+001
8.927896e+002, 9.133153e+001
8.932717e+002, 9.102967e+001
8.937538e+002, 9.107368e+001
8.942360e+002, 9.115819e+001
8.947181e+002, 9.111259e+001
8.952002e+002, 9.096995e+001
8.956823e+002, 9.082292e+001
8.961644e+002, 9.070870e+001
8.966465e+002, 9.050603e+001
8.971287e+002, 9.011869e+001
8.976108e+002, 8.974621e+001
8.980929e+002, 9.000351e+001
8.985750e+002, 9.067297e+001
8.990571e+002, 9.060250e+001
8.995392e+002, 8.919467e+001
9.000214e+002, 8.787144e+001
9.005035e+002, 8.806946e+001
9.009856e+002, 8.884696e+001
9.014677e+002, 8.908742e+001
9.019498e+002, 8.803048e+001
9.024319e+002, 8.742763e+001
9.029141e+002, 8.751296e+001
9.033962e+002, 8.772453e+001
9.038783e+002, 8.749754e+001
9.043604e+002, 8.688612e+001
9.048425e+002, 8.644967e+001
9.053246e+002, 8.622407e+001
9.058068e+002, 8.604768e+001
9.062889e+002, 8.574669e+001
9.067710e+002, 8.545430e+001
9.072531e+002, 8.534116e+001
9.077352e+002, 8.544249e+001
9.082173e+002, 8.538171e+001
9.086995e+002, 8.498316e+001
9.091816e+002, 8.458942e+001
9.096637e+002, 8.436593e+001
9.101458e+002, 8.428045e+001
9.106279e+002, 8.414265e+001
9.111101e+002, 8.395170e+001
9.115922e+002, 8.368676e+001
9.120743e+002, 8.330179e+001
9.125565e+002, 8.286091e+001
9.130386e+002, 8.234722e+001
9.135207e+002, 8.182704e+001
9.140028e+002, 8.148372e+001
9.144849e+002, 8.156081e+001
9.149670e+002, 8.157914e+001
9.154492e+002, 8.143461e+001
9.159313e+002, 8.119423e+001
9.164134e+002, 8.088201e+001
9.168955e+002, 8.050832e+001
9.173776e+002, 8.073765e+001
9.178597e+002, 8.200449e+001
9.183419e+002, 8.308741e+001
9.188240e+002, 8.222126e+001
9.193061e+002, 8.047057e+001
9.197882e+002, 7.935242e+001
9.202703e+002, 7.956298e+001
9.207524e+002, 7.975601e+001
9.212346e+002, 7.977573e+001
9.217167e+002, 7.965747e+001
9.221988e+002, 7.936638e+001
9.226809e+002, 7.888918e+001
9.231630e+002, 7.863237e+001
9.236451e+002, 7.862226e+001
9.241273e+002, 7.867290e+001
9.246094e+002, 7.869038e+001
9.250915e+002, 7.863985e+001
9.255736e+002, 7.838797e+001
9.260557e+002, 7.794036e+001
9.265378e+002, 7.773685e+001
9.270200e+002, 7.833780e+001
9.275021e+002, 7.870896e+001
9.279842e+002, 7.835465e+001
9.284663e+002, 7.745300e+001
9.289484e+002, 7.711678e+001
9.294305e+002, 7.733811e+001
9.299127e+002, 7.762354e+001
9.303948e+002, 7.784233e+001
9.308769e+002, 7.790023e+001
9.313590e+002, 7.754768e+001
9.318411e+002, 7.695841e+001
9.323232e+002, 7.652156e+001
9.328054e+002, 7.648559e+001
9.332875e+002, 7.645206e+001
9.337696e+002, 7.636685e+001
9.342517e+002, 7.624833e+001
9.347338e+002, 7.612077e+001
9.352159e+002, 7.598335e+001
9.356981e+002, 7.583326e+001
9.361802e+002, 7.565719e+001
9.366623e+002, 7.553689e+001
9.371444e+002, 7.564002e+001
9.376265e+002, 7.580396e+001
9.381086e+002, 7.580282e+001
9.385908e+002, 7.553065e+001
9.390729e+002, 7.538567e+001
9.395550e+002, 7.562227e+001
9.400371e+002, 7.576308e+001
9.405192e+002, 7.547302e+001
9.410013e+002, 7.478147e+001
9.414835e+002, 7.425413e+001
9.419656e+002, 7.388703e+001
9.424477e+002, 7.369775e+001
9.429298e+002, 7.382039e+001
9.434119e+002, 7.403015e+001
9.438940e+002, 7.411742e+001
9.443762e+002, 7.409794e+001
9.448583e+002, 7.407181e+001
9.453404e+002, 7.407838e+001
9.458225e+002, 7.405994e+001
9.463046e+002, 7.401906e+001
9.467867e+002, 7.393576e+001
9.472689e+002, 7.374828e+001
9.477510e+002, 7.346709e+001
9.482331e+002, 7.317745e+001
9.487152e+002, 7.289963e+001
9.491973e+002, 7.263200e+001
9.496794e+002, 7.232982e+001
9.501616e+002, 7.205762e+001
9.506437e+002, 7.189516e+001
9.511258e+002, 7.189892e+001
9.516079e+002, 7.196301e+001
9.520900e+002, 7.215933e+001
9.525721e+002, 7.229272e+001
9.530543e+002, 7.210484e+001
9.535364e+002, 7.167873e+001
9.540185e+002, 7.158675e+001
9.545006e+002, 7.183800e+001
9.549827e+002, 7.206215e+001
9.554648e+002, 7.199255e+001
9.559470e+002, 7.180287e+001
9.564291e+002, 7.156718e+001
9.569112e+002, 7.130337e+001
9.573933e+002, 7.114872e+001
9.578754e+002, 7.111341e+001
9.583575e+002, 7.117838e+001
9.588397e+002, 7.139965e+001
9.593218e+002, 7.164942e+001
9.598039e+002, 7.155428e+001
9.602860e+002, 7.120940e+001
9.607681e+002, 7.094971e+001
9.612502e+002, 7.091145e+001
9.617324e+002, 7.097096e+001
9.622145e+002, 7.116364e+001
9.626966e+002, 7.136417e+001
9.631787e+002, 7.140829e+001
9.636608e+002, 7.126184e+001
9.641429e+002, 7.102097e+001
9.646251e+002, 7.064038e+001
9.651072e+002, 7.033521e+001
9.655893e+002, 7.043670e+001
9.660714e+002, 7.074522e+001
9.665535e+002, 7.082537e+001
9.670356e+002, 7.064474e+001
9.675178e+002, 7.038515e+001
9.679999e+002, 6.991969e+001
9.684820e+002, 6.961456e+001
9.689641e+002, 6.980185e+001
9.694462e+002, 7.036965e+001
9.699283e+002, 7.043357e+001
9.704105e+002, 6.989905e+001
9.708926e+002, 6.959323e+001
9.713747e+002, 6.998128e+001
9.718568e+002, 7.057308e+001
9.723389e+002, 7.062731e+001
9.728210e+002, 7.030991e+001
9.733032e+002, 6.997521e+001
9.737853e+002, 6.958872e+001
9.742674e+002, 6.942074e+001
9.747495e+002, 6.968828e+001
9.752316e+002, 7.005014e+001
9.757137e+002, 7.012777e+001
9.761959e+002, 6.990887e+001
9.766780e+002, 6.976517e+001
9.771601e+002, 6.973032e+001
9.776422e+002, 6.970127e+001
9.781243e+002, 6.951746e+001
9.786064e+002, 6.933620e+001
9.790886e+002, 6.937166e+001
9.795707e+002, 6.964413e+001
9.800528e+002, 6.980495e+001
9.805349e+002, 6.980778e+001
9.810170e+002, 6.966370e+001
9.814991e+002, 6.928133e+001
9.819813e+002, 6.879890e+001
9.824634e+002, 6.878736e+001
9.829455e+002, 6.916393e+001
9.834276e+002, 6.941619e+001
9.839097e+002, 6.920851e+001
9.843918e+002, 6.898536e+001
9.848740e+002, 6.917601e+001
9.853561e+002, 6.951774e+001
9.858382e+002, 6.957604e+001
9.863203e+002, 6.908545e+001
9.868024e+002, 6.887910e+001
9.872845e+002, 6.907380e+001
9.877667e+002, 6.933950e+001
9.882488e+002, 6.930386e+001
9.887309e+002, 6.907688e+001
9.892130e+002, 6.894099e+001
9.896951e+002, 6.891903e+001
9.901772e+002, 6.891484e+001
9.906594e+002, 6.892004e+001
9.911415e+002, 6.888593e+001
9.916236e+002, 6.873459e+001
9.921057e+002, 6.850717e+001
9.925878e+002, 6.845779e+001
9.930699e+002, 6.860963e+001
9.935521e+002, 6.876632e+001
9.940342e+002, 6.887752e+001
9.945163e+002, 6.892602e+001
9.949984e+002, 6.887254e+001
9.954805e+002, 6.874094e+001
9.959626e+002, 6.856873e+001
9.964448e+002, 6.821690e+001
9.969269e+002, 6.808668e+001
9.974090e+002, 6.835408e+001
9.978911e+002, 6.872984e+001
9.983732e+002, 6.896410e+001
9.988553e+002, 6.906026e+001
9.993375e+002, 6.919456e+001
9.998196e+002, 6.937539e+001
1.000302e+003, 6.937724e+001
1.000784e+003, 6.867850e+001
1.001266e+003, 6.801003e+001
1.001748e+003, 6.812718e+001
1.002230e+003, 6.895778e+001
1.002712e+003, 6.942485e+001
1.003194e+003, 6.931689e+001
1.003677e+003, 6.915886e+001
1.004159e+003, 6.907133e+001
1.004641e+003, 6.903151e+001
1.005123e+003, 6.899337e+001
1.005605e+003, 6.896278e+001
1.006087e+003, 6.896745e+001
1.006569e+003, 6.904582e+001
1.007051e+003, 6.908012e+001
1.007533e+003, 6.896560e+001
1.008016e+003, 6.881533e+001
1.008498e+003, 6.873360e+001
1.008980e+003, 6.873733e+001
1.009462e+003, 6.871008e+001
1.009944e+003, 6.864060e+001
1.010426e+003, 6.862666e+001
1.010908e+003, 6.880071e+001
1.011390e+003, 6.903419e+001
1.011872e+003, 6.916040e+001
1.012355e+003, 6.918946e+001
1.012837e+003, 6.919187e+001
1.013319e+003, 6.924399e+001
1.013801e+003, 6.917838e+001
1.014283e+003, 6.886201e+001
1.014765e+003, 6.850469e+001
1.015247e+003, 6.859772e+001
1.015729e+003, 6.906020e+001
1.016212e+003, 6.921971e+001
1.016694e+003, 6.888460e+001
1.017176e+003, 6.854749e+001
1.017658e+003, 6.866476e+001
1.018140e+003, 6.892770e+001
1.018622e+003, 6.907076e+001
1.019104e+003, 6.906430e+001
1.019586e+003, 6.893284e+001
1.020068e+003, 6.859437e+001
1.020551e+003, 6.840938e+001
1.021033e+003, 6.865093e+001
1.021515e+003, 6.912841e+001
1.021997e+003, 6.948885e+001
1.022479e+003, 6.972617e+001
1.022961e+003, 6.981572e+001
1.023443e+003, 6.959730e+001
1.023925e+003, 6.941220e+001
1.024407e+003, 6.934957e+001
1.024890e+003, 6.937380e+001
1.025372e+003, 6.948306e+001
1.025854e+003, 6.968188e+001
1.026336e+003, 6.973324e+001
1.026818e+003, 6.960222e+001
1.027300e+003, 6.945773e+001
1.027782e+003, 6.941972e+001
1.028264e+003, 6.946047e+001
1.028747e+003, 6.958804e+001
1.029229e+003, 6.979926e+001
1.029711e+003, 6.993544e+001
1.030193e+003, 7.000491e+001
1.030675e+003, 6.996106e+001
1.031157e+003, 6.975523e+001
1.031639e+003, 6.946394e+001
1.032121e+003, 6.918602e+001
1.032604e+003, 6.896320e+001
1.033086e+003, 6.893909e+001
1.033568e+003, 6.921111e+001
1.034050e+003, 6.957117e+001
1.034532e+003, 7.016447e+001
1.035014e+003, 7.062271e+001
1.035496e+003, 7.054720e+001
1.035978e+003, 6.980481e+001
1.036460e+003, 6.952747e+001
1.036943e+003, 6.974326e+001
1.037425e+003, 7.005375e+001
1.037907e+003, 7.025075e+001
1.038389e+003, 7.033219e+001
1.038871e+003, 7.023961e+001
1.039353e+003, 7.001620e+001
1.039835e+003, 6.983365e+001
1.040317e+003, 6.972221e+001
1.040799e+003, 6.965834e+001
1.041282e+003, 6.964253e+001
1.041764e+003, 6.966433e+001
1.042246e+003, 6.972144e+001
1.042728e+003, 6.980210e+001
1.043210e+003, 6.983826e+001
1.043692e+003, 6.979993e+001
1.044174e+003, 6.987988e+001
1.044656e+003, 7.051389e+001
1.045139e+003, 7.100129e+001
1.045621e+003, 7.077925e+001
1.046103e+003, 6.992119e+001
1.046585e+003, 6.943004e+001
1.047067e+003, 6.932610e+001
1.047549e+003, 6.935676e+001
1.048031e+003, 6.946754e+001
1.048513e+003, 6.957622e+001
1.048995e+003, 6.959251e+001
1.049478e+003, 6.953432e+001
1.049960e+003, 6.943198e+001
1.050442e+003, 6.921186e+001
1.050924e+003, 6.908186e+001
1.051406e+003, 6.908389e+001
1.051888e+003, 6.910221e+001
1.052370e+003, 6.898978e+001
1.052852e+003, 6.880814e+001
1.053334e+003, 6.880619e+001
1.053817e+003, 6.897188e+001
1.054299e+003, 6.908873e+001
1.054781e+003, 6.897948e+001
1.055263e+003, 6.885463e+001
1.055745e+003, 6.877499e+001
1.056227e+003, 6.875974e+001
1.056709e+003, 6.888695e+001
1.057191e+003, 6.916601e+001
1.057674e+003, 6.942772e+001
1.058156e+003, 6.966759e+001
1.058638e+003, 6.974847e+001
1.059120e+003, 6.935580e+001
1.059602e+003, 6.883256e+001
1.060084e+003, 6.857128e+001
1.060566e+003, 6.868018e+001
1.061048e+003, 6.874478e+001
1.061531e+003, 6.875512e+001
1.062013e+003, 6.869707e+001
1.062495e+003, 6.850611e+001
1.062977e+003, 6.828674e+001
1.063459e+003, 6.838044e+001
1.063941e+003, 6.866457e+001
1.064423e+003, 6.878558e+001
1.064905e+003, 6.846154e+001
1.065387e+003, 6.815357e+001
1.065870e+003, 6.795634e+001
1.066352e+003, 6.787871e+001
1.066834e+003, 6.797291e+001
1.067316e+003, 6.824004e+001
1.067798e+003, 6.846437e+001
1.068280e+003, 6.863927e+001
1.068762e+003, 6.868176e+001
1.069244e+003, 6.842491e+001
1.069726e+003, 6.810421e+001
1.070209e+003, 6.787499e+001
1.070691e+003, 6.774682e+001
1.071173e+003, 6.774443e+001
1.071655e+003, 6.795499e+001
1.072137e+003, 6.797368e+001
1.072619e+003, 6.766602e+001
1.073101e+003, 6.731887e+001
1.073583e+003, 6.737166e+001
1.074066e+003, 6.762491e+001
1.074548e+003, 6.774616e+001
1.075030e+003, 6.766188e+001
1.075512e+003, 6.761320e+001
1.075994e+003, 6.771461e+001
1.076476e+003, 6.779609e+001
1.076958e+003, 6.778804e+001
1.077440e+003, 6.770858e+001
1.077922e+003, 6.758878e+001
1.078405e+003, 6.744915e+001
1.078887e+003, 6.739945e+001
1.079369e+003, 6.756602e+001
1.079851e+003, 6.768359e+001
1.080333e+003, 6.743639e+001
1.080815e+003, 6.717418e+001
1.081297e+003, 6.731307e+001
1.081779e+003, 6.797036e+001
1.082262e+003, 6.838274e+001
1.082744e+003, 6.855276e+001
1.083226e+003, 6.848325e+001
1.083708e+003, 6.791591e+001
1.084190e+003, 6.731540e+001
1.084672e+003, 6.726649e+001
1.085154e+003, 6.760915e+001
1.085636e+003, 6.776444e+001
1.086119e+003, 6.750036e+001
1.086601e+003, 6.737122e+001
1.087083e+003, 6.746973e+001
1.087565e+003, 6.765309e+001
1.088047e+003, 6.782982e+001
1.088529e+003, 6.792929e+001
1.089011e+003, 6.774414e+001
1.089493e+003, 6.725511e+001
1.089975e+003, 6.682606e+001
1.090458e+003, 6.648788e+001
1.090940e+003, 6.640536e+001
1.091422e+003, 6.672968e+001
1.091904e+003, 6.729064e+001
1.092386e+003, 6.753967e+001
1.092868e+003, 6.752266e+001
1.093350e+003, 6.753922e+001
1.093832e+003, 6.771965e+001
1.094314e+003, 6.780872e+001
1.094797e+003, 6.746571e+001
1.095279e+003, 6.706819e+001
1.095761e+003, 6.699660e+001
1.096243e+003, 6.728041e+001
1.096725e+003, 6.750101e+001
1.097207e+003, 6.766909e+001
1.097689e+003, 6.765131e+001
1.098171e+003, 6.718342e+001
1.098654e+003, 6.668482e+001
1.099136e+003, 6.673417e+001
1.099618e+003, 6.708643e+001
1.100100e+003, 6.725547e+001
1.100582e+003, 6.698576e+001
1.101064e+003, 6.681635e+001
1.101546e+003, 6.675832e+001
1.102028e+003, 6.680771e+001
1.102510e+003, 6.704103e+001
1.102993e+003, 6.735018e+001
1.103475e+003, 6.746419e+001
1.103957e+003, 6.741084e+001
1.104439e+003, 6.742474e+001
1.104921e+003, 6.775459e+001
1.105403e+003, 6.796345e+001
1.105885e+003, 6.792480e+001
1.106367e+003, 6.773598e+001
1.106849e+003, 6.751360e+001
1.107332e+003, 6.728244e+001
1.107814e+003, 6.716908e+001
1.108296e+003, 6.719247e+001
1.108778e+003, 6.732832e+001
1.109260e+003, 6.786340e+001
1.109742e+003, 6.821781e+001
1.110224e+003, 6.783247e+001
1.110706e+003, 6.692381e+001
1.111189e+003, 6.666434e+001
1.111671e+003, 6.706593e+001
1.112153e+003, 6.745733e+001
1.112635e+003, 6.766618e+001
1.113117e+003, 6.768144e+001
1.113599e+003, 6.727028e+001
1.114081e+003, 6.678239e+001
1.114563e+003, 6.668874e+001
1.115046e+003, 6.715289e+001
1.115528e+003, 6.736128e+001
1.116010e+003, 6.726053e+001
1.116492e+003, 6.713969e+001
1.116974e+003, 6.720633e+001
1.117456e+003, 6.731335e+001
1.117938e+003, 6.714549e+001
1.118420e+003, 6.684612e+001
1.118902e+003, 6.672110e+001
1.119385e+003, 6.715123e+001
1.119867e+003, 6.729777e+001
1.120349e+003, 6.702009e+001
1.120831e+003, 6.665987e+001
1.121313e+003, 6.653846e+001
1.121795e+003, 6.658160e+001
1.122277e+003, 6.661402e+001
1.122759e+003, 6.661365e+001
1.123241e+003, 6.649917e+001
1.123724e+003, 6.589935e+001
1.124206e+003, 6.562182e+001
1.124688e+003, 6.602691e+001
1.125170e+003, 6.671834e+001
1.125652e+003, 6.710153e+001
1.126134e+003, 6.720860e+001
1.126616e+003, 6.720753e+001
1.127098e+003, 6.711422e+001
1.127581e+003, 6.708913e+001
1.128063e+003, 6.739665e+001
1.128545e+003, 6.765900e+001
1.129027e+003, 6.760796e+001
1.129509e+003, 6.732201e+001
1.129991e+003, 6.700837e+001
1.130473e+003, 6.666457e+001
1.130955e+003, 6.644440e+001
1.131438e+003, 6.640292e+001
1.131920e+003, 6.643260e+001
1.132402e+003, 6.647440e+001
1.132884e+003, 6.650733e+001
1.133366e+003, 6.647495e+001
1.133848e+003, 6.636263e+001
1.134330e+003, 6.647922e+001
1.134812e+003, 6.688594e+001
1.135294e+003, 6.718607e+001
1.135776e+003, 6.720342e+001
1.136259e+003, 6.703168e+001
1.136741e+003, 6.659644e+001
1.137223e+003, 6.612961e+001
1.137705e+003, 6.600789e+001
1.138187e+003, 6.654366e+001
1.138669e+003, 6.692794e+001
1.139151e+003, 6.716127e+001
1.139633e+003, 6.721851e+001
1.140116e+003, 6.692942e+001
1.140598e+003, 6.653266e+001
1.141080e+003, 6.661822e+001
1.141562e+003, 6.702095e+001
1.142044e+003, 6.728165e+001
1.142526e+003, 6.718957e+001
1.143008e+003, 6.697591e+001
1.143490e+003, 6.656844e+001
1.143973e+003, 6.622460e+001
1.144455e+003, 6.624512e+001
1.144937e+003, 6.653652e+001
1.145419e+003, 6.689225e+001
1.145901e+003, 6.725767e+001
1.146383e+003, 6.736096e+001
1.146865e+003, 6.668484e+001
1.147347e+003, 6.620959e+001
1.147829e+003, 6.631471e+001
1.148312e+003, 6.667431e+001
1.148794e+003, 6.677799e+001
1.149276e+003, 6.666595e+001
1.149758e+003, 6.661221e+001
1.150240e+003, 6.664992e+001
1.150722e+003, 6.665634e+001
1.151204e+003, 6.649870e+001
1.151686e+003, 6.634098e+001
1.152168e+003, 6.624487e+001
1.152651e+003, 6.622501e+001
1.153133e+003, 6.638915e+001
1.153615e+003, 6.672340e+001
1.154097e+003, 6.688013e+001
1.154579e+003, 6.674519e+001
1.155061e+003, 6.659837e+001
1.155543e+003, 6.671969e+001
1.156025e+003, 6.688332e+001
1.156508e+003, 6.687541e+001
1.156990e+003, 6.671526e+001
1.157472e+003, 6.659055e+001
1.157954e+003, 6.649516e+001
1.158436e+003, 6.656068e+001
1.158918e+003, 6.690137e+001
1.159400e+003, 6.725178e+001
1.159882e+003, 6.734110e+001
1.160365e+003, 6.729165e+001
1.160847e+003, 6.725905e+001
1.161329e+003, 6.728733e+001
1.161811e+003, 6.708164e+001
1.162293e+003, 6.658682e+001
1.162775e+003, 6.621775e+001
1.163257e+003, 6.625571e+001
1.163739e+003, 6.644726e+001
1.164221e+003, 6.648598e+001
1.164703e+003, 6.644826e+001
1.165186e+003, 6.646574e+001
1.165668e+003, 6.660592e+001
1.166150e+003, 6.668831e+001
1.166632e+003, 6.669154e+001
1.167114e+003, 6.671188e+001
1.167596e+003, 6.686672e+001
1.168078e+003, 6.705437e+001
1.168560e+003, 6.709324e+001
1.169043e+003, 6.702750e+001
1.169525e+003, 6.697313e+001
1.170007e+003, 6.690120e+001
1.170489e+003, 6.698605e+001
1.170971e+003, 6.734041e+001
1.171453e+003, 6.759227e+001
1.171935e+003, 6.719529e+001
1.172417e+003, 6.652779e+001
1.172900e+003, 6.635196e+001
1.173382e+003, 6.661691e+001
1.173864e+003, 6.692109e+001
1.174346e+003, 6.731504e+001
1.174828e+003, 6.744286e+001
1.175310e+003, 6.715491e+001
1.175792e+003, 6.677528e+001
1.176274e+003, 6.677921e+001
1.176756e+003, 6.699590e+001
1.177239e+003, 6.694514e+001
1.177721e+003, 6.661854e+001
1.178203e+003, 6.650362e+001
1.178685e+003, 6.715372e+001
1.179167e+003, 6.754206e+001
1.179649e+003, 6.731736e+001
1.180131e+003, 6.685155e+001
1.180613e+003, 6.682896e+001
1.181095e+003, 6.711577e+001
1.181578e+003, 6.731889e+001
1.182060e+003, 6.737641e+001
1.182542e+003, 6.745372e+001
1.183024e+003, 6.770898e+001
1.183506e+003, 6.788764e+001
1.183988e+003, 6.786510e+001
1.184470e+003, 6.773965e+001
1.184952e+003, 6.778206e+001
1.185435e+003, 6.793971e+001
1.185917e+003, 6.804530e+001
1.186399e+003, 6.807524e+001
1.186881e+003, 6.796151e+001
1.187363e+003, 6.747281e+001
1.187845e+003, 6.704582e+001
1.188327e+003, 6.689182e+001
1.188809e+003, 6.695783e+001
1.189292e+003, 6.708101e+001
1.189774e+003, 6.724959e+001
1.190256e+003, 6.741765e+001
1.190738e+003, 6.758512e+001
1.191220e+003, 6.770631e+001
1.191702e+003, 6.777785e+001
1.192184e+003, 6.776643e+001
1.192666e+003, 6.757961e+001
1.193148e+003, 6.728665e+001
1.193630e+003, 6.751229e+001
1.194113e+003, 6.812939e+001
1.194595e+003, 6.835533e+001
1.195077e+003, 6.752748e+001
1.195559e+003, 6.687637e+001
1.196041e+003, 6.728757e+001
1.196523e+003, 6.790046e+001
1.197005e+003, 6.799957e+001
1.197487e+003, 6.763019e+001
1.197970e+003, 6.757861e+001
1.198452e+003, 6.781571e+001
1.198934e+003, 6.812017e+001
1.199416e+003, 6.858385e+001
1.199898e+003, 6.882083e+001
1.200380e+003, 6.847189e+001
1.200862e+003, 6.792358e+001
1.201344e+003, 6.750571e+001
1.201827e+003, 6.721562e+001
1.202309e+003, 6.724160e+001
1.202791e+003, 6.755493e+001
1.203273e+003, 6.782558e+001
1.203755e+003, 6.773508e+001
1.204237e+003, 6.769862e+001
1.204719e+003, 6.807240e+001
1.205201e+003, 6.852126e+001
1.205683e+003, 6.861446e+001
1.206166e+003, 6.835765e+001
1.206648e+003, 6.818688e+001
1.207130e+003, 6.811643e+001
1.207612e+003, 6.806493e+001
1.208094e+003, 6.797568e+001
1.208576e+003, 6.789721e+001
1.209058e+003, 6.784793e+001
1.209540e+003, 6.783199e+001
1.210022e+003, 6.788890e+001
1.210505e+003, 6.801295e+001
1.210987e+003, 6.797855e+001
1.211469e+003, 6.777431e+001
1.211951e+003, 6.760238e+001
1.212433e+003, 6.761758e+001
1.212915e+003, 6.768130e+001
1.213397e+003, 6.769469e+001
1.213879e+003, 6.771896e+001
1.214362e+003, 6.793220e+001
1.214844e+003, 6.830733e+001
1.215326e+003, 6.835622e+001
1.215808e+003, 6.802067e+001
1.216290e+003, 6.771330e+001
1.216772e+003, 6.765279e+001
1.217254e+003, 6.777142e+001
1.217736e+003, 6.813789e+001
1.218219e+003, 6.859763e+001
1.218701e+003, 6.884086e+001
1.219183e+003, 6.887943e+001
1.219665e+003, 6.884300e+001
1.220147e+003, 6.874438e+001
1.220629e+003, 6.870276e+001
1.221111e+003, 6.892149e+001
1.221593e+003, 6.908138e+001
1.222075e+003, 6.899681e+001
1.222557e+003, 6.874351e+001
1.223040e+003, 6.845544e+001
1.223522e+003, 6.815250e+001
1.224004e+003, 6.800630e+001
1.224486e+003, 6.805424e+001
1.224968e+003, 6.817596e+001
1.225450e+003, 6.843066e+001
1.225932e+003, 6.858920e+001
1.226414e+003, 6.850303e+001
1.226897e+003, 6.826559e+001
1.227379e+003, 6.813396e+001
1.227861e+003, 6.810406e+001
1.228343e+003, 6.817909e+001
1.228825e+003, 6.838794e+001
1.229307e+003, 6.851043e+001
1.229789e+003, 6.822272e+001
1.230271e+003, 6.805745e+001
1.230754e+003, 6.840914e+001
1.231236e+003, 6.900365e+001
1.231718e+003, 6.873582e+001
1.232200e+003, 6.787032e+001
1.232682e+003, 6.756911e+001
1.233164e+003, 6.826546e+001
1.233646e+003, 6.883955e+001
1.234128e+003, 6.859487e+001
1.234610e+003, 6.826185e+001
1.235093e+003, 6.816286e+001
1.235575e+003, 6.823838e+001
1.236057e+003, 6.832314e+001
1.236539e+003, 6.842005e+001
1.237021e+003, 6.855180e+001
1.237503e+003, 6.875436e+001
1.237985e+003, 6.887459e+001
1.238467e+003, 6.881026e+001
1.238949e+003, 6.869508e+001
1.239432e+003, 6.854882e+001
1.239914e+003, 6.841751e+001
1.240396e+003, 6.848882e+001
1.240878e+003, 6.869021e+001
1.241360e+003, 6.882249e+001
1.241842e+003, 6.882776e+001
1.242324e+003, 6.876077e+001
1.242806e+003, 6.857714e+001
1.243289e+003, 6.841816e+001
1.243771e+003, 6.832406e+001
1.244253e+003, 6.832714e+001
1.244735e+003, 6.859306e+001
1.245217e+003, 6.900912e+001
1.245699e+003, 6.932240e+001
1.246181e+003, 6.949262e+001
1.246663e+003, 6.942793e+001
1.247146e+003, 6.898386e+001
1.247628e+003, 6.864465e+001
1.248110e+003, 6.874184e+001
1.248592e+003, 6.904331e+001
1.249074e+003, 6.909038e+001
1.249556e+003, 6.896042e+001
1.250038e+003, 6.878208e+001
1.250520e+003, 6.847459e+001
1.251002e+003, 6.848054e+001
1.251484e+003, 6.893777e+001
1.251967e+003, 6.931273e+001
1.252449e+003, 6.922673e+001
1.252931e+003, 6.894913e+001
1.253413e+003, 6.888947e+001
1.253895e+003, 6.895919e+001
1.254377e+003, 6.900224e+001
1.254859e+003, 6.895920e+001
1.255341e+003, 6.898373e+001
1.255824e+003, 6.909672e+001
1.256306e+003, 6.917432e+001
1.256788e+003, 6.910814e+001
1.257270e+003, 6.900970e+001
1.257752e+003, 6.907533e+001
1.258234e+003, 6.917771e+001
1.258716e+003, 6.905886e+001
1.259198e+003, 6.854633e+001
1.259681e+003, 6.855973e+001
1.260163e+003, 6.916701e+001
1.260645e+003, 6.965901e+001
1.261127e+003, 6.960650e+001
1.261609e+003, 6.930783e+001
1.262091e+003, 6.877802e+001
1.262573e+003, 6.831135e+001
1.263055e+003, 6.837610e+001
1.263537e+003, 6.909304e+001
1.264020e+003, 6.936098e+001
1.264502e+003, 6.918685e+001
1.264984e+003, 6.900050e+001
1.265466e+003, 6.901088e+001
1.265948e+003, 6.913808e+001
1.266430e+003, 6.947187e+001
1.266912e+003, 6.979477e+001
1.267394e+003, 6.985510e+001
1.267876e+003, 6.964824e+001
1.268359e+003, 6.941682e+001
1.268841e+003, 6.917410e+001
1.269323e+003, 6.903997e+001
1.269805e+003, 6.910676e+001
1.270287e+003, 6.926116e+001
1.270769e+003, 6.953147e+001
1.271251e+003, 6.980428e+001
1.271733e+003, 7.003738e+001
1.272216e+003, 7.020988e+001
1.272698e+003, 7.007170e+001
1.273180e+003, 6.968619e+001
1.273662e+003, 6.934983e+001
1.274144e+003, 6.922032e+001
1.274626e+003, 6.912146e+001
1.275108e+003, 6.898000e+001
1.275590e+003, 6.889930e+001
1.276073e+003, 6.900016e+001
1.276555e+003, 6.922038e+001
1.277037e+003, 6.938159e+001
1.277519e+003, 6.947694e+001
1.278001e+003, 6.948790e+001
1.278483e+003, 6.932186e+001
1.278965e+003, 6.920025e+001
1.279447e+003, 6.914244e+001
1.279929e+003, 6.911520e+001
1.280411e+003, 6.913197e+001
1.280894e+003, 6.913985e+001
1.281376e+003, 6.892580e+001
1.281858e+003, 6.864419e+001
1.282340e+003, 6.865598e+001
1.282822e+003, 6.933005e+001
1.283304e+003, 6.964928e+001
1.283786e+003, 6.954108e+001
1.284268e+003, 6.943896e+001
1.284751e+003, 6.979366e+001
1.285233e+003, 7.017908e+001
1.285715e+003, 7.000545e+001
1.286197e+003, 6.954492e+001
1.286679e+003, 6.928272e+001
1.287161e+003, 6.931792e+001
1.287643e+003, 6.918151e+001
1.288125e+003, 6.885854e+001
1.288608e+003, 6.874100e+001
1.289090e+003, 6.928004e+001
1.289572e+003, 6.987354e+001
1.290054e+003, 7.009935e+001
1.290536e+003, 7.012879e+001
1.291018e+003, 7.018880e+001
1.291500e+003, 7.028117e+001
1.291982e+003, 7.038731e+001
1.292464e+003, 7.048831e+001
1.292947e+003, 7.041402e+001
1.293429e+003, 6.982945e+001
1.293911e+003, 6.939046e+001
1.294393e+003, 6.957243e+001
1.294875e+003, 6.984621e+001
1.295357e+003, 6.975698e+001
1.295839e+003, 6.941343e+001
1.296321e+003, 6.954948e+001
1.296803e+003, 7.001465e+001
1.297286e+003, 7.025057e+001
1.297768e+003, 6.981101e+001
1.298250e+003, 6.949566e+001
1.298732e+003, 6.940815e+001
1.299214e+003, 6.948619e+001
1.299696e+003, 6.976173e+001
1.300178e+003, 7.011613e+001
##END=



