##NAMES=Protochabourneite
##RRUFFID=R140583
##IDEAL CHEMISTRY=Tl^1+^_4-x_Pb^2+^_2+2x_Sb^3+^_20-x-y_As^3+^_y_S^2-^_34_ (with 0.02 &#8804; x &#8804; 0.34, 5.71 &#8804; y &#8804; 6.69)
##LOCALITY=Monte Arsiccio mine, Sant'Anna Di Stazzema, Stazzema, Apuan Alps, Lucca Province, Tuscany, Italy
##OWNER=RRUFF
##SOURCE=Stefan Schorn
##DESCRIPTION=Black metallic crystals
##STATUS=The identification of this mineral has been confirmed by single-crystal X-ray diffraction.
##URL=rruff.info/R140583
93.84985, 0.0000000E+00
94.33197, 4.037109
94.81409, 12.79785
95.29620, 13.46606
95.77832, 11.70337
96.26044, 6.680420
96.74255, 1.656982
97.22467, 6.1035000E-02
97.70679, 2.767822
98.18890, 6.361328
98.67102, 7.933838
99.15314, 8.931152
99.63525, 9.097168
100.1174, 7.561279
100.5995, 4.518799
101.0816, 2.295898
101.5637, 0.1201170
102.0458, 0.3486330
102.5280, 1.041260
103.0101, 3.563721
103.4922, 5.760742
103.9743, 6.365967
104.4564, 5.181641
104.9385, 4.997559
105.4207, 5.407715
105.9028, 6.448242
106.3849, 9.146729
106.8670, 13.24292
107.3491, 16.26733
107.8312, 15.26416
108.3134, 10.26685
108.7955, 6.580078
109.2776, 5.343018
109.7597, 5.937744
110.2418, 7.672119
110.7239, 10.73047
111.2061, 13.67041
111.6882, 15.28979
112.1703, 15.80444
112.6524, 16.07422
113.1345, 16.49683
113.6166, 17.30322
114.0988, 18.59912
114.5809, 20.71851
115.0630, 22.67163
115.5451, 23.79297
116.0272, 24.07983
116.5093, 24.21997
116.9915, 25.47266
117.4736, 28.53394
117.9557, 31.06006
118.4378, 32.59058
118.9199, 33.86914
119.4020, 34.87671
119.8842, 35.55884
120.3663, 36.14600
120.8484, 36.10107
121.3305, 34.35278
121.8126, 34.91553
122.2947, 37.68115
122.7769, 40.74438
123.2590, 42.94995
123.7411, 44.15356
124.2232, 42.76099
124.7053, 41.03516
125.1874, 38.70776
125.6696, 37.17017
126.1517, 37.65063
126.6338, 38.47974
127.1159, 39.29565
127.5980, 41.42969
128.0801, 44.35449
128.5623, 45.90576
129.0444, 45.19092
129.5265, 44.21484
130.0086, 43.99268
130.4907, 44.81812
130.9728, 46.33618
131.4550, 49.54541
131.9371, 52.35107
132.4192, 52.97534
132.9013, 49.84497
133.3834, 43.88965
133.8655, 38.99414
134.3477, 36.08887
134.8298, 34.45508
135.3119, 34.25073
135.7940, 34.53589
136.2761, 34.52539
136.7582, 33.64746
137.2404, 31.90161
137.7225, 30.99365
138.2046, 33.15381
138.6867, 34.24194
139.1688, 32.33813
139.6509, 27.91724
140.1331, 22.86499
140.6152, 19.03125
141.0973, 16.75073
141.5794, 14.79272
142.0615, 13.26514
142.5436, 11.91260
143.0258, 10.34717
143.5079, 8.589355
143.9900, 7.230713
144.4721, 7.192627
144.9542, 9.309570
145.4363, 10.58984
145.9185, 10.28687
146.4006, 9.316650
146.8827, 8.959717
147.3648, 9.716553
147.8469, 10.45825
148.3290, 8.673096
148.8112, 4.028320
149.2933, 0.3376460
149.7754, 0.6181640
150.2575, 0.4951170
150.7396, 1.947021
151.2217, 4.004639
151.7039, 6.510254
152.1860, 6.063232
152.6681, 2.275146
153.1502, 1.419189
153.6323, 1.874268
154.1144, 1.064697
154.5966, 3.212402
155.0787, 2.824463
155.5608, 1.580078
156.0429, 0.5625000
156.5250, 3.1740000E-03
157.0071, 0.5771480
157.4893, 2.148926
157.9714, 5.678223
158.4535, 7.538574
158.9356, 5.882324
159.4177, 3.262695
159.8998, 1.535645
160.3820, 1.330811
160.8641, 2.143555
161.3462, 2.792480
161.8283, 3.419678
162.3104, 3.682617
162.7925, 3.148682
163.2747, 2.385986
163.7568, 2.091797
164.2389, 2.606201
164.7210, 3.654053
165.2031, 4.077148
165.6852, 3.082520
166.1674, 2.388672
166.6495, 2.203857
167.1316, 2.486572
167.6137, 3.285400
168.0958, 4.759033
168.5779, 6.648926
169.0601, 7.397705
169.5422, 6.114258
170.0243, 4.884521
170.5064, 4.762451
170.9885, 5.495605
171.4706, 6.054199
171.9528, 5.830566
172.4349, 4.859863
172.9170, 3.700928
173.3991, 1.861084
173.8812, 0.2385250
174.3633, 0.4431150
174.8455, 0.1667480
175.3276, 0.5437010
175.8097, 1.942627
176.2918, 3.459473
176.7739, 4.022217
177.2560, 3.092285
177.7382, 1.311035
178.2203, 0.6076660
178.7024, 2.818604
179.1845, 4.643799
179.6666, 5.354004
180.1487, 5.584717
180.6309, 6.112793
181.1130, 7.281250
181.5951, 8.926025
182.0772, 10.75146
182.5593, 13.22729
183.0414, 15.01855
183.5236, 15.25098
184.0057, 14.70093
184.4878, 14.45215
184.9699, 15.15015
185.4520, 16.67676
185.9341, 18.30591
186.4163, 20.38818
186.8984, 22.12207
187.3805, 23.58716
187.8626, 24.57520
188.3447, 24.63721
188.8268, 23.29395
189.3090, 20.63184
189.7911, 19.25391
190.2732, 21.27734
190.7553, 22.43262
191.2374, 20.56104
191.7195, 16.80786
192.2017, 13.90674
192.6838, 14.10303
193.1659, 17.58691
193.6480, 19.60498
194.1301, 19.43701
194.6122, 18.88379
195.0944, 18.65454
195.5765, 18.72607
196.0586, 18.65967
196.5407, 17.93481
197.0228, 16.52686
197.5049, 16.40894
197.9871, 18.10303
198.4692, 20.43481
198.9513, 22.98901
199.4334, 25.64233
199.9155, 27.99805
200.3976, 29.73706
200.8798, 30.79956
201.3619, 31.48462
201.8440, 31.22778
202.3261, 31.00659
202.8082, 32.00000
203.2903, 34.28809
203.7725, 36.42310
204.2546, 37.20508
204.7367, 36.94385
205.2188, 36.45386
205.7009, 35.57397
206.1830, 34.63135
206.6652, 34.01562
207.1473, 33.72925
207.6294, 33.73999
208.1115, 34.15942
208.5936, 34.92896
209.0757, 36.03149
209.5579, 37.64282
210.0400, 39.37451
210.5221, 40.49951
211.0042, 40.86035
211.4863, 40.83154
211.9685, 40.17334
212.4506, 39.43140
212.9327, 39.51978
213.4148, 41.20654
213.8969, 43.86060
214.3790, 45.41919
214.8612, 45.00635
215.3433, 44.87817
215.8254, 46.16650
216.3075, 48.07080
216.7896, 49.58130
217.2717, 50.04370
217.7539, 49.61670
218.2360, 49.05249
218.7181, 47.54199
219.2002, 46.92529
219.6823, 48.57397
220.1644, 51.15137
220.6466, 52.67993
221.1287, 51.82666
221.6108, 49.13647
222.0929, 47.88403
222.5750, 50.29004
223.0571, 51.70850
223.5393, 50.83105
224.0214, 48.67725
224.5035, 46.66211
224.9856, 45.60303
225.4677, 45.38965
225.9498, 45.51196
226.4320, 46.31885
226.9141, 47.12378
227.3962, 48.17114
227.8783, 49.23169
228.3604, 49.81055
228.8425, 49.55127
229.3247, 48.70532
229.8068, 48.72925
230.2889, 51.38818
230.7710, 52.96851
231.2531, 51.61108
231.7352, 48.73999
232.2174, 46.90796
232.6995, 47.56519
233.1816, 50.14282
233.6637, 52.21167
234.1458, 54.18213
234.6279, 55.28979
235.1101, 54.87915
235.5922, 53.56055
236.0743, 52.49194
236.5564, 52.27441
237.0385, 52.58740
237.5206, 52.33350
238.0028, 50.61108
238.4849, 49.79004
238.9670, 51.35767
239.4491, 54.43970
239.9312, 57.16553
240.4133, 58.85815
240.8955, 59.53149
241.3776, 59.00439
241.8597, 56.48828
242.3418, 54.89062
242.8239, 56.08740
243.3060, 59.22192
243.7882, 62.01392
244.2703, 63.75586
244.7524, 64.62402
245.2345, 65.05225
245.7166, 65.13916
246.1987, 64.50708
246.6809, 61.79492
247.1630, 57.98364
247.6451, 56.65552
248.1272, 59.86841
248.6093, 64.47974
249.0914, 66.64380
249.5736, 66.34668
250.0557, 65.65430
250.5378, 65.78833
251.0199, 66.48877
251.5020, 66.67529
251.9841, 66.00000
252.4663, 64.91577
252.9484, 63.76807
253.4305, 62.57959
253.9126, 61.48364
254.3947, 60.58838
254.8768, 59.86206
255.3590, 59.20679
255.8411, 58.76074
256.3232, 58.15796
256.8053, 56.99121
257.2874, 55.43530
257.7695, 54.09717
258.2516, 53.32373
258.7338, 53.07544
259.2159, 53.35181
259.6980, 55.13379
260.1801, 55.92700
260.6622, 53.98657
261.1443, 50.20703
261.6265, 46.51416
262.1086, 43.71362
262.5907, 41.90063
263.0728, 41.84473
263.5549, 44.91797
264.0370, 47.65869
264.5192, 48.39087
265.0013, 47.93286
265.4834, 47.71387
265.9655, 48.77441
266.4476, 50.46460
266.9297, 50.28345
267.4119, 46.77417
267.8940, 43.72607
268.3761, 42.56567
268.8582, 42.39478
269.3403, 42.08643
269.8224, 41.09277
270.3046, 39.69678
270.7867, 38.55640
271.2688, 37.22412
271.7509, 37.10474
272.2330, 39.15991
272.7151, 42.03613
273.1973, 44.40479
273.6794, 45.73315
274.1615, 46.40796
274.6436, 47.26416
275.1257, 48.50562
275.6078, 49.47583
276.0900, 49.80005
276.5721, 50.02002
277.0542, 50.58057
277.5363, 51.60498
278.0184, 52.91016
278.5005, 54.34180
278.9827, 56.46460
279.4648, 57.34863
279.9469, 55.31299
280.4290, 53.33130
280.9111, 53.70776
281.3932, 56.68652
281.8754, 60.58887
282.3575, 63.31934
282.8396, 64.68140
283.3217, 65.35938
283.8038, 63.86182
284.2859, 62.99438
284.7681, 64.74194
285.2502, 68.86621
285.7323, 73.49780
286.2144, 76.64990
286.6965, 77.95190
287.1786, 79.91992
287.6608, 84.50830
288.1429, 87.90259
288.6250, 87.49683
289.1071, 84.33813
289.5892, 81.49561
290.0714, 81.45630
290.5535, 84.26196
291.0356, 87.53662
291.5177, 92.13159
291.9998, 96.31104
292.4819, 99.69336
292.9641, 102.3130
293.4462, 104.1479
293.9283, 105.0662
294.4104, 105.3523
294.8925, 106.9482
295.3746, 111.4971
295.8568, 115.5813
296.3389, 118.9563
296.8210, 121.5266
297.3031, 122.9685
297.7852, 123.0986
298.2673, 122.5142
298.7495, 123.0107
299.2316, 125.6389
299.7137, 128.0945
300.1958, 130.2300
300.6779, 132.1650
301.1600, 133.9229
301.6422, 135.5339
302.1243, 137.2100
302.6064, 139.4041
303.0885, 142.9678
303.5706, 145.4670
304.0527, 146.5791
304.5349, 146.9480
305.0170, 146.7556
305.4991, 146.1812
305.9812, 145.7207
306.4633, 146.0388
306.9454, 147.4788
307.4276, 148.5466
307.9097, 149.5752
308.3918, 150.0585
308.8739, 149.2484
309.3560, 147.4761
309.8381, 146.0555
310.3203, 146.2465
310.8024, 148.2441
311.2845, 148.9683
311.7666, 146.9113
312.2487, 145.3344
312.7308, 145.9934
313.2130, 148.0527
313.6951, 149.6594
314.1772, 149.5970
314.6593, 147.8936
315.1414, 145.2572
315.6235, 139.4081
316.1057, 135.1992
316.5878, 134.5277
317.0699, 135.6921
317.5520, 136.7413
318.0341, 136.8348
318.5162, 135.8303
318.9984, 133.3540
319.4805, 126.3651
319.9626, 121.8011
320.4447, 122.0540
320.9268, 123.4883
321.4089, 122.4485
321.8911, 118.1082
322.3732, 112.7979
322.8553, 110.0232
323.3374, 111.6642
323.8195, 111.2910
324.3016, 107.7860
324.7838, 103.3798
325.2659, 99.10278
325.7480, 95.32568
326.2301, 92.37109
326.7122, 90.51624
327.1943, 89.83594
327.6765, 88.28418
328.1586, 85.93042
328.6407, 83.06628
329.1228, 79.03052
329.6049, 74.31836
330.0870, 70.17725
330.5692, 67.66052
331.0513, 66.68115
331.5334, 65.31470
332.0155, 62.41138
332.4976, 59.97620
332.9797, 59.08704
333.4619, 58.73486
333.9440, 57.39795
334.4261, 54.32898
334.9082, 50.31982
335.3904, 47.43274
335.8725, 47.24524
336.3546, 46.06873
336.8367, 43.06287
337.3188, 39.39819
337.8009, 35.97290
338.2831, 33.06763
338.7652, 30.50671
339.2473, 27.99927
339.7294, 25.26221
340.2115, 23.78857
340.6936, 24.41418
341.1758, 25.08533
341.6579, 24.96521
342.1400, 24.05103
342.6221, 22.65723
343.1042, 20.93140
343.5863, 18.87903
344.0685, 17.45630
344.5506, 17.33032
345.0327, 17.13757
345.5148, 16.59766
345.9969, 15.85291
346.4790, 15.24072
346.9612, 14.93799
347.4433, 14.56531
347.9254, 12.75256
348.4075, 7.538208
348.8896, 4.295654
349.3717, 4.615723
349.8539, 6.530151
350.3360, 8.541382
350.8181, 10.12195
351.3002, 11.25769
351.7823, 11.82837
352.2644, 11.62146
352.7466, 11.69714
353.2287, 12.92969
353.7108, 13.70544
354.1929, 12.71411
354.6750, 10.27808
355.1571, 8.016113
355.6393, 7.526123
356.1214, 8.793091
356.6035, 9.559082
357.0856, 9.587158
357.5677, 9.422852
358.0498, 9.006714
358.5320, 8.501953
359.0141, 8.241333
359.4962, 8.499878
359.9783, 9.036133
360.4604, 9.128540
360.9425, 8.565186
361.4247, 8.034302
361.9068, 7.983643
362.3889, 7.909790
362.8710, 7.130127
363.3531, 5.425659
363.8352, 3.847656
364.3174, 3.745483
364.7995, 5.240967
365.2816, 6.923340
365.7637, 9.142090
366.2458, 10.92090
366.7279, 11.87585
367.2101, 11.91821
367.6922, 10.79614
368.1743, 7.444092
368.6564, 2.546875
369.1385, 0.5030520
369.6206, 0.8127440
370.1028, 0.7971190
370.5849, 2.308716
371.0670, 4.481689
371.5491, 5.701904
372.0312, 5.240601
372.5133, 3.745239
372.9955, 1.645752
373.4776, 1.240845
373.9597, 2.834229
374.4418, 1.432617
374.9239, 1.331177
375.4060, 3.479370
375.8882, 4.870361
376.3703, 5.599487
376.8524, 5.488525
377.3345, 4.713379
377.8166, 3.979858
378.2987, 3.378418
378.7809, 2.990479
379.2630, 2.963501
379.7451, 3.257690
380.2272, 3.605225
380.7093, 4.065674
381.1914, 4.454224
381.6736, 4.338013
382.1557, 3.645386
382.6378, 3.270996
383.1199, 4.196777
383.6020, 5.977051
384.0841, 6.640381
384.5663, 4.960815
385.0484, 3.355957
385.5305, 3.686890
386.0126, 5.316528
386.4947, 6.066528
386.9768, 4.803955
387.4590, 2.673096
387.9411, 2.354370
388.4232, 4.683472
388.9053, 6.004517
389.3874, 4.812866
389.8695, 2.614380
390.3517, 1.173340
390.8338, 0.8037110
391.3159, 0.5750730
391.7980, 0.6102290
392.2801, 2.977539
392.7622, 3.986572
393.2444, 2.348999
393.7265, 0.7109380
394.2086, 0.5494380
394.6907, 1.522583
395.1728, 2.575806
395.6549, 3.142090
396.1371, 3.235962
396.6192, 2.927246
397.1013, 0.8666990
397.5834, 9.9609002E-02
398.0655, 1.873047
398.5476, 4.525269
399.0298, 6.499878
399.5119, 7.349487
399.9940, 7.474243
400.4761, 7.322998
400.9582, 6.682983
401.4403, 6.542725
401.9225, 7.645020
402.4046, 8.483521
402.8867, 7.878906
403.3688, 6.399170
403.8509, 5.572754
404.3330, 6.569702
404.8152, 8.974731
405.2973, 10.42505
405.7794, 10.36035
406.2615, 10.09753
406.7436, 9.437744
407.2257, 8.937988
407.7079, 9.431763
408.1900, 11.12524
408.6721, 12.92078
409.1542, 13.00256
409.6363, 10.87463
410.1184, 9.802490
410.6006, 11.08789
411.0827, 12.66516
411.5648, 13.69543
412.0469, 14.14502
412.5290, 14.16541
413.0111, 13.83508
413.4933, 13.16077
413.9754, 11.91248
414.4575, 9.584961
414.9396, 8.067871
415.4217, 8.521606
415.9038, 10.21167
416.3860, 12.67188
416.8681, 16.14075
417.3502, 19.26404
417.8323, 20.36829
418.3144, 19.70483
418.7965, 19.53760
419.2787, 20.75964
419.7608, 22.15369
420.2429, 22.21289
420.7250, 21.06055
421.2071, 20.09241
421.6892, 19.93530
422.1714, 20.15051
422.6535, 20.15076
423.1356, 19.88904
423.6177, 19.64673
424.0998, 19.61621
424.5819, 19.76001
425.0641, 19.85608
425.5462, 19.11328
426.0283, 19.30566
426.5104, 22.34497
426.9925, 26.70215
427.4746, 29.33105
427.9568, 29.16187
428.4389, 27.42273
428.9210, 25.90515
429.4031, 24.80127
429.8852, 23.58191
430.3673, 21.34314
430.8495, 19.79541
431.3316, 20.62463
431.8137, 23.33618
432.2958, 25.83521
432.7779, 26.51465
433.2600, 25.58325
433.7422, 25.19617
434.2243, 26.23657
434.7064, 26.87134
435.1885, 26.44849
435.6706, 25.75012
436.1527, 25.70532
436.6349, 26.54468
437.1170, 27.66016
437.5991, 28.10425
438.0812, 27.52002
438.5633, 27.55029
439.0454, 29.19873
439.5276, 30.56238
440.0097, 30.92615
440.4918, 30.40430
440.9739, 29.27747
441.4560, 27.56616
441.9381, 25.62170
442.4203, 24.43042
442.9024, 24.22253
443.3845, 24.06213
443.8666, 23.19458
444.3487, 22.51770
444.8308, 23.18689
445.3130, 25.42810
445.7951, 27.53552
446.2772, 27.78101
446.7593, 26.56604
447.2414, 25.91968
447.7235, 26.50305
448.2057, 26.87195
448.6878, 24.99658
449.1699, 21.95984
449.6520, 20.61304
450.1341, 22.95203
450.6162, 26.04248
451.0984, 27.25354
451.5805, 26.73254
452.0626, 25.41602
452.5447, 23.29700
453.0268, 21.19385
453.5089, 20.82935
453.9911, 22.34387
454.4732, 24.07324
454.9553, 26.00769
455.4374, 27.68701
455.9195, 28.68079
456.4016, 28.96790
456.8838, 28.88611
457.3659, 28.74622
457.8480, 28.49402
458.3301, 27.38416
458.8122, 24.21570
459.2943, 21.70178
459.7765, 20.56470
460.2586, 20.47656
460.7407, 21.33398
461.2228, 22.98340
461.7049, 24.49255
462.1870, 24.37659
462.6692, 21.95007
463.1513, 20.20569
463.6334, 19.27698
464.1155, 18.80115
464.5976, 18.68396
465.0797, 18.91626
465.5619, 19.68542
466.0440, 21.33057
466.5261, 23.14514
467.0082, 22.73816
467.4903, 18.72571
467.9724, 16.14197
468.4546, 17.47693
468.9367, 19.94531
469.4188, 21.62659
469.9009, 22.31531
470.3830, 22.87952
470.8651, 24.13062
471.3473, 25.77954
471.8294, 26.78601
472.3115, 26.98193
472.7936, 26.74158
473.2757, 26.10657
473.7578, 25.29944
474.2400, 24.70312
474.7221, 24.45862
475.2042, 24.24451
475.6863, 23.58801
476.1684, 22.77185
476.6505, 22.84802
477.1327, 24.31091
477.6148, 25.94092
478.0969, 26.10388
478.5790, 24.56189
479.0611, 23.20593
479.5432, 21.87207
480.0254, 21.00525
480.5075, 21.44250
480.9896, 22.64954
481.4717, 22.91077
481.9538, 21.16638
482.4359, 18.41772
482.9181, 17.52612
483.4002, 20.63269
483.8823, 22.51746
484.3644, 22.60229
484.8465, 21.92932
485.3286, 20.91553
485.8108, 19.80896
486.2929, 19.06360
486.7750, 19.24670
487.2571, 20.14612
487.7392, 19.73315
488.2213, 16.41162
488.7035, 14.41650
489.1856, 15.47815
489.6677, 17.93604
490.1498, 20.54565
490.6319, 22.98804
491.1140, 24.21228
491.5962, 22.22961
492.0783, 17.58521
492.5604, 14.99475
493.0425, 15.73987
493.5246, 17.04077
494.0067, 16.62878
494.4889, 15.23572
494.9710, 14.50000
495.4531, 15.11743
495.9352, 16.17871
496.4173, 17.04333
496.8994, 17.70850
497.3816, 18.18408
497.8637, 18.52368
498.3458, 18.53149
498.8279, 17.83386
499.3100, 16.26367
499.7921, 14.80017
500.2743, 13.34741
500.7564, 12.15833
501.2385, 11.55640
501.7206, 11.40491
502.2027, 11.23169
502.6848, 10.70886
503.1670, 10.04944
503.6491, 10.09949
504.1312, 12.41003
504.6133, 12.89844
505.0954, 9.253662
505.5775, 5.665527
506.0597, 5.347778
506.5418, 8.037231
507.0239, 11.22681
507.5060, 13.05981
507.9881, 13.65161
508.4702, 13.74048
508.9524, 13.33252
509.4345, 12.67480
509.9166, 11.55603
510.3987, 10.40002
510.8808, 9.672607
511.3629, 9.450317
511.8451, 9.259399
512.3271, 8.811523
512.8093, 8.098999
513.2914, 7.310547
513.7735, 6.593384
514.2556, 5.756226
514.7377, 4.285767
515.2198, 2.634521
515.7020, 2.259155
516.1841, 3.921143
516.6662, 5.808105
517.1483, 7.326782
517.6304, 8.485596
518.1125, 9.443115
518.5947, 10.21765
519.0768, 10.25012
519.5589, 8.716431
520.0410, 5.275757
520.5231, 3.397827
521.0052, 4.297363
521.4874, 5.138794
521.9695, 5.024048
522.4516, 4.297485
522.9337, 3.411133
523.4158, 2.550781
523.8979, 1.910645
524.3801, 1.776367
524.8622, 2.190674
525.3443, 2.990723
525.8264, 5.239990
526.3085, 6.676147
526.7906, 5.641235
527.2728, 3.234863
527.7549, 1.644043
528.2370, 1.989380
528.7191, 2.912231
529.2012, 2.441772
529.6833, 0.7115480
530.1655, 0.2540280
530.6476, 0.2481690
531.1297, 1.306519
531.6118, 1.862671
532.0939, 2.012207
532.5760, 2.559814
533.0582, 4.392212
533.5403, 6.055420
534.0224, 6.076782
534.5045, 4.958252
534.9866, 4.396362
535.4688, 5.195313
535.9509, 6.552734
536.4330, 6.952637
536.9151, 5.863647
537.3972, 5.068848
537.8793, 5.156982
538.3615, 4.971069
538.8436, 3.288574
539.3257, 0.8374020
539.8078, 0.5751950
540.2899, 0.1354980
540.7720, 2.070679
541.2542, 3.200806
541.7363, 3.369873
542.2184, 3.204834
542.7005, 2.153564
543.1826, 1.336304
543.6647, 1.495728
544.1469, 2.492188
544.6290, 3.679321
545.1111, 5.273438
545.5932, 6.473389
546.0753, 5.524414
546.5574, 2.527344
547.0396, 0.3072510
547.5217, 2.7100001E-02
548.0038, 0.8575440
548.4859, 2.443970
548.9680, 4.990356
549.4501, 6.052124
549.9323, 3.710083
550.4144, 0.9285890
550.8965, 0.3059080
551.3786, 1.395630
551.8607, 2.108154
552.3428, 1.281860
552.8250, 0.3945310
553.3071, 1.217041
553.7892, 0.7449950
554.2713, 0.1744380
554.7534, 0.9129640
555.2355, 1.731323
555.7177, 1.556274
556.1998, 0.6872560
556.6819, 0.1857910
557.1640, 0.8140870
557.6461, 1.897339
558.1282, 1.818359
558.6104, 0.3555910
559.0925, 0.8364260
559.5746, 1.444214
560.0567, 1.556641
560.5388, 1.115723
561.0209, 0.2141110
561.5031, 0.4814450
561.9852, 0.7354740
562.4673, 0.6612550
562.9494, 0.2457280
563.4315, 0.4410400
563.9136, 1.154663
564.3958, 1.881836
564.8779, 2.311035
565.3600, 1.780640
565.8421, 0.3647460
566.3242, 1.532715
566.8063, 0.8984380
567.2885, 8.4472999E-02
567.7706, 0.1929930
568.2527, 0.8070070
568.7348, 0.7634280
569.2169, 0.5352780
569.6990, 2.168701
570.1812, 2.099365
570.6633, 0.3298340
571.1454, 1.803345
571.6275, 1.102051
572.1096, 0.3756100
572.5917, 0.7457280
573.0739, 1.911743
573.5560, 3.158081
574.0381, 4.365479
574.5202, 5.307983
575.0023, 5.774292
575.4844, 5.762207
575.9666, 5.062744
576.4487, 3.378052
576.9308, 1.796875
577.4129, 1.598755
577.8950, 2.826416
578.3771, 3.633057
578.8593, 3.844360
579.3414, 3.785278
579.8235, 3.302002
580.3056, 2.720337
580.7877, 2.529053
581.2698, 2.878784
581.7520, 3.668579
582.2341, 4.946533
582.7162, 6.887207
583.1984, 7.649048
583.6805, 6.457031
584.1626, 4.988525
584.6447, 3.155762
585.1268, 1.555786
585.6089, 1.169434
586.0911, 2.296753
586.5732, 3.494141
587.0553, 3.060913
587.5374, 1.521118
588.0195, 0.9366460
588.5016, 1.670776
588.9838, 2.450195
589.4659, 2.421265
589.9480, 1.853638
590.4301, 1.604126
590.9122, 1.833130
591.3943, 2.080322
591.8765, 2.190186
592.3586, 2.271362
592.8407, 2.309570
593.3228, 2.387817
593.8049, 2.971924
594.2870, 4.571777
594.7692, 6.690430
595.2513, 6.842651
595.7334, 3.126831
596.2155, 0.8237300
596.6976, 1.258789
597.1797, 2.451172
597.6619, 3.274780
598.1440, 3.652466
598.6261, 3.824951
599.1082, 3.814575
599.5903, 3.794922
600.0724, 4.174438
600.5546, 4.945679
601.0367, 5.617065
601.5188, 6.110962
602.0009, 6.315552
602.4830, 5.893799
602.9651, 4.855225
603.4473, 4.110107
603.9294, 3.961670
604.4115, 3.970703
604.8936, 4.001465
605.3757, 3.978027
605.8578, 3.712891
606.3400, 3.153076
606.8221, 2.558594
607.3042, 2.234253
607.7863, 2.149170
608.2684, 2.640259
608.7505, 4.679077
609.2327, 6.210571
609.7148, 6.474365
610.1969, 6.030762
610.6790, 5.533447
611.1611, 5.175171
611.6432, 4.572388
612.1254, 2.791626
612.6075, 0.4123540
613.0896, 0.6008300
613.5717, 2.5024001E-02
614.0538, 1.243042
614.5359, 3.127930
615.0181, 5.084717
615.5002, 5.373901
615.9823, 3.021362
616.4644, 1.361816
616.9465, 1.357422
617.4286, 2.047241
617.9108, 2.666748
618.3929, 3.253540
618.8750, 4.317749
619.3571, 6.214478
619.8392, 8.450317
620.3214, 9.748901
620.8035, 10.00867
621.2856, 9.619629
621.7677, 7.787842
622.2498, 6.083374
622.7319, 5.710449
623.2141, 6.197021
623.6962, 6.108276
624.1783, 4.394897
624.6604, 2.563232
625.1425, 2.158691
625.6246, 2.876831
626.1068, 3.877686
626.5889, 5.034668
627.0710, 5.639160
627.5531, 4.828003
628.0352, 2.799683
628.5173, 1.886597
628.9995, 2.781860
629.4816, 3.512085
629.9637, 3.294189
630.4458, 3.026001
630.9279, 3.663452
631.4100, 5.069458
631.8922, 6.514404
632.3743, 7.598755
632.8564, 8.239990
633.3385, 7.874023
633.8206, 6.088745
634.3027, 4.963745
634.7849, 5.222534
635.2670, 6.247437
635.7491, 7.703735
636.2312, 9.509888
636.7133, 10.78259
637.1954, 11.10974
637.6776, 10.71814
638.1597, 9.512207
638.6418, 7.916626
639.1239, 7.098022
639.6060, 7.449219
640.0881, 7.996704
640.5703, 7.460693
641.0524, 5.718384
641.5345, 4.401855
642.0166, 4.217529
642.4987, 3.674316
642.9808, 1.666016
643.4630, 0.3706050
643.9451, 0.6802980
644.4272, 0.9152830
644.9093, 2.600952
645.3914, 2.765259
645.8735, 2.007935
646.3557, 1.771240
646.8378, 2.071411
647.3199, 2.664795
647.8020, 3.651245
648.2841, 4.482178
648.7662, 4.049561
649.2484, 1.962891
649.7305, 0.8969730
650.2126, 1.996704
650.6947, 3.114014
651.1768, 2.841675
651.6589, 1.830078
652.1411, 1.339233
652.6232, 1.807617
653.1053, 2.696411
653.5874, 3.348145
654.0695, 3.746338
654.5516, 4.186646
655.0338, 4.906128
655.5159, 5.202759
655.9980, 4.160034
656.4801, 2.824585
656.9622, 2.498535
657.4443, 3.420410
657.9265, 4.080200
658.4086, 3.351318
658.8907, 2.334595
659.3728, 2.415894
659.8549, 3.375732
660.3370, 4.102295
660.8192, 4.091919
661.3013, 3.539551
661.7834, 2.681396
662.2655, 1.179443
662.7476, 0.6051030
663.2297, 1.986694
663.7119, 3.173950
664.1940, 3.468018
664.6761, 3.367432
665.1582, 3.310669
665.6403, 3.285278
666.1224, 2.912598
666.6046, 1.647705
667.0867, 2.8930999E-02
667.5688, 0.5770260
668.0509, 8.0077998E-02
668.5330, 0.5456540
669.0151, 0.8414310
669.4973, 0.9704590
669.9794, 1.279297
670.4615, 1.946167
670.9436, 2.246826
671.4257, 1.834839
671.9078, 1.494751
672.3900, 1.814697
672.8721, 2.429321
673.3542, 2.659546
673.8363, 2.260864
674.3184, 1.619141
674.8005, 0.9886470
675.2827, 0.4395750
675.7648, 0.8469240
676.2469, 2.562988
676.7290, 4.008911
677.2111, 4.316650
677.6932, 3.978149
678.1754, 3.919556
678.6575, 4.294189
679.1396, 4.189087
679.6217, 2.871826
680.1038, 1.470215
680.5859, 0.7414550
681.0681, 0.6334230
681.5502, 1.109253
682.0323, 2.120361
682.5144, 2.991455
682.9965, 2.408936
683.4786, 0.1857910
683.9608, 9.6439999E-03
684.4429, 3.513916
684.9250, 6.112305
685.4071, 5.036499
685.8892, 2.584351
686.3713, 1.181396
686.8535, 1.115479
687.3356, 0.9968260
687.8177, 0.5278320
688.2998, 1.837280
688.7819, 0.7130130
689.2640, 2.140747
689.7462, 4.304565
690.2283, 4.842651
690.7104, 4.358765
691.1925, 3.577637
691.6746, 2.384277
692.1567, 1.967163
692.6389, 3.537354
693.1210, 4.216553
693.6031, 2.058105
694.0852, 0.5216060
694.5673, 0.8367920
695.0494, 1.340820
695.5316, 3.578369
696.0137, 4.691040
696.4958, 4.907959
696.9779, 4.020630
697.4600, 2.406372
697.9421, 1.954468
698.4243, 3.456055
698.9064, 5.187500
699.3885, 4.867188
699.8706, 2.279663
700.3527, 0.6052250
700.8348, 0.4329830
701.3170, 0.5233150
701.7991, 0.9538570
702.2812, 1.445435
702.7633, 1.685059
703.2454, 1.631592
703.7275, 1.369019
704.2097, 0.7476810
704.6918, 0.1257320
705.1739, 0.2368160
705.6560, 0.9322510
706.1381, 1.146606
706.6202, 0.4799800
707.1024, 0.1622310
707.5845, 0.2243650
708.0666, 1.621582
708.5487, 2.651855
709.0308, 3.348145
709.5129, 3.618164
709.9951, 2.855225
710.4772, 2.112183
710.9593, 2.474854
711.4414, 3.740356
711.9235, 4.816895
712.4056, 5.081299
712.8878, 4.896240
713.3699, 4.866211
713.8520, 4.923706
714.3341, 4.536499
714.8162, 3.541260
715.2983, 2.428101
715.7805, 1.496582
716.2626, 0.7825930
716.7447, 0.5141600
717.2268, 1.229370
717.7089, 1.619873
718.1910, 1.180298
718.6732, 0.7307130
719.1553, 0.9654540
719.6374, 1.678833
720.1195, 2.360840
720.6016, 2.847290
721.0837, 2.765503
721.5659, 0.9414060
722.0480, 2.103027
722.5301, 3.223389
723.0122, 1.912720
723.4943, 0.1407470
723.9764, 2.342041
724.4586, 4.260010
724.9407, 5.168823
725.4228, 4.739380
725.9049, 4.205688
726.3870, 3.245605
726.8691, 2.539185
727.3513, 2.562866
727.8334, 3.089844
728.3155, 3.896118
728.7976, 4.870117
729.2797, 5.463013
729.7618, 4.699097
730.2440, 3.081543
730.7261, 2.666992
731.2082, 3.608887
731.6903, 4.089355
732.1724, 3.188721
732.6545, 1.792603
733.1367, 1.222412
733.6188, 1.708618
734.1009, 1.800171
734.5830, 0.6630860
735.0651, 0.1165770
735.5472, 1.538696
736.0294, 3.444946
736.5115, 4.025269
736.9936, 3.110474
737.4757, 1.897583
737.9578, 1.150146
738.4399, 0.8051760
738.9221, 0.8708500
739.4042, 1.309814
739.8863, 1.385498
740.3684, 0.7221680
740.8505, 0.4416500
741.3326, 1.877075
741.8148, 4.792603
742.2969, 6.383911
742.7790, 5.935669
743.2611, 5.188721
743.7432, 3.825562
744.2253, 2.656006
744.7075, 2.424683
745.1896, 2.906250
745.6717, 3.330688
746.1538, 3.366333
746.6359, 3.269775
747.1180, 3.168945
747.6002, 2.980103
748.0823, 2.492920
748.5644, 1.658081
749.0465, 1.258545
749.5286, 1.947510
750.0107, 3.074097
750.4929, 3.012939
750.9750, 0.8719480
751.4571, 0.2694090
751.9392, 0.4084470
752.4213, 1.011108
752.9034, 0.4930420
753.3856, 0.3670650
753.8677, 0.1875000
754.3498, 1.285767
754.8319, 2.650635
755.3140, 2.878418
755.7961, 2.331909
756.2783, 1.204468
756.7604, 0.2766110
757.2425, 0.8471680
757.7246, 4.5531999E-02
758.2067, 1.334229
758.6888, 2.431641
759.1710, 3.255981
759.6531, 3.916992
760.1352, 4.428833
760.6173, 4.716309
761.0994, 4.622314
761.5815, 4.431885
762.0637, 4.440674
762.5458, 4.528320
763.0279, 4.253540
763.5100, 3.033203
763.9921, 2.162354
764.4742, 3.306519
764.9564, 5.310425
765.4385, 6.187866
765.9206, 5.721191
766.4027, 4.527344
766.8848, 2.937134
767.3669, 1.237061
767.8491, 7.2265998E-02
768.3312, 0.5825200
768.8133, 0.5416260
769.2954, 0.7941890
769.7775, 2.000732
770.2596, 2.386963
770.7418, 2.311768
771.2239, 2.178589
771.7060, 2.010864
772.1881, 1.924072
772.6702, 2.084595
773.1523, 2.220947
773.6345, 1.862305
774.1166, 1.376709
774.5987, 1.703857
775.0808, 3.017578
775.5629, 4.261963
776.0450, 4.362061
776.5272, 3.524170
777.0093, 2.604126
777.4914, 1.512939
777.9735, 0.8645020
778.4556, 0.8739010
778.9377, 1.251099
779.4199, 2.153442
779.9020, 3.136108
780.3841, 2.827759
780.8662, 0.3081050
781.3483, 2.112915
781.8304, 0.7418210
782.3126, 1.391724
782.7947, 2.529419
783.2768, 2.668213
783.7589, 2.234131
784.2410, 1.375366
784.7231, 0.6618650
785.2053, 1.148438
785.6874, 2.396118
786.1695, 2.384277
786.6516, 0.9357910
787.1337, 5.7372998E-02
787.6158, 0.7647710
788.0980, 2.176514
788.5801, 2.972412
789.0622, 3.040283
789.5443, 3.288452
790.0264, 4.169556
790.5085, 4.649902
790.9907, 3.880859
791.4728, 3.077026
791.9549, 3.736450
792.4370, 5.558228
792.9191, 6.593750
793.4012, 5.460205
793.8834, 3.880737
794.3655, 3.574463
794.8476, 4.056641
795.3297, 4.274780
795.8118, 4.103027
796.2939, 4.055908
796.7761, 4.465454
797.2582, 5.201172
797.7403, 6.135254
798.2224, 7.622925
798.7045, 7.701660
799.1866, 5.494873
799.6688, 3.215210
800.1509, 1.344482
800.6330, 0.2208250
801.1151, 0.4750980
801.5972, 2.233276
802.0793, 4.236816
802.5615, 7.173340
803.0436, 9.199219
803.5257, 8.235107
804.0078, 6.042969
804.4899, 5.453003
804.9720, 6.780029
805.4542, 8.031372
805.9363, 7.498169
806.4184, 6.139160
806.9005, 6.369385
807.3826, 8.087036
807.8647, 8.770020
808.3469, 7.722168
808.8290, 6.903687
809.3111, 8.003418
809.7932, 10.13428
810.2753, 10.35437
810.7574, 6.728638
811.2396, 5.118042
811.7217, 7.294922
812.2038, 9.515015
812.6859, 10.37952
813.1680, 10.22705
813.6501, 9.331787
814.1323, 7.837280
814.6144, 6.760864
815.0965, 7.312866
815.5786, 8.210205
816.0607, 7.309082
816.5428, 5.497192
817.0250, 5.516357
817.5071, 7.839600
817.9892, 10.02283
818.4713, 9.936157
818.9534, 8.237427
819.4355, 7.343750
819.9177, 7.443237
820.3998, 7.438721
820.8819, 7.097290
821.3640, 6.836060
821.8461, 7.063721
822.3282, 7.491577
822.8104, 7.434692
823.2925, 6.588867
823.7746, 6.412109
824.2567, 8.257324
824.7388, 9.734375
825.2209, 8.994751
825.7031, 7.244507
826.1852, 6.342407
826.6673, 6.621460
827.1494, 6.962769
827.6315, 6.399170
828.1136, 5.456787
828.5958, 5.019165
829.0779, 5.001099
829.5600, 5.072021
830.0421, 5.169434
830.5242, 4.929932
831.0063, 3.862793
831.4885, 2.634033
831.9706, 3.572388
832.4527, 8.296265
832.9348, 10.83228
833.4169, 9.558350
833.8990, 8.056885
834.3812, 7.663330
834.8633, 7.877930
835.3454, 8.106079
835.8275, 8.290283
836.3096, 8.550293
836.7917, 8.780518
837.2739, 9.258911
837.7560, 10.75244
838.2381, 12.31458
838.7202, 12.42163
839.2023, 10.97119
839.6844, 9.225708
840.1666, 7.783936
840.6487, 6.829956
841.1308, 6.937744
841.6129, 7.953247
842.0950, 8.866577
842.5771, 9.575073
843.0593, 10.00525
843.5414, 10.07568
844.0235, 9.966553
844.5056, 10.05286
844.9877, 10.48328
845.4698, 10.32593
845.9520, 8.665771
846.4341, 7.648560
846.9162, 7.998047
847.3983, 8.999634
847.8804, 10.60925
848.3625, 12.44543
848.8447, 12.82996
849.3268, 10.08789
849.8089, 7.556396
850.2910, 7.270508
850.7731, 8.082886
851.2552, 8.932617
851.7374, 9.587891
852.2195, 9.959229
852.7016, 10.00940
853.1837, 9.759399
853.6658, 8.980591
854.1479, 7.904663
854.6301, 7.714111
855.1122, 8.431396
855.5943, 9.125732
856.0764, 9.595825
856.5585, 9.627319
857.0406, 8.776123
857.5228, 7.198975
858.0049, 6.337891
858.4870, 6.656494
858.9691, 6.956299
859.4512, 7.405518
859.9333, 7.560547
860.4155, 7.088135
860.8976, 6.194458
861.3797, 5.107910
861.8618, 3.733276
862.3439, 3.036255
862.8260, 4.071411
863.3082, 5.409546
863.7903, 5.750122
864.2724, 5.535767
864.7545, 5.550537
865.2366, 5.962036
865.7188, 6.707642
866.2009, 8.059814
866.6830, 9.254639
867.1651, 8.297485
867.6472, 5.678711
868.1293, 4.201294
868.6115, 4.323120
869.0936, 4.745483
869.5757, 4.588745
870.0578, 4.238647
870.5399, 4.432251
871.0220, 5.303467
871.5042, 6.106689
871.9863, 7.081787
872.4684, 7.643555
872.9505, 7.355957
873.4326, 6.681519
873.9147, 5.964111
874.3969, 5.216431
874.8790, 4.342651
875.3611, 2.862671
875.8432, 1.933350
876.3253, 1.973755
876.8074, 2.723389
877.2896, 4.488647
877.7717, 6.675537
878.2538, 7.794922
878.7359, 7.324829
879.2180, 7.164185
879.7001, 10.26587
880.1823, 14.26465
880.6644, 14.21948
881.1465, 10.94214
881.6286, 7.998291
882.1107, 6.358765
882.5928, 5.791504
883.0750, 6.283203
883.5571, 7.348511
884.0392, 7.232422
884.5213, 5.731812
885.0034, 4.332764
885.4855, 3.101685
885.9677, 2.221069
886.4498, 1.873657
886.9319, 1.887817
887.4140, 2.021729
887.8961, 2.321167
888.3782, 2.499512
888.8604, 2.212646
889.3425, 2.263916
889.8246, 3.336792
890.3067, 4.489746
890.7888, 5.035767
891.2709, 4.931641
891.7531, 4.230103
892.2352, 2.820190
892.7173, 1.484619
893.1994, 0.7175290
893.6815, 0.3400880
894.1636, 0.2841800
894.6458, 0.4114990
895.1279, 0.2882080
895.6100, 0.1580810
896.0921, 0.1098630
896.5742, 1.573242
897.0563, 3.945801
897.5385, 4.255737
898.0206, 2.672607
898.5027, 1.299805
898.9848, 0.4652100
899.4669, 0.5510250
899.9490, 2.139648
900.4312, 4.311768
900.9133, 4.813843
901.3954, 3.059814
901.8775, 2.296997
902.3596, 2.895508
902.8417, 3.875366
903.3239, 5.469116
903.8060, 6.890503
904.2881, 7.482056
904.7702, 7.266968
905.2523, 6.385498
905.7344, 3.999634
906.2166, 2.212280
906.6987, 1.925171
907.1808, 2.034546
907.6629, 1.666382
908.1450, 1.131104
908.6271, 1.302368
909.1093, 2.366577
909.5914, 3.058472
910.0735, 2.137939
910.5556, 0.7166750
911.0377, 0.1191410
911.5198, 0.4775390
912.0020, 0.4632570
912.4841, 0.1822510
912.9662, 5.3833000E-02
913.4483, 0.3784180
913.9304, 0.6850590
914.4125, 6.7749001E-02
914.8947, 1.653442
915.3768, 2.296997
915.8589, 1.901123
916.3410, 1.305786
916.8231, 0.7631840
917.3052, 0.3391110
917.7874, 0.1116940
918.2695, 8.1055000E-02
918.7516, 0.2539060
919.2337, 0.9599610
919.7158, 1.045654
920.1979, 6.9458000E-02
920.6801, 1.215210
921.1622, 1.880981
921.6443, 2.114136
922.1264, 1.831787
922.6085, 0.9208980
923.0906, 0.3809810
923.5728, 0.9663090
924.0549, 1.186890
924.5370, 0.1528320
925.0191, 1.607178
925.5012, 1.447998
925.9833, 0.1372070
926.4655, 0.3762210
926.9476, 0.7288820
927.4297, 1.978394
927.9118, 2.718506
928.3939, 2.905029
928.8760, 1.935059
929.3582, 0.4610600
929.8403, 0.1508790
930.3224, 0.4628910
930.8045, 2.050659
931.2866, 4.822632
931.7687, 7.615723
932.2509, 7.627075
932.7330, 5.524902
933.2151, 5.444946
933.6972, 7.736816
934.1793, 9.265015
934.6614, 8.399048
935.1436, 6.721436
935.6257, 6.713135
936.1078, 8.222900
936.5899, 7.776611
937.0720, 4.527832
937.5541, 2.946533
938.0363, 4.726807
938.5184, 6.678223
939.0005, 6.173828
939.4826, 4.257690
939.9647, 4.065552
940.4468, 7.080811
940.9290, 7.732056
941.4111, 3.261353
941.8932, 2.4780000E-02
942.3753, 0.7435300
942.8574, 2.650879
943.3395, 2.945190
943.8217, 1.818970
944.3038, 1.048950
944.7859, 1.207275
945.2680, 1.436646
945.7501, 1.531616
946.2322, 1.495239
946.7144, 1.303711
947.1965, 1.000366
947.6786, 0.5140380
948.1607, 0.1018070
948.6428, 0.3170170
949.1249, 0.5368650
949.6071, 1.511475
950.0892, 1.480347
950.5713, 0.9619140
951.0534, 0.7177730
951.5355, 0.8739010
952.0176, 1.604858
952.4998, 2.966309
952.9819, 4.011230
953.4640, 3.209961
953.9461, 1.360840
954.4282, 1.189331
954.9103, 2.405884
955.3925, 2.478638
955.8746, 0.8638920
956.3567, 0.1264650
956.8388, 1.291138
957.3209, 3.746948
957.8030, 3.967773
958.2852, 1.632813
958.7673, 1.053223
959.2494, 2.718018
959.7315, 4.203247
960.2136, 4.853394
960.6957, 4.935669
961.1779, 4.625000
961.6600, 3.968750
962.1421, 3.205444
962.6242, 1.936523
963.1063, 1.381470
963.5884, 2.339966
964.0706, 3.025269
964.5527, 2.240356
965.0348, 1.216980
965.5169, 1.536011
965.9990, 3.103882
966.4811, 4.070557
966.9633, 3.765991
967.4454, 3.427307
967.9275, 3.168945
968.4096, 3.097595
968.8917, 3.424805
969.3738, 3.911072
969.8560, 4.357117
970.3381, 4.700256
970.8202, 4.380493
971.3023, 1.969116
971.7844, 8.1421003E-02
972.2665, 1.237488
972.7487, 3.428528
973.2308, 4.294434
973.7129, 3.973022
974.1950, 3.765381
974.6771, 4.174561
975.1592, 4.503967
975.6414, 3.848694
976.1235, 2.945007
976.6056, 2.913330
977.0877, 3.457642
977.5698, 3.971558
978.0519, 4.261475
978.5341, 4.047485
979.0162, 3.192871
979.4983, 2.214661
979.9804, 1.912231
980.4625, 2.159058
980.9446, 2.363953
981.4268, 2.434265
981.9089, 2.333069
982.3910, 2.144043
982.8731, 1.566711
983.3552, 0.2911380
983.8373, 1.193665
984.3195, 1.597046
984.8016, 0.7933960
985.2837, 0.1563720
985.7658, 1.239563
986.2479, 2.393921
986.7300, 3.674500
987.2122, 4.832397
987.6943, 5.796692
988.1764, 6.400635
988.6585, 5.140503
989.1406, 0.6044920
989.6227, 1.637939
990.1049, 0.3778080
990.5870, 1.408997
991.0691, 2.931946
991.5512, 3.982971
992.0333, 4.045410
992.5154, 3.172241
992.9976, 3.069580
993.4797, 4.922363
993.9618, 5.745605
994.4439, 4.206360
994.9260, 2.936951
995.4081, 3.463623
995.8903, 4.863159
996.3724, 6.152771
996.8545, 7.214600
997.3366, 7.070007
997.8187, 3.989502
998.3008, 1.828125
998.7830, 2.085449
999.2651, 3.199219
999.7472, 4.645935
1000.229, 5.917297
1000.711, 6.041626
1001.194, 4.860046
1001.676, 3.730469
1002.158, 2.949768
1002.640, 2.750977
1003.122, 3.989380
1003.604, 5.316895
1004.086, 5.017212
1004.568, 3.653748
1005.050, 2.989868
1005.533, 3.563904
1006.015, 3.991943
1006.497, 2.948181
1006.979, 1.784668
1007.461, 1.765076
1007.943, 2.404907
1008.425, 3.138733
1008.907, 3.778748
1009.390, 4.026123
1009.872, 3.760071
1010.354, 3.497498
1010.836, 3.851440
1011.318, 4.437988
1011.800, 4.536743
1012.282, 4.402649
1012.764, 4.869202
1013.246, 5.855835
1013.729, 6.310486
1014.211, 5.659546
1014.693, 4.370361
1015.175, 2.414124
1015.657, 0.3436280
1016.139, 3.1920999E-02
1016.621, 1.186890
1017.103, 2.457947
1017.586, 3.528687
1018.068, 4.076904
1018.550, 3.873169
1019.032, 3.324402
1019.514, 3.179688
1019.996, 3.320313
1020.478, 2.652344
1020.960, 1.229553
1021.442, 1.139709
1021.925, 2.942200
1022.407, 4.558411
1022.889, 4.480347
1023.371, 3.594421
1023.853, 3.794373
1024.335, 5.094238
1024.817, 5.306335
1025.299, 4.288330
1025.781, 3.085876
1026.264, 1.771301
1026.746, 1.058716
1027.228, 1.552368
1027.710, 2.886597
1028.192, 4.321167
1028.674, 5.961792
1029.156, 6.595337
1029.638, 5.813782
1030.120, 5.494019
1030.603, 6.471680
1031.085, 7.138123
1031.567, 5.852783
1032.049, 3.681091
1032.531, 3.675476
1033.013, 6.731018
1033.495, 7.853394
1033.977, 6.051758
1034.460, 4.406067
1034.942, 3.488586
1035.424, 3.254211
1035.906, 4.067017
1036.388, 5.400330
1036.870, 5.674377
1037.352, 4.474548
1037.834, 3.655151
1038.317, 2.956360
1038.799, 3.091431
1039.281, 5.214172
1039.763, 7.207397
1040.245, 7.162476
1040.727, 5.788574
1041.209, 5.140930
1041.691, 5.527588
1042.173, 5.465515
1042.656, 4.609070
1043.138, 3.872742
1043.620, 3.253967
1044.102, 2.987122
1044.584, 3.539429
1045.066, 4.529114
1045.548, 5.014648
1046.030, 4.906982
1046.512, 4.368469
1046.995, 2.646179
1047.477, 1.421936
1047.959, 1.794250
1048.441, 2.557800
1048.923, 2.804688
1049.405, 2.708740
1049.887, 2.766785
1050.369, 3.022156
1050.852, 3.529663
1051.334, 5.049988
1051.816, 5.855164
1052.298, 4.849304
1052.780, 3.357971
1053.262, 2.028503
1053.744, 1.167908
1054.226, 1.493835
1054.708, 3.369568
1055.191, 4.585449
1055.673, 3.964661
1056.155, 3.269958
1056.637, 2.832825
1057.119, 3.029419
1057.601, 4.711914
1058.083, 6.997742
1058.565, 8.143555
1059.047, 7.809326
1059.530, 6.967590
1060.012, 5.407043
1060.494, 4.044556
1060.976, 2.776123
1061.458, 2.250427
1061.940, 3.341003
1062.422, 5.394043
1062.904, 7.468262
1063.387, 9.364929
1063.869, 9.914795
1064.351, 7.565857
1064.833, 5.279358
1065.315, 4.236755
1065.797, 3.791138
1066.279, 3.561157
1066.761, 3.417664
1067.244, 3.221252
1067.726, 2.961548
1068.208, 2.854065
1068.690, 3.305786
1069.172, 3.498352
1069.654, 2.550659
1070.136, 1.694153
1070.618, 2.134521
1071.100, 3.276794
1071.583, 4.089661
1072.065, 4.399963
1072.547, 4.558716
1073.029, 4.675476
1073.511, 4.723145
1073.993, 4.843567
1074.475, 4.759827
1074.957, 4.095764
1075.439, 3.165039
1075.922, 2.159912
1076.404, 1.292175
1076.886, 1.395813
1077.368, 3.359741
1077.850, 5.007141
1078.332, 4.931335
1078.814, 4.583862
1079.297, 5.331848
1079.779, 6.277344
1080.261, 5.219116
1080.743, 2.946411
1081.225, 3.985901
1081.707, 11.50641
1082.189, 16.82239
1082.671, 14.34656
1083.153, 10.18469
1083.635, 7.584045
1084.118, 5.994751
1084.600, 4.653503
1085.082, 3.505066
1085.564, 2.791504
1086.046, 2.626099
1086.528, 2.624512
1087.010, 2.829712
1087.492, 2.912903
1087.975, 2.385010
1088.457, 1.896790
1088.939, 2.363770
1089.421, 3.369995
1089.903, 3.774109
1090.385, 3.282959
1090.867, 2.706360
1091.349, 2.250549
1091.832, 1.916748
1092.314, 1.659302
1092.796, 1.560120
1093.278, 1.637512
1093.760, 1.953064
1094.242, 2.872314
1094.724, 4.419250
1095.206, 5.060852
1095.688, 3.265381
1096.171, 1.918945
1096.653, 2.689636
1097.135, 3.558472
1097.617, 2.891418
1098.099, 1.541199
1098.581, 0.7814330
1099.063, 0.7528080
1099.545, 1.086975
1100.027, 1.819580
1100.510, 2.683167
1100.992, 4.332764
1101.474, 5.277527
1101.956, 3.955444
1102.438, 2.023743
1102.920, 1.441589
1103.402, 2.093323
1103.884, 2.604004
1104.367, 2.470825
1104.849, 2.898376
1105.331, 5.051025
1105.813, 6.591797
1106.295, 6.044800
1106.777, 4.989807
1107.259, 4.992981
1107.741, 5.657959
1108.224, 5.682251
1108.706, 4.878052
1109.188, 3.763062
1109.670, 1.714172
1110.152, 0.2911380
1110.634, 0.3558350
1111.116, 0.6418460
1111.598, 0.1915890
1112.080, 0.5673220
1112.563, 0.7031250
1113.045, 8.3678998E-02
1113.527, 2.3071000E-02
1114.009, 1.240479
1114.491, 1.828430
1114.973, 1.066223
1115.455, 0.3473510
1115.937, 0.3027950
1116.419, 0.6780400
1116.902, 1.389343
1117.384, 2.327454
1117.866, 2.170837
1118.348, 0.2069090
1118.830, 1.176147
1119.312, 1.636902
1119.794, 2.103271
1120.276, 3.229248
1120.759, 3.885010
1121.241, 2.658630
1121.723, 0.2834470
1122.205, 0.5853270
1122.687, 0.3764650
1123.169, 1.385071
1123.651, 2.623962
1124.133, 3.219849
1124.615, 2.791382
1125.098, 2.173950
1125.580, 1.973389
1126.062, 1.884766
1126.544, 1.189880
1127.026, 7.4707001E-02
1127.508, 6.0851999E-02
1127.990, 1.472778
1128.472, 2.011963
1128.954, 0.9503170
1129.437, 0.8739010
1129.919, 3.328186
1130.401, 5.719849
1130.883, 4.497559
1131.365, 0.9413450
1131.847, 0.6463620
1132.329, 3.373291
1132.811, 4.392517
1133.294, 3.384705
1133.776, 2.277771
1134.258, 1.704651
1134.740, 1.742432
1135.222, 2.535950
1135.704, 3.653320
1136.186, 4.236938
1136.668, 4.420166
1137.151, 4.792358
1137.633, 5.277344
1138.115, 5.430725
1138.597, 5.151184
1139.079, 4.412842
1139.561, 3.183105
1140.043, 2.076599
1140.525, 1.868652
1141.007, 2.265076
1141.490, 2.797668
1141.972, 3.434937
1142.454, 4.148254
1142.936, 4.895935
1143.418, 5.591614
1143.900, 6.194641
1144.382, 6.703918
1144.864, 7.292908
1145.346, 7.439270
1145.829, 5.816895
1146.311, 4.010742
1146.793, 4.628479
1147.275, 6.431091
1147.757, 6.674438
1148.239, 5.173950
1148.721, 3.694641
1149.203, 2.933716
1149.686, 2.772339
1150.168, 3.620239
1150.650, 4.516541
1151.132, 4.700073
1151.614, 4.596069
1152.096, 4.536194
1152.578, 4.684082
1153.060, 5.450134
1153.542, 6.968079
1154.025, 7.640076
1154.507, 6.083801
1154.989, 4.797302
1155.471, 4.830688
1155.953, 5.112976
1156.435, 4.777344
1156.917, 4.359009
1157.399, 4.802795
1157.881, 6.023315
1158.364, 6.780579
1158.846, 6.920349
1159.328, 6.656006
1159.810, 5.537781
1160.292, 4.623352
1160.774, 4.122681
1161.256, 4.086914
1161.738, 4.819153
1162.221, 5.918030
1162.703, 6.420410
1163.185, 6.282715
1163.667, 6.009094
1164.149, 5.559265
1164.631, 5.026367
1165.113, 4.170837
1165.595, 4.058289
1166.078, 5.479004
1166.560, 7.283386
1167.042, 8.080627
1167.524, 8.017395
1168.006, 7.544189
1168.488, 6.570068
1168.970, 6.366821
1169.452, 7.026306
1169.934, 7.502808
1170.417, 7.506470
1170.899, 7.573303
1171.381, 8.052612
1171.863, 8.571411
1172.345, 8.725586
1172.827, 8.619629
1173.309, 8.191040
1173.791, 7.517822
1174.273, 6.880432
1174.756, 6.387268
1175.238, 6.691406
1175.720, 8.049683
1176.202, 9.189453
1176.684, 8.690186
1177.166, 7.497437
1177.648, 6.514648
1178.130, 5.860413
1178.613, 5.787903
1179.095, 6.148193
1179.577, 6.799500
1180.059, 7.464783
1180.541, 7.519287
1181.023, 6.533203
1181.505, 5.570068
1181.987, 5.364075
1182.469, 5.256958
1182.952, 4.766846
1183.434, 4.214539
1183.916, 3.850098
1184.398, 3.703796
1184.880, 3.715820
1185.362, 3.911194
1185.844, 4.525024
1186.326, 6.030701
1186.808, 7.241150
1187.291, 8.074341
1187.773, 8.423035
1188.255, 7.575317
1188.737, 6.786316
1189.219, 7.852417
1189.701, 9.802856
1190.183, 9.325623
1190.665, 5.497864
1191.148, 4.103821
1191.630, 6.187561
1192.112, 7.785034
1192.594, 8.159119
1193.076, 8.286072
1193.558, 8.767700
1194.040, 8.887878
1194.522, 7.563293
1195.005, 5.314331
1195.487, 4.476318
1195.969, 4.977234
1196.451, 4.496399
1196.933, 3.012573
1197.415, 3.021118
1197.897, 5.083069
1198.379, 7.052917
1198.861, 7.596741
1199.344, 7.097229
1199.826, 5.669434
1200.308, 3.845764
1200.790, 2.244141
1201.272, 1.297058
1201.754, 2.596985
1202.236, 5.389221
1202.718, 7.137390
1203.200, 7.178345
1203.683, 6.564453
1204.165, 5.603333
1204.647, 5.058533
1205.129, 5.871887
1205.611, 6.961609
1206.093, 7.450928
1206.575, 7.581970
1207.057, 7.389587
1207.540, 7.260498
1208.022, 8.594666
1208.504, 11.96100
1208.986, 12.78448
1209.468, 6.504089
1209.950, 2.767517
1210.432, 6.895813
1210.914, 10.24774
1211.396, 7.065552
1211.879, 2.096619
1212.361, 2.8380999E-02
1212.843, 0.2406620
1213.325, 1.313293
1213.807, 3.581177
1214.289, 4.668884
1214.771, 4.247070
1215.253, 3.964783
1215.735, 4.145447
1216.218, 4.602661
1216.700, 5.360229
1217.182, 5.673828
1217.664, 4.414612
1218.146, 2.285461
1218.628, 1.466187
1219.110, 1.819519
1219.592, 2.643433
1220.075, 3.796143
1220.557, 5.131226
1221.039, 6.497559
1221.521, 7.371338
1222.003, 7.466064
1222.485, 6.812378
1222.967, 4.968262
1223.449, 2.882324
1223.932, 1.653381
1224.414, 0.8468630
1224.896, 0.2391970
1225.378, 1.253418
1225.860, 1.431946
1226.342, 0.7724610
1226.824, 0.2071530
1227.306, 0.1882320
1227.788, 9.3139999E-02
1228.271, 1.347656
1228.753, 2.343567
1229.235, 2.529175
1229.717, 2.268921
1230.199, 1.619446
1230.681, 0.8324580
1231.163, 0.2572630
1231.645, 0.1004030
1232.127, 0.1172490
1232.610, 1.266052
1233.092, 1.831909
1233.574, 1.535095
1234.056, 1.491150
1234.538, 2.178955
1235.020, 2.530823
1235.502, 1.695984
1235.984, 0.3618160
1236.467, 0.3360600
1236.949, 0.4752810
1237.431, 0.2066040
1237.913, 0.3458860
1238.395, 0.5036620
1238.877, 0.3557130
1239.359, 0.7167360
1239.841, 1.751526
1240.323, 2.822510
1240.806, 3.539612
1241.288, 4.022888
1241.770, 4.302795
1242.252, 4.464722
1242.734, 4.919067
1243.216, 5.086426
1243.698, 3.851379
1244.180, 1.948608
1244.662, 1.014404
1245.145, 1.285278
1245.627, 1.758667
1246.109, 2.538452
1246.591, 2.846985
1247.073, 2.124695
1247.555, 1.483398
1248.037, 1.504822
1248.519, 1.765198
1249.002, 1.966370
1249.484, 2.051025
1249.966, 1.828979
1250.448, 1.330383
1250.930, 1.436646
1251.412, 2.282166
1251.894, 2.764160
1252.376, 2.764343
1252.859, 2.908325
1253.341, 3.349609
1253.823, 3.719727
1254.305, 3.546875
1254.787, 3.506592
1255.269, 3.625732
1255.751, 3.914368
1256.233, 4.412109
1256.715, 4.918701
1257.198, 4.945374
1257.680, 4.829773
1258.162, 5.410156
1258.644, 6.569763
1259.126, 6.820557
1259.608, 5.101440
1260.090, 3.408691
1260.572, 2.777466
1261.054, 2.647705
1261.537, 3.738098
1262.019, 4.441833
1262.501, 2.660095
1262.983, 0.2091060
1263.465, 0.1271970
1263.947, 2.085388
1264.429, 3.811096
1264.911, 5.520325
1265.394, 5.901245
1265.876, 4.583984
1266.358, 3.887085
1266.840, 4.432556
1267.322, 4.577454
1267.804, 3.257324
1268.286, 1.884521
1268.768, 2.277771
1269.250, 3.565308
1269.733, 3.900696
1270.215, 3.559814
1270.697, 2.978821
1271.179, 2.388306
1271.661, 2.390381
1272.143, 2.887085
1272.625, 3.041199
1273.107, 2.374634
1273.589, 2.291138
1274.072, 4.110229
1274.554, 5.372986
1275.036, 4.578430
1275.518, 3.134216
1276.000, 1.309692
1276.482, 0.1469730
1276.964, 0.1083980
1277.446, 1.035950
1277.929, 1.607483
1278.411, 1.552490
1278.893, 1.568909
1279.375, 1.678040
1279.857, 0.9220580
1280.339, 0.9300540
1280.821, 0.7554320
1281.303, 0.4163820
1281.786, 0.2703250
1282.268, 0.0000000E+00
##END=



