##NAMES=Rasvumite
##RRUFFID=R060491
##IDEAL CHEMISTRY=KFe^2+^Fe^3+^S^2-^_3_
##LOCALITY=Coyote Peak, Humboldt County, California, USA
##OWNER=RRUFF
##SOURCE=Michael Scott
##DESCRIPTION=Parallel aggregates of brownish-red fibers, associated with phlogopite, andradite, augite, pyrrhotite, magnetite, sulphur, and apatite. The sample profile under the red laser matches sulphur
##STATUS=The identification of this mineral has been confirmed by X-ray diffraction.
##URL=rruff.info/R060491
92.19379, 0.0000000E+00
92.67590, 1.194212
93.15802, 2.122920
93.64014, 2.163812
94.12225, 1.688509
94.60437, 1.340994
95.08649, 1.291313
95.56860, 1.346770
96.05072, 1.121574
96.53284, 1.312338
97.01495, 1.336940
97.49707, 1.572758
97.97919, 1.489302
98.46130, 1.562741
98.94342, 1.462208
99.42554, 1.296525
99.90765, 1.143918
100.3898, 1.061798
100.8719, 0.9952760
101.3540, 0.7825380
101.8361, 0.3762610
102.3182, 1.7468000E-02
102.8004, 0.2441270
103.2825, 9.8196998E-02
103.7646, 0.2121450
104.2467, 4.3264002E-02
104.7288, 0.3139150
105.2109, 7.9617999E-02
105.6931, 5.4662000E-02
106.1752, 0.3233610
106.6573, 0.8713000
107.1394, 2.070848
107.6215, 2.935235
108.1036, 3.457787
108.5858, 3.650896
109.0679, 3.515139
109.5500, 2.698691
110.0321, 1.820014
110.5142, 1.212259
110.9963, 1.059320
111.4785, 0.9597670
111.9606, 0.8728900
112.4427, 0.7975680
112.9248, 0.7714390
113.4069, 0.7330460
113.8890, 0.7733790
114.3712, 0.9662860
114.8533, 1.484932
115.3354, 2.008653
115.8175, 2.474840
116.2996, 2.895406
116.7817, 3.150630
117.2639, 3.125572
117.7460, 2.936508
118.2281, 2.729498
118.7102, 2.590992
119.1923, 2.427431
119.6744, 2.145252
120.1566, 1.694409
120.6387, 1.312737
121.1208, 1.123545
121.6029, 1.108960
122.0850, 1.238196
122.5671, 1.520546
123.0493, 1.925731
123.5314, 2.507718
124.0135, 3.416565
124.4956, 4.148624
124.9777, 4.072198
125.4598, 3.345936
125.9420, 2.567417
126.4241, 2.074469
126.9062, 1.799635
127.3883, 1.618012
127.8704, 1.493239
128.3525, 1.463598
128.8347, 1.646412
129.3168, 2.023734
129.7989, 2.374225
130.2810, 2.442259
130.7631, 2.299582
131.2452, 2.273192
131.7274, 2.544054
132.2095, 2.957724
132.6916, 3.046352
133.1737, 2.757335
133.6558, 2.347444
134.1379, 2.272658
134.6201, 2.550496
135.1022, 2.754429
135.5843, 2.879040
136.0664, 2.897007
136.5485, 2.822883
137.0306, 2.683009
137.5128, 2.586743
137.9949, 2.731446
138.4770, 3.156346
138.9591, 3.685746
139.4412, 4.372454
139.9233, 5.248703
140.4055, 5.685268
140.8876, 5.549785
141.3697, 5.118481
141.8518, 4.843336
142.3339, 4.777436
142.8160, 4.722609
143.2982, 4.584524
143.7803, 4.336012
144.2624, 4.135229
144.7445, 3.918564
145.2266, 3.776181
145.7087, 3.928217
146.1909, 4.550998
146.6730, 5.241524
147.1551, 5.858601
147.6372, 6.411613
148.1193, 6.866255
148.6014, 7.245571
149.0836, 7.525478
149.5657, 7.756511
150.0478, 7.800811
150.5299, 7.910876
151.0120, 8.203486
151.4941, 9.154733
151.9763, 9.723876
152.4584, 9.706246
152.9405, 9.216231
153.4226, 8.839287
153.9047, 8.749631
154.3868, 8.699212
154.8690, 8.551148
155.3511, 8.348978
155.8332, 7.984259
156.3153, 7.364267
156.7974, 6.523289
157.2795, 5.726337
157.7617, 5.036940
158.2438, 4.409083
158.7259, 3.809498
159.2080, 3.190171
159.6901, 2.630277
160.1722, 2.131233
160.6544, 1.683125
161.1365, 1.346400
161.6186, 1.203522
162.1007, 1.158600
162.5828, 1.102838
163.0649, 0.9841460
163.5471, 0.8922330
164.0292, 0.9267870
164.5113, 1.090833
164.9934, 1.146773
165.4755, 0.8493040
165.9576, 0.4017540
166.4398, 5.9666000E-02
166.9219, 2.4631999E-02
167.4040, 1.4328000E-02
167.8861, 1.2864000E-02
168.3682, 2.9573999E-02
168.8503, 2.0928999E-02
169.3325, 3.7199002E-02
169.8146, 0.1397650
170.2967, 0.2767080
170.7788, 0.5233440
171.2609, 0.7605980
171.7430, 0.8923180
172.2252, 0.9159750
172.7073, 0.8243030
173.1894, 0.5136690
173.6715, 7.1098000E-02
174.1536, 8.3733998E-02
174.6357, 0.1329340
175.1179, 0.2191110
175.6000, 0.1521940
176.0821, 9.9793002E-02
176.5642, 3.5873000E-02
177.0463, 8.6741000E-02
177.5284, 2.5957000E-02
178.0106, 0.1647910
178.4927, 6.2999003E-02
178.9748, 0.1717180
179.4569, 0.1121420
179.9390, 9.3716003E-02
180.4211, 9.4415002E-02
180.9033, 7.7193998E-02
181.3854, 0.1050810
181.8675, 8.7177001E-02
182.3496, 0.1221330
182.8317, 7.8943998E-02
183.3138, 3.0656001E-02
183.7960, 0.1089950
184.2781, 8.0770001E-02
184.7602, 9.9514998E-02
185.2423, 0.3015180
185.7244, 0.4425970
186.2065, 0.4346990
186.6887, 0.3170430
187.1708, 0.2327620
187.6529, 0.1925800
188.1350, 0.1999590
188.6171, 0.2976700
189.0992, 0.4831930
189.5814, 0.6309130
190.0635, 0.6611930
190.5456, 0.5819320
191.0277, 0.4291430
191.5098, 0.1757710
191.9919, 0.1004710
192.4741, 8.8033997E-02
192.9562, 0.1061170
193.4383, 0.1294720
193.9204, 0.1654812
194.4025, 0.1417680
194.8846, 0.2433250
195.3668, 0.2723710
195.8489, 0.2603230
196.3310, 0.2887950
196.8131, 0.3641090
197.2952, 0.4311540
197.7773, 0.4556640
198.2595, 0.4368330
198.7416, 0.3792010
199.2237, 0.2559880
199.7058, 0.1167680
200.1879, 8.9855000E-02
200.6700, 0.1751830
201.1522, 0.3751320
201.6343, 0.7628920
202.1164, 1.374141
202.5985, 1.800312
203.0806, 1.955704
203.5627, 1.910972
204.0449, 1.843230
204.5270, 1.709370
205.0091, 1.689537
205.4912, 2.019203
205.9733, 2.813006
206.4554, 3.230724
206.9376, 3.051208
207.4197, 2.462340
207.9018, 2.184048
208.3839, 2.290783
208.8660, 2.524194
209.3481, 2.711461
209.8303, 2.822061
210.3124, 3.053783
210.7945, 3.469058
211.2766, 4.005213
211.7587, 4.427083
212.2408, 4.684814
212.7230, 4.909377
213.2051, 5.159414
213.6872, 5.371680
214.1693, 5.847336
214.6514, 6.761342
215.1335, 7.968607
215.6157, 8.719099
216.0978, 8.864432
216.5799, 8.855565
217.0620, 8.973804
217.5441, 9.204499
218.0262, 9.605071
218.5084, 10.32234
218.9905, 11.22675
219.4726, 11.69520
219.9547, 11.76335
220.4368, 11.35564
220.9189, 10.32433
221.4011, 8.321827
221.8832, 6.589165
222.3653, 5.222547
222.8474, 4.199131
223.3295, 3.357643
223.8116, 2.699458
224.2938, 2.242738
224.7759, 2.041600
225.2580, 2.238051
225.7401, 2.353819
226.2222, 2.324484
226.7043, 2.189130
227.1865, 2.106917
227.6686, 2.091705
228.1507, 2.109074
228.6328, 2.137767
229.1149, 2.163082
229.5970, 2.232141
230.0792, 2.353376
230.5613, 2.519930
231.0434, 2.707377
231.5255, 2.937255
232.0076, 3.140104
232.4897, 3.289111
232.9719, 3.397260
233.4540, 3.435871
233.9361, 3.348269
234.4182, 3.200626
234.9003, 3.228060
235.3824, 3.540201
235.8646, 3.858973
236.3467, 4.064667
236.8288, 4.109980
237.3109, 4.133006
237.7930, 4.087152
238.2751, 4.015470
238.7573, 4.073899
239.2394, 4.333591
239.7215, 4.630734
240.2036, 4.883606
240.6857, 5.057887
241.1678, 5.265399
241.6500, 5.513412
242.1321, 5.797192
242.6142, 6.109450
243.0963, 6.501852
243.5784, 6.831840
244.0605, 7.018397
244.5427, 6.974513
245.0248, 7.016934
245.5069, 7.185010
245.9890, 7.425761
246.4711, 7.637541
246.9532, 7.891700
247.4354, 8.003079
247.9175, 7.866720
248.3996, 7.373200
248.8817, 6.986431
249.3638, 6.729949
249.8459, 6.560288
250.3281, 6.425353
250.8102, 6.378087
251.2923, 6.285410
251.7744, 6.105290
252.2565, 5.822462
252.7386, 5.495177
253.2208, 5.123723
253.7029, 4.706405
254.1850, 4.214729
254.6671, 3.570997
255.1492, 3.002886
255.6313, 2.596700
256.1135, 2.377179
256.5956, 2.153872
257.0777, 1.920230
257.5598, 1.689145
258.0419, 1.486530
258.5240, 1.337689
259.0062, 1.164563
259.4883, 0.9286630
259.9704, 0.6251360
260.4525, 0.3682980
260.9346, 0.1378540
261.4167, 1.7537000E-02
261.8989, 1.2482000E-02
262.3810, 0.2375290
262.8631, 0.4457460
263.3452, 0.5540400
263.8273, 0.5573800
264.3094, 0.4688360
264.7916, 0.2316830
265.2737, 2.0632001E-02
265.7558, 0.1208960
266.2379, 5.9500001E-03
266.7200, 5.4404002E-02
267.2021, 1.1920000E-03
267.6843, 0.1532960
268.1664, 0.1179230
268.6485, 3.5264000E-02
269.1306, 0.1437890
269.6127, 0.1581720
270.0948, 6.2199000E-02
270.5770, 6.0973000E-02
271.0591, 8.6314999E-02
271.5412, 9.3668997E-02
272.0233, 0.1653690
272.5054, 0.1151010
272.9875, 3.7090001E-03
273.4697, 0.1390220
273.9518, 4.8292000E-02
274.4339, 0.1493300
274.9160, 0.1520210
275.3981, 3.6655001E-02
275.8802, 7.2898999E-02
276.3624, 0.3081390
276.8445, 0.6276280
277.3266, 0.7124510
277.8087, 0.5432900
278.2908, 0.4084130
278.7729, 0.3294630
279.2551, 0.3013510
279.7372, 0.3260040
280.2193, 0.4021720
280.7014, 0.4951590
281.1835, 0.5585670
281.6656, 0.6082840
282.1478, 0.7183060
282.6299, 0.9061450
283.1120, 1.125903
283.5941, 1.319556
284.0762, 1.489546
284.5583, 1.592108
285.0405, 1.542462
285.5226, 1.371092
286.0047, 1.381449
286.4868, 1.602381
286.9689, 1.914429
287.4510, 2.174215
287.9332, 2.382787
288.4153, 2.562212
288.8974, 2.660870
289.3795, 2.731270
289.8616, 3.022837
290.3438, 3.565699
290.8259, 4.120398
291.3080, 4.393924
291.7901, 4.425770
292.2722, 4.469124
292.7543, 4.605163
293.2365, 4.805202
293.7186, 5.012947
294.2007, 5.226721
294.6828, 5.431212
295.1649, 5.628698
295.6470, 5.807103
296.1292, 5.934610
296.6113, 6.003425
297.0934, 6.014370
297.5755, 5.933832
298.0576, 5.771748
298.5397, 5.635350
299.0219, 5.634276
299.5040, 5.713632
299.9861, 5.763645
300.4682, 5.777668
300.9503, 5.727454
301.4324, 5.559408
301.9146, 5.290737
302.3967, 4.985769
302.8788, 4.648499
303.3609, 4.312285
303.8430, 4.041652
304.3251, 3.859481
304.8073, 3.689162
305.2894, 3.465824
305.7715, 3.198922
306.2536, 2.905761
306.7357, 2.492793
307.2178, 2.112241
307.7000, 1.976431
308.1821, 2.126418
308.6642, 2.268020
309.1463, 2.140450
309.6284, 1.869164
310.1105, 1.648050
310.5927, 1.625993
311.0748, 1.637374
311.5569, 1.566657
312.0390, 1.410659
312.5211, 1.227073
313.0032, 1.001206
313.4854, 0.7812920
313.9675, 0.6216020
314.4496, 0.6072860
314.9317, 0.5976680
315.4138, 0.5109630
315.8959, 0.3619000
316.3781, 0.2372310
316.8602, 0.1576930
317.3423, 0.1281080
317.8244, 0.1652340
318.3065, 0.3988640
318.7886, 0.5195060
319.2708, 0.3369320
319.7529, 4.9421001E-02
320.2350, 4.5692999E-02
320.7171, 0.2428540
321.1992, 0.3152440
321.6813, 0.2280730
322.1635, 0.1276880
322.6456, 7.4683003E-02
323.1277, 6.0606394E-02
323.6098, 0.1566680
324.0919, 9.4146997E-02
324.5740, 8.0880001E-02
325.0562, 0.1247880
325.5383, 6.1868999E-02
326.0204, 7.9696000E-02
326.5025, 0.1005640
326.9846, 0.1383460
327.4667, 0.1885290
327.9489, 0.1537430
328.4310, 1.2528000E-02
328.9131, 5.0330002E-02
329.3952, 2.6741000E-02
329.8773, 0.1811680
330.3594, 2.4715999E-02
330.8416, 6.9712996E-02
331.3237, 8.0734998E-02
331.8058, 8.9760004E-03
332.2879, 3.6177114E-02
332.7700, 1.2706000E-02
333.2521, 2.8754000E-02
333.7343, 4.4461999E-02
334.2164, 8.1681997E-02
334.6985, 8.4601998E-02
335.1806, 7.0253000E-02
335.6627, 3.5284001E-02
336.1448, 5.0756000E-02
336.6270, 4.0959999E-02
337.1091, 0.1468090
337.5912, 0.1515840
338.0733, 0.2304170
338.5554, 0.1966260
339.0375, 0.2825754
339.5197, 0.2626613
340.0018, 0.4196770
340.4839, 0.2910490
340.9660, 0.3372430
341.4481, 0.4658610
341.9302, 0.5756630
342.4124, 0.6691560
342.8945, 0.7135680
343.3766, 0.6562700
343.8587, 0.5435410
344.3408, 0.6497600
344.8229, 1.012707
345.3051, 1.330058
345.7872, 1.203696
346.2693, 0.7227560
346.7514, 0.5083410
347.2335, 0.7697050
347.7156, 1.258792
348.1978, 1.509202
348.6799, 1.532760
349.1620, 1.473027
349.6441, 1.354187
350.1262, 1.228047
350.6083, 1.228588
351.0905, 1.387654
351.5726, 1.617778
352.0547, 1.842925
352.5368, 2.060019
353.0189, 2.259908
353.5010, 2.412333
353.9832, 2.556787
354.4653, 2.774496
354.9474, 3.075629
355.4295, 3.309081
355.9116, 3.302206
356.3937, 3.162643
356.8759, 3.050432
357.3580, 2.857469
357.8401, 2.848314
358.3222, 3.397147
358.8043, 4.395718
359.2864, 5.165825
359.7686, 5.170128
360.2507, 4.885149
360.7328, 4.713545
361.2149, 4.779627
361.6970, 4.909555
362.1791, 5.038838
362.6613, 5.180735
363.1434, 5.366150
363.6255, 5.590139
364.1076, 5.870831
364.5897, 6.252468
365.0718, 6.793491
365.5540, 7.218597
366.0361, 7.357409
366.5182, 7.395255
367.0003, 7.554507
367.4824, 8.085605
367.9645, 8.509114
368.4467, 8.663758
368.9288, 8.529949
369.4109, 8.520945
369.8930, 8.645861
370.3751, 8.889825
370.8572, 9.260523
371.3394, 9.906340
371.8215, 10.41765
372.3036, 10.70316
372.7857, 10.83479
373.2678, 11.07413
373.7499, 11.45613
374.2321, 11.88686
374.7142, 12.32806
375.1963, 12.79109
375.6784, 13.22873
376.1605, 13.64202
376.6426, 14.02388
377.1248, 14.33205
377.6069, 14.54696
378.0890, 14.78841
378.5711, 15.11706
379.0532, 15.51679
379.5353, 15.80461
380.0175, 15.97724
380.4996, 16.09261
380.9817, 16.15383
381.4638, 16.17210
381.9459, 16.24601
382.4280, 16.39339
382.9102, 16.59303
383.3923, 16.81154
383.8744, 17.04918
384.3565, 17.30328
384.8386, 17.61559
385.3207, 17.94258
385.8029, 18.15302
386.2850, 18.21643
386.7671, 18.27046
387.2492, 18.51394
387.7313, 18.85022
388.2134, 19.08638
388.6956, 19.05289
389.1777, 18.92870
389.6598, 18.87140
390.1419, 18.86577
390.6240, 18.86746
391.1061, 18.82958
391.5883, 18.76135
392.0704, 18.67316
392.5525, 18.54447
393.0346, 18.42048
393.5167, 18.34641
393.9988, 18.30199
394.4810, 18.20194
394.9631, 17.94418
395.4452, 17.67542
395.9273, 17.47968
396.4094, 17.43301
396.8915, 17.32533
397.3737, 17.03800
397.8558, 16.70773
398.3379, 16.47320
398.8200, 16.50254
399.3021, 16.47261
399.7842, 16.32966
400.2664, 16.07338
400.7485, 15.71767
401.2306, 15.15403
401.7127, 14.59989
402.1948, 14.19962
402.6769, 14.02219
403.1591, 13.85152
403.6412, 13.68420
404.1233, 13.51298
404.6054, 13.31745
405.0875, 13.10265
405.5696, 12.85513
406.0518, 12.56821
406.5339, 12.24196
407.0160, 11.88340
407.4981, 11.48655
407.9802, 11.08702
408.4623, 10.73103
408.9445, 10.41696
409.4266, 10.10712
409.9087, 9.784034
410.3908, 9.466808
410.8729, 9.234282
411.3550, 9.081779
411.8372, 8.888778
412.3193, 8.487985
412.8014, 7.986499
413.2835, 7.648349
413.7656, 7.528108
414.2477, 7.481370
414.7299, 7.363793
415.2120, 7.198894
415.6941, 7.047397
416.1762, 7.015211
416.6583, 6.954853
417.1404, 6.724885
417.6226, 6.323261
418.1047, 5.852166
418.5868, 5.184006
419.0689, 4.558749
419.5510, 4.210480
420.0331, 4.420319
420.5153, 4.627429
420.9974, 4.631915
421.4795, 4.475003
421.9616, 4.258892
422.4437, 3.883188
422.9258, 3.560529
423.4080, 3.410284
423.8901, 3.510304
424.3722, 3.523139
424.8543, 3.259929
425.3364, 2.978019
425.8185, 2.946070
426.3007, 3.508626
426.7828, 3.813686
427.2649, 3.659323
427.7470, 3.121884
428.2291, 2.673589
428.7112, 2.287798
429.1934, 2.043520
429.6755, 2.051860
430.1576, 2.414956
430.6397, 2.461380
431.1218, 2.064810
431.6039, 1.522511
432.0861, 1.342480
432.5682, 1.552530
433.0503, 1.716234
433.5324, 1.678762
434.0145, 1.481063
434.4966, 1.220697
434.9788, 0.8938460
435.4609, 0.6315400
435.9430, 0.5788790
436.4251, 0.6780170
436.9072, 0.7698390
437.3893, 0.8287340
437.8715, 0.8659740
438.3536, 0.9228270
438.8357, 0.9726190
439.3178, 0.9408750
439.7999, 0.7135630
440.2820, 0.4372610
440.7642, 0.2434040
441.2463, 0.1399060
441.7284, 5.3580999E-02
442.2105, 6.5757997E-02
442.6926, 0.1857860
443.1747, 0.2747880
443.6569, 0.2887280
444.1390, 0.2967820
444.6211, 0.2280300
445.1032, 0.1282700
445.5853, 2.9417999E-02
446.0674, 0.1260140
446.5496, 0.2255680
447.0317, 0.1819390
447.5138, 7.1645997E-02
447.9959, 0.1887370
448.4780, 9.6222997E-02
448.9601, 6.0272999E-02
449.4423, 0.1440340
449.9244, 0.1416890
450.4065, 8.7260000E-02
450.8886, 3.8492002E-02
451.3707, 0.2069980
451.8528, 0.1725740
452.3350, 0.1150600
452.8171, 6.3942999E-02
453.2992, 3.4035999E-02
453.7813, 0.1840120
454.2634, 0.1968200
454.7455, 1.8681999E-02
455.2277, 0.1533120
455.7098, 5.5987000E-02
456.1919, 0.2838620
456.6740, 0.7077410
457.1561, 1.235438
457.6382, 1.746861
458.1204, 1.973087
458.6025, 1.948010
459.0846, 1.901381
459.5667, 1.934763
460.0488, 2.061640
460.5309, 2.334958
461.0131, 2.796489
461.4952, 3.237653
461.9773, 3.506430
462.4594, 3.658323
462.9415, 3.777281
463.4236, 3.681156
463.9058, 3.755447
464.3879, 4.327078
464.8700, 5.309362
465.3521, 6.082252
465.8342, 6.317812
466.3163, 6.475796
466.7985, 6.817919
467.2806, 7.498350
467.7627, 8.115908
468.2448, 8.629009
468.7269, 9.084785
469.2090, 9.564402
469.6912, 10.13860
470.1733, 10.61455
470.6554, 10.93586
471.1375, 11.11455
471.6196, 11.28491
472.1017, 11.48126
472.5839, 11.57268
473.0660, 11.48604
473.5481, 11.22110
474.0302, 10.75327
474.5123, 10.06308
474.9944, 9.219627
475.4766, 8.262512
475.9587, 7.215302
476.4408, 6.218330
476.9229, 5.287725
477.4050, 4.476395
477.8871, 3.936158
478.3693, 3.643616
478.8514, 3.384514
479.3335, 2.970430
479.8156, 2.519089
480.2977, 2.174945
480.7798, 1.974135
481.2620, 1.845749
481.7441, 1.782162
482.2262, 1.757551
482.7083, 1.733929
483.1904, 1.658754
483.6725, 1.619906
484.1547, 1.719691
484.6368, 1.935910
485.1189, 1.975634
485.6010, 1.642735
486.0831, 1.242020
486.5652, 0.9253930
487.0474, 0.7087540
487.5295, 0.5378720
488.0116, 0.4180190
488.4937, 0.3419410
488.9758, 0.2947240
489.4579, 0.2664720
489.9401, 0.3046130
490.4222, 0.4509390
490.9043, 0.6684690
491.3864, 0.7929150
491.8685, 0.8204210
492.3506, 0.7811240
492.8328, 0.6557810
493.3149, 0.4720720
493.7970, 0.3525730
494.2791, 0.3079350
494.7612, 0.3209180
495.2433, 0.4409450
495.7255, 0.6061730
496.2076, 0.6532210
496.6897, 0.4169080
497.1718, 0.1412760
497.6539, 8.2711004E-02
498.1360, 0.1951630
498.6182, 0.2994340
499.1003, 0.2791000
499.5824, 0.2326460
500.0645, 0.2288320
500.5466, 0.2818360
501.0287, 0.3256120
501.5109, 0.3733800
501.9930, 0.3941710
502.4751, 0.3588220
502.9572, 0.1966580
503.4393, 5.3601000E-02
503.9214, 9.2496000E-02
504.4036, 1.8524000E-02
504.8857, 1.4248000E-02
505.3678, 1.7020000E-02
505.8499, 0.1826630
506.3320, 0.3211720
506.8141, 0.3959870
507.2963, 0.3733700
507.7784, 0.2373940
508.2605, 6.7318000E-02
508.7426, 8.2148999E-02
509.2247, 6.1891999E-02
509.7068, 3.3123001E-02
510.1890, 4.3108258E-02
510.6711, 8.3094001E-02
511.1532, 3.4627002E-02
511.6353, 3.5794999E-02
512.1174, 1.8002000E-02
512.5995, 0.2757520
513.0817, 0.5569420
513.5638, 0.6562030
514.0459, 0.5738380
514.5280, 0.4549930
515.0101, 0.3733700
515.4922, 0.3115460
515.9744, 0.2505650
516.4565, 0.1720360
516.9386, 0.1427180
517.4207, 0.1845180
517.9028, 0.2795820
518.3849, 0.3988280
518.8671, 0.5592440
519.3492, 0.7175140
519.8313, 0.9690310
520.3134, 1.287177
520.7955, 1.220536
521.2776, 0.4393870
521.7598, 2.0431001E-02
522.2419, 2.3747001E-02
522.7240, 0.4742010
523.2061, 0.9814590
523.6882, 1.182914
524.1703, 1.238308
524.6525, 1.320616
525.1346, 1.426065
525.6167, 1.478356
526.0988, 1.427290
526.5809, 1.347103
527.0630, 1.414297
527.5452, 1.596771
528.0273, 1.709765
528.5094, 1.530996
528.9915, 1.272672
529.4736, 1.158875
529.9557, 1.209518
530.4379, 1.364166
530.9200, 1.741552
531.4021, 2.120603
531.8842, 2.285363
532.3663, 2.021160
532.8484, 1.771225
533.3306, 1.615846
533.8127, 1.547373
534.2948, 1.559369
534.7769, 1.769371
535.2590, 1.925971
535.7411, 1.948355
536.2233, 1.840488
536.7054, 1.797409
537.1875, 1.839462
537.6696, 1.915599
538.1517, 2.026531
538.6339, 2.180646
539.1160, 2.308309
539.5981, 2.400849
540.0802, 2.455240
540.5623, 2.391683
541.0444, 2.246435
541.5266, 2.203080
542.0087, 2.352430
542.4908, 2.596286
542.9729, 2.734444
543.4550, 2.819144
543.9371, 3.043803
544.4193, 3.632909
544.9014, 4.333973
545.3835, 5.051234
545.8656, 5.789240
546.3477, 6.124493
546.8298, 5.554684
547.3120, 4.695638
547.7941, 4.057647
548.2762, 3.870537
548.7583, 3.703681
549.2404, 3.488251
549.7225, 3.283597
550.2047, 3.206869
550.6868, 3.307394
551.1689, 3.424096
551.6510, 3.553091
552.1331, 3.686004
552.6152, 3.693583
553.0974, 3.549036
553.5795, 3.414853
554.0616, 3.430549
554.5437, 3.562591
555.0258, 3.596632
555.5079, 3.510281
555.9901, 3.412924
556.4722, 3.498163
556.9543, 3.642657
557.4364, 3.564123
557.9185, 3.041243
558.4006, 2.526855
558.8828, 2.407822
559.3649, 2.568782
559.8470, 2.740224
560.3291, 2.877193
560.8112, 2.941284
561.2933, 2.904758
561.7755, 2.755591
562.2576, 2.560061
562.7397, 2.247742
563.2218, 1.971838
563.7039, 1.801854
564.1860, 1.773723
564.6682, 1.741975
565.1503, 1.734149
565.6324, 1.689200
566.1145, 1.475715
566.5966, 1.048323
567.0787, 0.7951870
567.5609, 0.8513950
568.0430, 1.073970
568.5251, 1.189148
569.0072, 1.199607
569.4893, 1.137784
569.9714, 0.9656490
570.4536, 0.7638480
570.9357, 0.6699100
571.4178, 0.6788210
571.8999, 0.6714590
572.3820, 0.5663350
572.8641, 0.4125940
573.3463, 0.2410590
573.8284, 0.1838937
574.3105, 3.5317998E-02
574.7926, 7.2479002E-02
575.2747, 2.3790000E-02
575.7568, 2.1187000E-02
576.2390, 1.5049000E-02
576.7211, 0.2750190
577.2032, 1.161373
577.6853, 2.342010
578.1674, 2.667447
578.6495, 1.861783
579.1317, 1.007523
579.6138, 0.5341520
580.0959, 0.4119170
580.5780, 0.2652630
581.0601, 6.8042003E-02
581.5422, 7.2694004E-02
582.0244, 1.1827000E-02
582.5065, 2.2712000E-02
582.9886, 1.8569000E-02
583.4707, 1.6683999E-02
583.9528, 4.2408001E-02
584.4349, 2.5853001E-02
584.9171, 2.4635000E-02
585.3992, 9.7520001E-02
585.8813, 8.4579997E-03
586.3634, 0.1090380
586.8455, 0.1044700
587.3276, 2.0707000E-02
587.8098, 7.2544001E-02
588.2919, 8.9721002E-02
588.7740, 3.2000000E-05
589.2561, 6.7906998E-02
589.7382, 0.1144210
590.2203, 0.1271230
590.7025, 8.8462003E-02
591.1846, 4.7791999E-02
591.6667, 3.8318999E-02
592.1488, 6.2036999E-02
592.6309, 0.1002970
593.1130, 0.1661830
593.5952, 0.1955250
594.0773, 6.4994000E-02
594.5594, 0.1797090
595.0415, 2.9005000E-02
595.5236, 4.5485001E-02
596.0057, 2.7930001E-02
596.4879, 0.1552410
596.9700, 1.6000000E-05
597.4521, 0.1669320
597.9342, 4.9210001E-02
598.4163, 9.4908997E-02
598.8984, 9.9114001E-02
599.3806, 2.0566000E-02
599.8627, 8.1809998E-02
600.3448, 1.3066000E-02
600.8269, 0.1276330
601.3090, 0.1941800
601.7911, 0.1926890
602.2733, 0.2239210
602.7554, 0.2372580
603.2375, 0.1587220
603.7196, 0.1183380
604.2017, 0.1207570
604.6838, 0.1028070
605.1660, 4.9738001E-02
605.6481, 1.0863000E-02
606.1302, 4.4204000E-02
606.6123, 4.8347000E-02
607.0944, 5.0490000E-03
607.5765, 0.1805660
608.0587, 0.3284920
608.5408, 0.1388840
609.0229, 0.2892420
609.5050, 0.2806114
609.9871, 0.5321720
610.4692, 0.3754860
610.9514, 0.3489390
611.4335, 0.4769020
611.9156, 0.5249810
612.3977, 0.3825120
612.8798, 0.1930950
613.3619, 2.8612999E-02
613.8441, 0.1661750
614.3262, 0.1912010
614.8083, 8.9889998E-03
615.2904, 0.3030910
615.7725, 0.5586760
616.2546, 0.7815320
616.7368, 0.8477030
617.2189, 0.6810020
617.7010, 0.4396890
618.1831, 0.4251390
618.6652, 0.5926790
619.1473, 0.7656640
619.6295, 0.8654770
620.1116, 0.9229480
620.5937, 0.9798580
621.0758, 1.026621
621.5579, 1.016507
622.0400, 0.8431080
622.5222, 0.6712620
623.0043, 0.6146710
623.4864, 0.7134110
623.9685, 0.7537240
624.4506, 0.7074110
624.9327, 0.6026890
625.4149, 0.4214140
625.8970, 5.3123001E-02
626.3791, 1.8601000E-02
626.8612, 0.3236310
627.3433, 0.7946870
627.8254, 0.9604040
628.3076, 0.8373120
628.7897, 0.8018690
629.2718, 1.006290
629.7539, 1.247750
630.2360, 1.112898
630.7181, 0.7238660
631.2003, 0.4705150
631.6824, 0.6784360
632.1645, 0.9854000
632.6466, 1.124210
633.1287, 1.114431
633.6108, 1.100096
634.0930, 1.089901
634.5751, 1.129359
635.0572, 1.248518
635.5393, 1.482378
636.0214, 1.599300
636.5035, 1.511211
636.9857, 1.413540
637.4678, 1.482488
637.9499, 1.756238
638.4320, 1.898688
638.9141, 1.856094
639.3962, 1.748732
639.8784, 1.779859
640.3605, 1.917743
640.8426, 2.029296
641.3247, 2.076787
641.8068, 2.082703
642.2889, 2.027304
642.7711, 1.951359
643.2532, 1.947378
643.7353, 2.179003
644.2174, 2.391009
644.6995, 2.428995
645.1816, 2.318166
645.6638, 2.259120
646.1459, 2.275641
646.6280, 2.368060
647.1101, 2.579815
647.5922, 2.924409
648.0743, 3.065718
648.5565, 2.945926
649.0386, 2.778450
649.5207, 2.713111
650.0028, 2.740775
650.4849, 2.830705
650.9670, 2.990818
651.4492, 3.123654
651.9313, 3.077388
652.4134, 2.940679
652.8955, 2.914258
653.3776, 3.091310
653.8597, 3.251469
654.3419, 3.187175
654.8240, 3.029323
655.3061, 2.961686
655.7882, 3.138491
656.2703, 3.325667
656.7524, 3.505496
657.2346, 3.656928
657.7167, 3.703283
658.1988, 3.608134
658.6809, 3.514713
659.1630, 3.464612
659.6451, 3.457033
660.1273, 3.475194
660.6094, 3.518928
661.0915, 3.628939
661.5736, 3.889744
662.0557, 4.211467
662.5378, 4.390728
663.0200, 4.420153
663.5021, 4.490019
663.9842, 4.864123
664.4663, 5.267016
664.9484, 5.405043
665.4305, 5.106280
665.9127, 4.871349
666.3948, 4.888559
666.8769, 5.019598
667.3590, 5.124205
667.8411, 5.203177
668.3232, 5.248810
668.8054, 5.246245
669.2875, 5.225565
669.7696, 5.219587
670.2517, 5.226959
670.7338, 5.328749
671.2159, 5.586867
671.6981, 5.892311
672.1802, 6.089726
672.6623, 6.195940
673.1444, 6.237939
673.6265, 6.260323
674.1086, 6.202453
674.5908, 5.887961
675.0729, 5.391901
675.5550, 5.174186
676.0371, 5.747470
676.5192, 6.296602
677.0013, 6.396463
677.4835, 5.981696
677.9656, 5.844523
678.4477, 6.100676
678.9298, 6.423501
679.4119, 6.592390
679.8940, 6.607767
680.3762, 6.578651
680.8583, 6.500845
681.3404, 6.424804
681.8225, 6.384072
682.3046, 6.385794
682.7867, 6.470017
683.2689, 6.684008
683.7510, 6.842609
684.2331, 6.717158
684.7152, 6.487707
685.1973, 6.385242
685.6794, 6.638419
686.1616, 6.822677
686.6437, 6.811454
687.1258, 6.698709
687.6079, 6.632324
688.0900, 6.578611
688.5721, 6.686112
689.0543, 7.096129
689.5364, 7.619998
690.0185, 7.614487
690.5006, 7.097564
690.9827, 6.624493
691.4648, 6.499523
691.9470, 6.575388
692.4291, 6.672318
692.9112, 6.777158
693.3933, 6.817442
693.8754, 6.718537
694.3575, 6.569838
694.8397, 6.412505
695.3218, 6.246917
695.8039, 6.130010
696.2860, 6.125285
696.7681, 6.111714
697.2502, 6.021505
697.7324, 5.830021
698.2145, 5.721556
698.6966, 5.723358
699.1787, 5.740664
699.6608, 5.631352
700.1429, 5.450414
700.6251, 5.530674
701.1072, 5.976367
701.5893, 6.340210
702.0714, 6.045844
702.5535, 5.434830
703.0356, 5.004174
703.5178, 4.926104
703.9999, 4.965892
704.4820, 5.103839
704.9641, 5.279453
705.4462, 5.395169
705.9283, 5.430515
706.4105, 5.436508
706.8926, 5.439869
707.3747, 5.402277
707.8568, 5.170399
708.3389, 4.716220
708.8210, 4.447961
709.3032, 4.616626
709.7853, 4.977482
710.2674, 4.974794
710.7495, 4.683204
711.2316, 4.440198
711.7137, 4.518437
712.1959, 4.688095
712.6780, 4.806452
713.1601, 4.872637
713.6422, 4.909250
714.1243, 4.905746
714.6064, 4.871352
715.0886, 4.815389
715.5707, 4.756603
716.0528, 4.625432
716.5349, 4.363985
717.0170, 4.148488
717.4991, 4.161437
717.9813, 4.373220
718.4634, 4.403210
718.9455, 4.239857
719.4276, 4.016978
719.9097, 3.783644
720.3918, 3.555153
720.8740, 3.364771
721.3561, 3.213223
721.8382, 3.147868
722.3203, 3.267770
722.8024, 3.433981
723.2845, 3.529059
723.7667, 3.500351
724.2488, 3.478151
724.7309, 3.455512
725.2130, 3.416355
725.6951, 3.354804
726.1772, 3.284370
726.6594, 3.192055
727.1415, 3.078060
727.6236, 2.945494
728.1057, 2.756827
728.5878, 2.528564
729.0699, 2.388001
729.5521, 2.406326
730.0342, 2.477336
730.5163, 2.582046
730.9984, 2.673247
731.4805, 2.715240
731.9626, 2.704905
732.4448, 2.640282
732.9269, 2.489559
733.4090, 2.293394
733.8911, 2.165488
734.3732, 2.113739
734.8553, 2.106429
735.3375, 2.155881
735.8196, 2.225739
736.3017, 2.238380
736.7838, 2.190959
737.2659, 2.066356
737.7480, 1.771549
738.2302, 1.457493
738.7123, 1.256705
739.1944, 1.159578
739.6765, 1.107666
740.1586, 1.096290
740.6407, 1.110095
741.1229, 1.159147
741.6050, 1.240039
742.0871, 1.284048
742.5692, 1.306661
743.0513, 1.256168
743.5334, 1.067553
744.0156, 0.7651450
744.4977, 0.5623690
744.9798, 0.4580800
745.4619, 0.4024980
745.9440, 0.3844610
746.4261, 0.3799110
746.9083, 0.3322950
747.3904, 0.2351610
747.8725, 0.2216540
748.3546, 0.4934310
748.8367, 0.7680260
749.3188, 0.8332210
749.8010, 0.5991290
750.2831, 0.4399900
750.7652, 0.3883800
751.2473, 0.3606490
751.7294, 0.2870280
752.2115, 0.1690240
752.6937, 5.1424000E-02
753.1758, 6.9665000E-02
753.6579, 0.1465780
754.1400, 7.8984998E-02
754.6221, 4.9807001E-02
755.1042, 8.9469999E-02
755.5864, 1.4379000E-02
756.0685, 0.1007930
756.5506, 4.5584999E-02
757.0327, 5.1004000E-02
757.5148, 8.7127000E-02
757.9969, 1.9440001E-02
758.4791, 7.3858000E-02
758.9612, 3.8743000E-02
759.4433, 6.8480000E-03
759.9254, 6.0198002E-02
760.4075, 0.2496140
760.8896, 0.2363780
761.3718, 0.2723490
761.8539, 0.1569630
762.3360, 0.1192880
762.8181, 0.1352970
763.3002, 0.1565590
763.7823, 0.1762250
764.2645, 0.1844320
764.7466, 0.1674860
765.2287, 0.1378680
765.7108, 0.1133210
766.1929, 5.4700002E-03
766.6750, 4.8300002E-02
767.1572, 0.1072810
767.6393, 5.8140051E-02
768.1214, 0.1393912
768.6035, 4.5382999E-02
769.0856, 0.1781060
769.5677, 0.1756030
770.0499, 6.1728001E-02
770.5320, 5.2418001E-02
771.0141, 0.1362720
771.4962, 0.1091320
771.9783, 0.1567720
772.4604, 0.1294620
772.9426, 5.8040000E-02
773.4247, 9.1719002E-02
773.9068, 8.2795165E-02
774.3889, 0.1652750
774.8710, 0.1128040
775.3531, 0.2784790
775.8353, 0.2705160
776.3174, 1.6316000E-02
776.7995, 0.1262880
777.2816, 0.4828960
777.7637, 0.4667650
778.2458, 0.2537980
778.7280, 7.6727003E-02
779.2101, 5.5326998E-02
779.6922, 0.1105040
780.1743, 7.5579998E-03
780.6564, 0.1100860
781.1385, 0.2246380
781.6207, 0.3055700
782.1028, 0.2126820
782.5849, 0.1164970
783.0670, 0.2416970
783.5491, 0.4406760
784.0313, 0.4869410
784.5134, 0.3370010
784.9955, 1.5915999E-02
785.4776, 8.5794002E-02
785.9597, 9.0640001E-03
786.4418, 0.3863310
786.9240, 0.3836700
787.4061, 9.8488003E-02
787.8882, 0.1119060
788.3703, 4.2480002E-03
788.8524, 0.1647750
789.3345, 0.3094880
789.8167, 0.4167780
790.2988, 0.4159540
790.7809, 0.1744780
791.2630, 8.2350999E-02
791.7451, 0.3607810
792.2272, 0.8758940
792.7094, 1.006155
793.1915, 0.7645650
793.6736, 0.5016040
794.1557, 0.4254010
794.6378, 0.4358620
795.1199, 0.3854990
795.6021, 0.3016120
796.0842, 0.3092380
796.5663, 0.5331970
797.0484, 0.7930700
797.5305, 1.078335
798.0126, 1.360104
798.4948, 1.350546
798.9769, 0.8692090
799.4590, 0.5532000
799.9411, 0.7700010
800.4232, 1.337430
800.9053, 1.497113
801.3875, 1.286787
801.8696, 1.081056
802.3517, 1.147277
802.8338, 1.295500
803.3159, 1.335506
803.7980, 1.281954
804.2802, 1.249535
804.7623, 1.315005
805.2444, 1.363469
805.7265, 1.323668
806.2086, 1.216139
806.6907, 1.248588
807.1729, 1.459783
807.6550, 1.644244
808.1371, 1.711090
808.6192, 1.679070
809.1013, 1.539207
809.5834, 1.321408
810.0656, 1.195859
810.5477, 1.389325
811.0298, 1.600191
811.5119, 1.573171
811.9940, 1.352446
812.4761, 1.261977
812.9583, 1.503383
813.4404, 1.675506
813.9225, 1.615975
814.4046, 1.386098
814.8867, 1.303801
815.3688, 1.372020
815.8510, 1.497640
816.3331, 1.711174
816.8152, 1.908735
817.2973, 1.836918
817.7794, 1.559895
818.2615, 1.351454
818.7437, 1.207291
819.2258, 1.329532
819.7079, 1.926224
820.1900, 2.936846
820.6721, 3.946779
821.1542, 5.320164
821.6364, 5.843314
822.1185, 4.750916
822.6006, 2.703989
823.0827, 1.801334
823.5648, 1.971161
824.0469, 2.573907
824.5291, 3.586109
825.0112, 4.610033
825.4933, 5.434004
825.9754, 5.991155
826.4575, 6.077060
826.9396, 4.997726
827.4218, 4.111579
827.9039, 3.786538
828.3860, 3.912976
828.8681, 4.195046
829.3502, 4.686296
829.8323, 5.082075
830.3145, 5.289061
830.7966, 5.323030
831.2787, 5.200963
831.7608, 4.950891
832.2429, 4.679988
832.7250, 4.428141
833.2072, 4.157185
833.6893, 3.864581
834.1714, 3.542051
834.6535, 3.141651
835.1356, 2.526528
835.6177, 2.102908
836.0999, 1.993533
836.5820, 2.078541
837.0641, 2.111013
837.5462, 2.088952
838.0283, 1.994984
838.5104, 1.772516
838.9926, 1.553393
839.4747, 1.499848
839.9568, 1.565370
840.4389, 1.659329
840.9210, 1.738922
841.4031, 1.841206
841.8853, 2.009636
842.3674, 2.188807
842.8495, 2.290888
843.3316, 2.292969
843.8137, 2.307556
844.2958, 2.339922
844.7780, 2.364512
845.2601, 2.338786
845.7422, 2.265728
846.2243, 2.206860
846.7064, 2.161654
847.1885, 2.134138
847.6707, 2.130247
848.1528, 2.146213
848.6349, 2.185009
849.1170, 2.363379
849.5991, 2.324755
850.0812, 1.949010
850.5634, 1.536716
851.0455, 1.449506
851.5276, 1.649399
852.0097, 1.851579
852.4918, 2.024729
852.9739, 2.164258
853.4561, 2.308929
853.9382, 2.396032
854.4203, 2.310722
854.9024, 1.929592
855.3845, 1.756253
855.8666, 2.006117
856.3488, 2.331607
856.8309, 2.539805
857.3130, 2.662887
857.7951, 2.656208
858.2772, 2.473876
858.7593, 2.318807
859.2415, 2.529337
859.7236, 2.853372
860.2057, 2.769189
860.6878, 2.238218
861.1699, 1.882511
861.6520, 2.167239
862.1342, 2.587647
862.6163, 2.879340
863.0984, 3.029948
863.5805, 2.939189
864.0626, 2.512949
864.5447, 2.156218
865.0269, 2.165835
865.5090, 2.404183
865.9911, 2.335540
866.4732, 1.998139
866.9553, 1.735450
867.4374, 1.817876
867.9196, 2.017753
868.4017, 2.218981
868.8838, 2.387861
869.3659, 2.402223
869.8480, 2.151865
870.3301, 1.955731
870.8123, 1.895399
871.2944, 1.932235
871.7765, 1.986333
872.2586, 2.055888
872.7407, 2.055851
873.2228, 1.870293
873.7050, 1.686427
874.1871, 1.757630
874.6692, 1.987060
875.1513, 2.128324
875.6334, 1.946402
876.1155, 1.824409
876.5977, 1.875770
877.0798, 1.993431
877.5619, 1.977505
878.0440, 1.819886
878.5261, 1.637026
879.0082, 1.431156
879.4904, 1.279886
879.9725, 1.287931
880.4546, 1.372537
880.9367, 1.418574
881.4188, 1.392573
881.9009, 1.323382
882.3831, 1.155743
882.8652, 1.002734
883.3473, 0.9538070
883.8294, 1.012866
884.3115, 1.152604
884.7936, 1.426915
885.2758, 1.632870
885.7579, 1.463814
886.2400, 1.088072
886.7221, 0.8942410
887.2042, 0.9353520
887.6863, 1.023909
888.1685, 1.095413
888.6506, 1.141893
889.1327, 1.158781
889.6148, 1.150186
890.0969, 1.094846
890.5790, 0.9439560
891.0612, 0.8365570
891.5433, 0.9115200
892.0254, 1.096964
892.5075, 1.047543
892.9896, 0.7926420
893.4717, 0.5781100
893.9539, 0.5485960
894.4360, 0.5748710
894.9181, 0.5621780
895.4002, 0.5213730
895.8823, 0.5503220
896.3644, 0.7492060
896.8466, 0.8206940
897.3287, 0.6388460
897.8108, 0.3158310
898.2929, 0.1326890
898.7750, 8.1215002E-02
899.2571, 8.1486002E-02
899.7393, 8.8972002E-02
900.2214, 0.1461520
900.7035, 0.3304060
901.1856, 0.5723380
901.6677, 0.7508630
902.1498, 0.7853740
902.6320, 0.8366540
903.1141, 0.9566760
903.5962, 1.047298
904.0783, 0.9373430
904.5604, 0.6442550
905.0425, 0.4135640
905.5247, 0.2830230
906.0068, 0.2032110
906.4889, 0.1300620
906.9710, 8.0486998E-02
907.4531, 8.6425997E-02
907.9352, 0.1808380
908.4174, 0.2209340
908.8995, 0.1427310
909.3816, 5.9057999E-02
909.8637, 2.1129999E-02
910.3458, 2.8302999E-02
910.8279, 0.2293570
911.3101, 0.1714198
911.7922, 0.1881206
912.2743, 0.2696070
912.7564, 8.1378996E-02
913.2385, 0.2348760
913.7206, 0.1311600
914.2028, 9.1700000E-04
914.6849, 4.5550000E-02
915.1670, 0.1483660
915.6491, 6.5849997E-02
916.1312, 0.1906030
916.6133, 0.1520343
917.0955, 0.2628280
917.5776, 0.1181390
918.0597, 3.4169000E-02
918.5418, 1.6527999E-02
919.0239, 7.4183002E-02
919.5060, 0.1230530
919.9882, 0.1322250
920.4703, 8.4729996E-03
920.9524, 4.2691000E-02
921.4345, 5.7450000E-02
921.9166, 0.1148300
922.3987, 2.2906000E-02
922.8809, 9.5699998E-03
923.3630, 6.6343002E-02
923.8451, 3.1723998E-02
924.3272, 3.3630189E-02
924.8093, 1.4662000E-02
925.2914, 2.1369999E-02
925.7736, 2.9944999E-02
926.2557, 6.5922998E-02
926.7378, 0.1121020
927.2199, 0.1082915
927.7020, 0.1110890
928.1841, 9.2773996E-02
928.6663, 7.7303000E-02
929.1484, 1.7268000E-02
929.6305, 8.1828997E-02
930.1126, 0.1524540
930.5947, 0.3430980
931.0768, 0.4951470
931.5590, 0.2719180
932.0411, 7.3971003E-02
932.5232, 0.1494740
933.0053, 5.0816000E-02
933.4874, 0.4771290
933.9695, 0.6536560
934.4517, 0.6542270
934.9338, 0.6803300
935.4159, 0.7352570
935.8980, 0.6136770
936.3801, 0.1782920
936.8622, 3.5528999E-02
937.3444, 0.1138480
937.8265, 0.2685030
938.3086, 0.5448040
938.7907, 0.6326690
939.2728, 0.5641750
939.7549, 0.1987960
940.2371, 8.7665997E-02
940.7192, 6.3428000E-02
941.2013, 7.2840001E-03
941.6834, 5.2784000E-02
942.1655, 0.5997790
942.6476, 1.003924
943.1298, 0.7394700
943.6119, 0.2823640
944.0940, 0.1738120
944.5761, 0.4347250
945.0582, 0.6384170
945.5403, 0.7333200
946.0225, 0.6834690
946.5046, 0.4136530
946.9867, 4.3680002E-03
947.4688, 7.8940000E-03
947.9509, 6.2247001E-02
948.4330, 9.3839997E-03
948.9152, 8.9307003E-02
949.3973, 6.7006484E-02
949.8794, 7.7492349E-02
950.3615, 3.7501998E-02
950.8436, 0.1158700
951.3257, 6.6533998E-02
951.8079, 0.1282280
952.2900, 5.4049000E-02
952.7721, 1.1342000E-02
953.2542, 8.9934997E-02
953.7363, 0.3520330
954.2184, 0.5395400
954.7006, 0.3984320
955.1827, 0.1748330
955.6648, 3.5810001E-02
956.1469, 6.7998998E-02
956.6290, 9.4224997E-02
957.1111, 6.8668999E-02
957.5933, 0.2941270
958.0754, 0.5607370
958.5575, 0.7821440
959.0396, 0.9357380
959.5217, 1.004577
960.0038, 0.8483140
960.4860, 0.5220940
960.9681, 0.3121060
961.4502, 0.5219940
961.9323, 0.7406230
962.4144, 0.6344670
962.8965, 0.3789350
963.3787, 0.3889650
963.8608, 0.8531170
964.3429, 1.103736
964.8250, 1.009949
965.3071, 0.8093950
965.7892, 0.7986250
966.2714, 0.9413990
966.7535, 1.189538
967.2356, 1.557416
967.7177, 1.836301
968.1998, 1.880198
968.6819, 1.813073
969.1641, 1.701700
969.6462, 1.543081
970.1283, 1.405976
970.6104, 1.247662
971.0925, 1.203428
971.5746, 1.467622
972.0568, 1.861538
972.5389, 2.050974
973.0210, 2.067078
973.5031, 2.005824
973.9852, 1.704326
974.4673, 1.569320
974.9495, 1.815345
975.4316, 2.241744
975.9137, 2.528452
976.3958, 2.671991
976.8779, 2.703454
977.3600, 2.614946
977.8422, 2.478732
978.3243, 2.329743
978.8064, 2.203952
979.2885, 2.148757
979.7706, 2.166156
980.2527, 2.284638
980.7349, 2.646294
981.2170, 2.916051
981.6991, 2.875901
982.1812, 2.572639
982.6633, 2.424070
983.1454, 2.408320
983.6276, 2.405276
984.1097, 2.321726
984.5918, 2.252902
985.0739, 2.286530
985.5560, 2.375355
986.0381, 2.418210
986.5203, 2.368481
987.0024, 2.384509
987.4845, 2.509926
987.9666, 2.643830
988.4487, 2.634188
988.9308, 2.513484
989.4130, 2.343813
989.8951, 2.102195
990.3772, 1.965282
990.8593, 2.236426
991.3414, 2.522466
991.8235, 2.528471
992.3057, 2.240017
992.7878, 1.964210
993.2699, 1.688876
993.7520, 1.482324
994.2341, 1.393700
994.7162, 1.373007
995.1984, 1.406458
995.6805, 1.480763
996.1626, 1.521803
996.6447, 1.491608
997.1268, 1.440594
997.6089, 1.364433
998.0911, 1.272776
998.5732, 1.188576
999.0553, 1.118064
999.5374, 1.181162
1000.020, 1.392238
1000.502, 1.608911
1000.984, 1.737682
1001.466, 1.780927
1001.948, 1.719138
1002.430, 1.542540
1002.912, 1.374881
1003.394, 1.173898
1003.876, 1.093279
1004.359, 1.259026
1004.841, 1.549571
1005.323, 1.557854
1005.805, 1.353031
1006.287, 1.191789
1006.769, 1.278611
1007.251, 1.323575
1007.733, 1.072619
1008.216, 0.7374560
1008.698, 0.6101970
1009.180, 0.7814580
1009.662, 0.9281070
1010.144, 1.036687
1010.626, 1.071142
1011.108, 0.9670150
1011.590, 0.7961030
1012.072, 0.6249030
1012.555, 0.4627280
1013.037, 0.3665300
1013.519, 0.4410990
1014.001, 0.4619310
1014.483, 0.3230680
1014.965, 0.1064140
1015.447, 2.2724001E-02
1015.929, 6.0956001E-02
1016.411, 0.1114410
1016.894, 0.1251410
1017.376, 0.1709530
1017.858, 0.3983650
1018.340, 0.6573280
1018.822, 0.7468630
1019.304, 0.5235910
1019.786, 0.4573460
1020.268, 0.6172370
1020.751, 0.7592320
1021.233, 0.6413260
1021.715, 0.3794660
1022.197, 0.2619030
1022.679, 0.2758950
1023.161, 0.3375080
1023.643, 0.4535770
1024.125, 0.5518140
1024.607, 0.6172060
1025.090, 0.6400800
1025.572, 0.5520110
1026.054, 0.3342980
1026.536, 0.3311880
1027.018, 0.6592440
1027.500, 0.9693470
1027.982, 0.7842250
1028.464, 0.4361780
1028.947, 0.3277830
1029.429, 0.5991060
1029.911, 0.7272970
1030.393, 0.5854850
1030.875, 0.4570850
1031.357, 0.5143060
1031.839, 0.6910250
1032.321, 0.7423750
1032.803, 0.7009200
1033.286, 0.6972390
1033.768, 0.8173390
1034.250, 0.9423450
1034.732, 1.085755
1035.214, 1.182595
1035.696, 1.098407
1036.178, 0.7655060
1036.660, 0.6591580
1037.143, 0.8541290
1037.625, 1.035285
1038.107, 0.8381130
1038.589, 0.5339060
1039.071, 0.4844760
1039.553, 0.6985800
1040.035, 0.8773020
1040.517, 0.9206740
1041.000, 0.9810100
1041.482, 1.106290
1041.964, 1.266408
1042.446, 1.416777
1042.928, 1.539567
1043.410, 1.532650
1043.892, 1.307187
1044.374, 1.127401
1044.856, 1.312793
1045.339, 1.503223
1045.821, 1.305190
1046.303, 0.6079840
1046.785, 0.4114990
1047.267, 0.7677960
1047.749, 1.164046
1048.231, 1.280720
1048.713, 1.224618
1049.195, 1.051333
1049.677, 0.8155150
1050.160, 0.6735180
1050.642, 0.7746950
1051.124, 0.8258190
1051.606, 0.7847590
1052.088, 0.6978540
1052.570, 0.6061640
1053.052, 0.5212610
1053.534, 0.5165220
1054.017, 0.6035760
1054.499, 0.6546550
1054.981, 0.5640530
1055.463, 0.4365340
1055.945, 0.2960000
1056.427, 0.1667340
1056.909, 0.2417570
1057.391, 0.5465870
1057.874, 0.7615750
1058.356, 0.7609330
1058.838, 0.6598950
1059.320, 0.4789140
1059.802, 0.3375220
1060.284, 0.4447010
1060.766, 1.132561
1061.248, 1.327570
1061.730, 0.7717170
1062.213, 0.1686520
1062.695, 8.4848002E-02
1063.177, 0.3541430
1063.659, 0.3425960
1064.141, 0.1111890
1064.623, 4.4241000E-02
1065.105, 4.6989001E-02
1065.587, 0.2187920
1066.070, 0.5095590
1066.552, 0.7891840
1067.034, 0.8408060
1067.516, 0.6577130
1067.998, 0.4472230
1068.480, 0.2283510
1068.962, 4.9210001E-02
1069.444, 2.0120000E-02
1069.927, 4.7398001E-02
1070.409, 0.1176700
1070.891, 8.5318998E-02
1071.373, 0.1025770
1071.855, 1.2982000E-02
1072.337, 2.9998083E-02
1072.819, 0.1500940
1073.301, 5.4832999E-02
1073.783, 9.4853997E-02
1074.266, 0.1901140
1074.748, 0.1475100
1075.230, 0.1185620
1075.712, 7.5125001E-02
1076.194, 5.5121001E-02
1076.676, 2.5728000E-02
1077.158, 0.1835420
1077.640, 8.5511401E-02
1078.122, 0.2849920
1078.604, 2.8209001E-02
1079.087, 4.7107998E-02
1079.569, 7.4529000E-02
1080.051, 0.1514150
1080.533, 0.2834390
1081.015, 0.3341770
1081.497, 0.3372400
1081.979, 0.2840190
1082.461, 0.2162690
1082.944, 0.1304650
1083.426, 6.1352000E-02
1083.908, 6.9431998E-02
1084.390, 9.5688999E-02
1084.872, 7.1555004E-02
1085.354, 5.3920001E-03
1085.836, 0.1049350
1086.318, 1.5455000E-02
1086.801, 0.1062490
1087.283, 0.1970990
1087.765, 0.2330010
1088.247, 0.1285060
1088.729, 6.3782997E-02
1089.211, 4.6445001E-02
1089.693, 4.1138999E-02
1090.175, 4.3999001E-02
1090.657, 4.4351999E-02
1091.140, 0.1299960
1091.622, 3.2319999E-03
1092.104, 0.1398950
1092.586, 0.3999960
1093.068, 0.5280330
1093.550, 0.4964590
1094.032, 0.1480890
1094.514, 9.2148997E-02
1094.997, 9.1159996E-03
1095.479, -5.3716838E-02
1095.961, -3.6033690E-02
1096.443, 0.1162760
1096.925, 0.1117930
1097.407, 0.4567250
1097.889, 0.7501950
1098.371, 0.5828030
1098.854, 0.2464220
1099.336, 8.3415002E-02
1099.818, 7.5721003E-02
1100.300, 0.1212790
1100.782, 0.2579120
1101.264, 0.3370560
1101.746, 0.3207960
1102.228, 0.2796700
1102.710, 0.2928780
1103.193, 0.3579370
1103.675, 0.4966910
1104.157, 0.7212660
1104.639, 0.8909010
1105.121, 0.9176450
1105.603, 0.9012300
1106.085, 0.8906680
1106.567, 0.8722650
1107.049, 0.7969080
1107.531, 0.6729340
1108.014, 0.5359750
1108.496, 0.3491020
1108.978, 0.2480420
1109.460, 0.4595510
1109.942, 0.6930810
1110.424, 0.6359180
1110.906, 0.2653300
1111.388, 0.1941770
1111.871, 0.4377620
1112.353, 0.7690970
1112.835, 1.184668
1113.317, 1.491790
1113.799, 1.385936
1114.281, 1.053624
1114.763, 0.7996000
1115.245, 0.7293620
1115.728, 0.6113050
1116.210, 0.4072160
1116.692, 0.2833550
1117.174, 0.4338660
1117.656, 0.7327390
1118.138, 1.007749
1118.620, 1.232355
1119.102, 1.327993
1119.584, 1.179879
1120.067, 1.034346
1120.549, 0.8848970
1121.031, 0.7794440
1121.513, 0.8503560
1121.995, 1.021755
1122.477, 1.016795
1122.959, 0.8186320
1123.441, 0.6807400
1123.924, 0.8086880
1124.406, 0.9501350
1124.888, 0.9937390
1125.370, 0.9722980
1125.852, 0.9779090
1126.334, 1.007198
1126.816, 1.008713
1127.298, 0.9580210
1127.781, 0.9359240
1128.263, 1.043210
1128.745, 1.173080
1129.227, 1.234400
1129.709, 1.237903
1130.191, 1.231571
1130.673, 1.219004
1131.155, 1.121650
1131.637, 0.8085550
1132.120, 0.5752520
1132.602, 0.9301210
1133.084, 1.468396
1133.566, 1.603271
1134.048, 1.112290
1134.530, 0.7721200
1135.012, 0.5868840
1135.494, 0.5158000
1135.976, 0.5778270
1136.458, 0.7048570
1136.941, 0.8006600
1137.423, 0.8791960
1137.905, 0.9590150
1138.387, 1.155932
1138.869, 1.119780
1139.351, 0.7055950
1139.833, 0.3352540
1140.315, 0.5620690
1140.798, 1.108702
1141.280, 1.315431
1141.762, 1.192166
1142.244, 0.9874770
1142.726, 0.6691260
1143.208, 0.4552890
1143.690, 0.4070810
1144.172, 0.4569140
1144.655, 0.5259060
1145.137, 0.5893720
1145.619, 0.5184830
1146.101, 0.3042070
1146.583, 0.1666130
1147.065, 0.2813120
1147.547, 0.4465850
1148.029, 0.6073590
1148.511, 0.7208970
1148.994, 0.6314830
1149.476, 0.3715760
1149.958, 0.1677380
1150.440, 6.3221000E-02
1150.922, 9.0669999E-03
1151.404, 3.6685001E-02
1151.886, 3.9340999E-02
1152.368, 2.4947001E-02
1152.851, 0.1656910
1153.333, 0.3599330
1153.815, 0.6126490
1154.297, 0.7065620
1154.779, 0.5209200
1155.261, 0.2764190
1155.743, 0.1142520
1156.225, 4.2394001E-02
1156.708, 0.1074530
1157.190, 0.3383670
1157.672, 0.4408150
1158.154, 0.4043440
1158.636, 0.3206500
1159.118, 0.2161960
1159.600, 0.1241850
1160.082, 0.1240530
1160.564, 0.1538550
1161.047, 0.1033130
1161.529, 0.1015550
1162.011, 3.6835998E-02
1162.493, 6.2054001E-02
1162.975, 8.3694004E-02
1163.457, 0.1889250
1163.939, 0.2370210
1164.421, 0.1441490
1164.903, 2.7433001E-02
1165.385, 9.1693997E-02
1165.868, 1.4983000E-02
1166.350, 0.2141100
1166.832, 0.5513650
1167.314, 0.8308280
1167.796, 0.7994460
1168.278, 0.5871420
1168.760, 0.3611410
1169.242, 0.1539030
1169.725, 8.9929000E-02
1170.207, 0.4059080
1170.689, 0.5591580
1171.171, 0.4197870
1171.653, 0.1802270
1172.135, 0.1012170
1172.617, 0.1287900
1173.099, 0.1658390
1173.582, 0.2017700
1174.064, 0.2494000
1174.546, 0.3635070
1175.028, 0.4217800
1175.510, 0.3978760
1175.992, 0.2916890
1176.474, 0.3234932
1176.956, 9.5500000E-02
1177.438, 0.2424360
1177.921, 0.1475320
1178.403, 8.3349999E-03
1178.885, 7.5960003E-02
1179.367, 9.4682999E-02
1179.849, 0.3267340
1180.331, 0.5656300
1180.813, 0.6116050
1181.295, 0.5183960
1181.778, 0.4414270
1182.260, 0.4132840
1182.742, 0.3770080
1183.224, 0.2716400
1183.706, 0.2187180
1184.188, 0.3220200
1184.670, 0.5297690
1185.152, 0.5102240
1185.635, 0.3174170
1186.117, 0.2405580
1186.599, 0.4374500
1187.081, 0.6215170
1187.563, 0.6443030
1188.045, 0.6177770
1188.527, 0.6244110
1189.009, 0.6573370
1189.491, 0.7028620
1189.974, 0.7487040
1190.456, 0.7004430
1190.938, 0.3357650
1191.420, 0.1049920
1191.902, 0.4270380
1192.384, 0.8460330
1192.866, 0.8691510
1193.348, 0.4849550
1193.830, 0.3764880
1194.313, 0.5220230
1194.795, 0.6403020
1195.277, 0.4497740
1195.759, 0.3129450
1196.241, 0.5336390
1196.723, 0.8583370
1197.205, 0.9688180
1197.687, 0.8607700
1198.169, 0.6654040
1198.652, 0.3940170
1199.134, 0.1867700
1199.616, 0.1008600
1200.098, 0.1499400
1200.580, 0.5064700
1201.062, 0.9301490
1201.544, 0.9875600
1202.026, 0.6657810
1202.509, 0.5150020
1202.991, 0.5832830
1203.473, 0.6843340
1203.955, 0.7672240
1204.437, 0.7552460
1204.919, 0.5032830
1205.401, 0.1455460
1205.883, 3.5287000E-02
1206.365, 3.9032001E-02
1206.848, 0.1026830
1207.330, 0.3961560
1207.812, 0.6513190
1208.294, 0.7331690
1208.776, 0.7183480
1209.258, 0.6358910
1209.740, 0.5014710
1210.222, 0.2992920
1210.705, 2.2755001E-02
1211.187, 7.6715998E-02
1211.669, 5.4237999E-02
1212.151, 0.2733390
1212.633, 0.5743210
1213.115, 0.8233850
1213.597, 0.9065810
1214.079, 0.8554190
1214.562, 0.7017370
1215.044, 0.4522450
1215.526, 0.4630120
1216.008, 0.8914950
1216.490, 1.165371
1216.972, 0.5449800
1217.454, 4.5086998E-02
1217.936, 3.2352000E-02
1218.418, 0.1700460
1218.901, 0.3074240
1219.383, 0.1845770
1219.865, 0.1232860
1220.347, 0.2304010
1220.829, 0.3857840
1221.311, 0.5204290
1221.793, 0.6047610
1222.275, 0.5941050
1222.757, 0.5059450
1223.240, 0.4948940
1223.722, 0.5686280
1224.204, 0.6289820
1224.686, 0.6438200
1225.168, 0.6463980
1225.650, 0.6576010
1226.132, 0.6691980
1226.614, 0.6917220
1227.096, 0.6094530
1227.579, 0.6139850
1228.061, 0.4063670
1228.543, 0.2100880
1229.025, 4.5938998E-02
1229.507, 4.0544000E-02
1229.989, 4.7256000E-02
1230.471, 0.1658680
1230.953, 0.1903270
1231.436, 0.1371490
1231.918, 0.1708510
1232.400, 0.2808070
1232.882, 0.4017920
1233.364, 0.5884160
1233.846, 0.6270250
1234.328, 0.2001060
1234.810, 1.1963000E-02
1235.292, 3.8309000E-02
1235.775, 4.8110001E-03
1236.257, 0.1576330
1236.739, 0.1855450
1237.221, 0.1780190
1237.703, 0.1784570
1238.185, 0.1205900
1238.667, 0.1040310
1239.149, 0.1041360
1239.632, 1.1544000E-02
1240.114, 0.1206540
1240.596, 0.2428800
1241.078, 0.1732050
1241.560, 0.1173330
1242.042, 0.2381260
1242.524, 0.2747450
1243.006, 8.4409997E-02
1243.489, 0.1058050
1243.971, 7.6132998E-02
1244.453, 0.1031700
1244.935, 0.1316150
1245.417, 3.6867999E-02
1245.899, 2.7610000E-02
1246.381, 1.2169000E-02
1246.863, 7.5479001E-02
1247.345, 0.1813260
1247.828, 0.2667270
1248.310, 0.2282570
1248.792, 0.1448560
1249.274, 0.2935590
1249.756, 0.5912140
1250.238, 0.7284660
1250.720, 0.4224010
1251.202, 0.2019480
1251.684, 0.1213390
1252.167, 0.1202820
1252.649, 0.1602050
1253.131, 0.2408620
1253.613, 0.3562690
1254.095, 0.4920560
1254.577, 0.6543260
1255.059, 0.9796820
1255.541, 1.070361
1256.023, 0.8438610
1256.506, 0.5724960
1256.988, 0.5094230
1257.470, 0.5606700
1257.952, 0.5493830
1258.434, 0.4855270
1258.916, 0.4168300
1259.398, 0.3294470
1259.880, 0.3218070
1260.363, 0.4422340
1260.845, 0.5459420
1261.327, 0.3894230
1261.809, 0.1920340
1262.291, 0.1811330
1262.773, 0.3046840
1263.255, 0.3852630
1263.737, 0.3433740
1264.219, 0.7056820
1264.702, 1.548252
1265.184, 2.148428
1265.666, 1.727567
1266.148, 1.053996
1266.630, 0.6254550
1267.112, 0.4340240
1267.594, 0.4575610
1268.076, 0.7159350
1268.559, 0.8750530
1269.041, 0.9368550
1269.523, 0.9228240
1270.005, 0.7161610
1270.487, 0.4658040
1270.969, 0.1895360
1271.451, 5.0969001E-02
1271.933, 0.1703450
1272.416, 0.5158930
1272.898, 0.5899350
1273.380, 0.4101700
1273.862, 0.2611870
1274.344, 0.2411330
1274.826, 0.3462170
1275.308, 0.6644780
1275.790, 0.9758210
1276.272, 1.008137
1276.755, 0.7976210
1277.237, 0.4272400
1277.719, 3.7992999E-02
1278.201, 1.1292000E-02
1278.683, 5.4083001E-02
1279.165, 0.3424020
1279.647, 0.4499840
1280.129, 0.5313360
1280.611, 0.8484460
1281.094, 1.231068
1281.576, 1.301521
1282.058, 1.084278
1282.540, 0.8356840
1283.022, 0.5156960
1283.504, 0.4077640
1283.986, 0.5786220
1284.468, 0.8109540
1284.950, 0.8829160
1285.433, 0.8895520
1285.915, 0.9773570
1286.397, 1.104382
1286.879, 1.065703
1287.361, 0.7823800
1287.843, 0.7026190
1288.325, 0.8884790
1288.807, 1.026531
1289.290, 0.6978780
1289.772, 0.3268120
1290.254, 0.2629880
1290.736, 0.4893650
1291.218, 0.6032790
1291.700, 0.5943970
1292.182, 0.5142200
1292.664, 0.3668850
1293.146, 0.2430200
1293.629, 0.2136540
1294.111, 0.2180440
1294.593, 0.2540910
1295.075, 0.2814720
1295.557, 0.2161300
1296.039, 8.1423000E-02
1296.521, 0.1195320
1297.003, 0.3123650
1297.486, 0.4405510
1297.968, 0.3508470
1298.450, 0.2284290
1298.932, 8.9897998E-02
1299.414, 1.0120000E-02
1299.896, 2.4910001E-03
1300.378, 0.1085340
1300.860, 0.2292810
1301.343, 0.2156720
1301.825, 0.0000000E+00
##END=



