##NAMES=Thometzekite
##RRUFFID=R130618
##IDEAL CHEMISTRY=Pb^2+^Cu^2+^_2_(As^5+^O_4_)_2_&#183;2H_2_O
##LOCALITY=Tsumeb mine, Tsumeb, Otjikoto Region, Namibia
##OWNER=RRUFF
##SOURCE=Mark N. Feinglos
##DESCRIPTION=Light blue-green with unidentified deeper green material.
##STATUS=The identification of this mineral has been confirmed only by single crystal X-ray diffraction.
##URL=rruff.info/R130618
93.84985, 0.0000000E+00
94.33197, 6.122070
94.81409, 9.008179
95.29620, 3.408325
95.77832, 8.9599997E-02
96.26044, 2.105103
96.74255, 5.892456
97.22467, 7.683960
97.70679, 6.773560
98.18890, 6.716919
98.67102, 7.642212
99.15314, 8.136963
99.63525, 7.556030
100.1174, 6.320801
100.5995, 4.877075
101.0816, 3.788818
101.5637, 3.798462
102.0458, 8.406494
102.5280, 8.901978
103.0101, 7.672852
103.4922, 7.136719
103.9743, 7.676880
104.4564, 9.741577
104.9385, 12.41541
105.4207, 16.23853
105.9028, 18.94556
106.3849, 21.24182
106.8670, 23.09448
107.3491, 23.14465
107.8312, 19.86780
108.3134, 13.74316
108.7955, 8.214111
109.2776, 2.583252
109.7597, 2.201904
110.2418, 3.797607
110.7239, 0.8032230
111.2061, 3.250732
111.6882, 5.019775
112.1703, 5.023438
112.6524, 5.080811
113.1345, 6.476563
113.6166, 9.177246
114.0988, 10.98279
114.5809, 11.10205
115.0630, 10.28491
115.5451, 8.420410
116.0272, 5.763794
116.5093, 3.579590
116.9915, 4.094116
117.4736, 9.212769
117.9557, 12.02271
118.4378, 10.28589
118.9199, 7.426636
119.4020, 5.571167
119.8842, 5.533081
120.3663, 7.068359
120.8484, 9.340820
121.3305, 13.80066
121.8126, 16.65979
122.2947, 17.67834
122.7769, 17.20007
123.2590, 15.84949
123.7411, 14.38330
124.2232, 13.21912
124.7053, 13.77759
125.1874, 17.89624
125.6696, 21.29358
126.1517, 21.99695
126.6338, 20.56689
127.1159, 18.85986
127.5980, 17.71460
128.0801, 17.37878
128.5623, 17.99060
129.0444, 20.77734
129.5265, 24.36365
130.0086, 25.20947
130.4907, 23.51611
130.9728, 21.51062
131.4550, 20.94250
131.9371, 20.97119
132.4192, 20.33289
132.9013, 17.85852
133.3834, 14.49048
133.8655, 13.07336
134.3477, 14.48096
134.8298, 16.51831
135.3119, 19.10791
135.7940, 21.61316
136.2761, 22.93433
136.7582, 21.93164
137.2404, 18.53516
137.7225, 16.30688
138.2046, 16.71448
138.6867, 17.06372
139.1688, 16.58655
139.6509, 15.22546
140.1331, 13.38916
140.6152, 11.42603
141.0973, 9.055908
141.5794, 7.465210
142.0615, 6.835083
142.5436, 6.746582
143.0258, 6.951782
143.5079, 7.325928
143.9900, 7.961060
144.4721, 9.196655
144.9542, 11.73657
145.4363, 12.59180
145.9185, 10.50513
146.4006, 7.112671
146.8827, 4.087158
147.3648, 1.798706
147.8469, 0.3483890
148.3290, 0.4901120
148.8112, 2.396484
149.2933, 3.582031
149.7754, 2.364380
150.2575, 0.3968510
150.7396, 2.144287
151.2217, 2.120239
151.7039, 0.8354490
152.1860, 4.891602
152.6681, 10.30334
153.1502, 14.91907
153.6323, 17.07959
154.1144, 16.79333
154.5966, 15.34326
155.0787, 11.57068
155.5608, 7.649902
156.0429, 5.168701
156.5250, 4.457397
157.0071, 4.724731
157.4893, 4.983765
157.9714, 5.351196
158.4535, 5.393921
158.9356, 4.017578
159.4177, 2.849121
159.8998, 3.476563
160.3820, 6.481201
160.8641, 10.74792
161.3462, 13.69531
161.8283, 15.26990
162.3104, 15.34106
162.7925, 13.32227
163.2747, 10.14673
163.7568, 6.281982
164.2389, 1.935913
164.7210, 2.264526
165.2031, 3.519043
165.6852, 0.8514400
166.1674, 5.082031
166.6495, 8.585815
167.1316, 11.26965
167.6137, 12.94409
168.0958, 13.70679
168.5779, 13.89209
169.0601, 13.81628
169.5422, 12.97668
170.0243, 12.18164
170.5064, 11.95166
170.9885, 12.13867
171.4706, 12.08191
171.9528, 11.38110
172.4349, 10.01062
172.9170, 8.298096
173.3991, 4.981079
173.8812, 2.283081
174.3633, 2.556274
174.8455, 5.914795
175.3276, 9.062134
175.8097, 9.291138
176.2918, 7.941406
176.7739, 7.488892
177.2560, 9.068726
177.7382, 11.33862
178.2203, 12.40552
178.7024, 12.03320
179.1845, 11.26086
179.6666, 10.32532
180.1487, 9.388672
180.6309, 8.665039
181.1130, 8.251831
181.5951, 8.118164
182.0772, 8.280029
182.5593, 9.252441
183.0414, 9.637329
183.5236, 8.144043
184.0057, 5.994629
184.4878, 5.087402
184.9699, 6.886841
185.4520, 10.77112
185.9341, 12.66565
186.4163, 9.931396
186.8984, 8.066040
187.3805, 9.113159
187.8626, 11.84290
188.3447, 14.11694
188.8268, 14.44324
189.3090, 12.87695
189.7911, 11.04553
190.2732, 8.394531
190.7553, 6.047363
191.2374, 3.809326
191.7195, 2.085815
192.2017, 1.842896
192.6838, 4.084473
193.1659, 9.033691
193.6480, 11.35815
194.1301, 9.007202
194.6122, 6.634033
195.0944, 6.398926
195.5765, 8.008057
196.0586, 9.839355
196.5407, 10.56128
197.0228, 10.10376
197.5049, 10.00867
197.9871, 10.79175
198.4692, 11.47559
198.9513, 11.27576
199.4334, 10.23340
199.9155, 9.155518
200.3976, 8.698975
200.8798, 8.856445
201.3619, 8.960815
201.8440, 8.462769
202.3261, 8.250854
202.8082, 9.661133
203.2903, 12.84253
203.7725, 15.45825
204.2546, 15.09644
204.7367, 12.62573
205.2188, 10.54089
205.7009, 9.525513
206.1830, 9.083252
206.6652, 8.495117
207.1473, 7.634521
207.6294, 6.972412
208.1115, 6.751343
208.5936, 6.857178
209.0757, 7.428955
209.5579, 9.161011
210.0400, 11.16711
210.5221, 11.73096
211.0042, 10.22852
211.4863, 8.682129
211.9685, 8.236206
212.4506, 8.235840
212.9327, 7.887695
213.4148, 6.617676
213.8969, 4.931396
214.3790, 4.548706
214.8612, 6.543823
215.3433, 8.106323
215.8254, 7.679077
216.3075, 6.400757
216.7896, 5.997192
217.2717, 7.647095
217.7539, 10.60132
218.2360, 12.01233
218.7181, 10.60400
219.2002, 9.300537
219.6823, 8.807739
220.1644, 8.850708
220.6466, 9.078491
221.1287, 9.323486
221.6108, 9.536743
222.0929, 9.372559
222.5750, 7.540039
223.0571, 6.542236
223.5393, 7.896118
224.0214, 10.31055
224.5035, 12.08435
224.9856, 12.13501
225.4677, 10.86023
225.9498, 10.67688
226.4320, 13.04260
226.9141, 14.93213
227.3962, 16.13428
227.8783, 16.49890
228.3604, 15.56848
228.8425, 12.92896
229.3247, 9.127563
229.8068, 7.378052
230.2889, 10.49036
230.7710, 12.29932
231.2531, 10.23706
231.7352, 6.120850
232.2174, 3.339600
232.6995, 3.808838
233.1816, 6.651001
233.6637, 8.185669
234.1458, 6.868408
234.6279, 6.248291
235.1101, 8.203857
235.5922, 11.45813
236.0743, 13.26318
236.5564, 12.03174
237.0385, 8.897705
237.5206, 7.683960
238.0028, 9.648926
238.4849, 11.11804
238.9670, 9.967285
239.4491, 7.398193
239.9312, 6.351807
240.4133, 8.499634
240.8955, 12.24597
241.3776, 13.99475
241.8597, 13.32495
242.3418, 12.19775
242.8239, 11.49500
243.3060, 10.99475
243.7882, 9.921753
244.2703, 7.739380
244.7524, 5.215454
245.2345, 3.519043
245.7166, 2.639160
246.1987, 2.408813
246.6809, 3.256592
247.1630, 4.773071
247.6451, 5.491089
248.1272, 4.568481
248.6093, 3.312256
249.0914, 3.411011
249.5736, 4.886108
250.0557, 6.324463
250.5378, 6.812744
251.0199, 6.596191
251.5020, 6.713867
251.9841, 7.712158
252.4663, 8.525757
252.9484, 8.047974
253.4305, 6.431519
253.9126, 4.915283
254.3947, 4.516602
254.8768, 4.917480
255.3590, 4.507813
255.8411, 2.369019
256.3232, 0.4628910
256.8053, 0.2863770
257.2874, 1.477051
257.7695, 2.748169
258.2516, 3.479126
258.7338, 3.685425
259.2159, 3.329224
259.6980, 1.966675
260.1801, 0.6719970
260.6622, 0.2031250
261.1443, 0.5964360
261.6265, 0.3463130
262.1086, 1.013916
262.5907, 3.110229
263.0728, 4.156128
263.5549, 3.504761
264.0370, 2.749878
264.5192, 2.656738
265.0013, 2.895264
265.4834, 2.874023
265.9655, 2.113525
266.4476, 0.9652100
266.9297, 0.8619380
267.4119, 3.092773
267.8940, 4.220581
268.3761, 2.072510
268.8582, 1.253906
269.3403, 3.026245
269.8224, 1.729248
270.3046, 1.471558
270.7867, 3.321411
271.2688, 2.978149
271.7509, 2.714233
272.2330, 3.642090
272.7151, 4.626587
273.1973, 4.223022
273.6794, 1.796265
274.1615, 1.424683
274.6436, 2.769409
275.1257, 1.190796
275.6078, 0.3305660
276.0900, 1.695435
276.5721, 2.659668
277.0542, 2.936768
277.5363, 2.469971
278.0184, 1.565552
278.5005, 0.6625370
278.9827, 0.4211430
279.4648, 1.057739
279.9469, 1.028870
280.4290, 0.7672730
280.9111, 0.6657100
281.3932, 0.7239990
281.8754, 0.5180050
282.3575, 0.6379390
282.8396, 3.319763
283.3217, 5.253967
283.8038, 5.741760
284.2859, 6.170227
284.7681, 7.421509
285.2502, 9.431763
285.7323, 11.51184
286.2144, 13.10193
286.6965, 14.38477
287.1786, 14.00067
287.6608, 10.61151
288.1429, 6.983337
288.6250, 3.713135
289.1071, 1.093994
289.5892, 0.5223390
290.0714, 0.7131350
290.5535, 0.5652470
291.0356, 1.395935
291.5177, 1.554565
291.9998, 1.490112
292.4819, 1.109619
292.9641, 0.6227420
293.4462, 0.3175050
293.9283, 0.3604740
294.4104, 0.7583010
294.8925, 1.541138
295.3746, 3.601257
295.8568, 5.048218
296.3389, 5.085327
296.8210, 4.483337
297.3031, 4.344299
297.7852, 5.209290
298.2673, 6.697693
298.7495, 7.739258
299.2316, 7.647644
299.7137, 7.602417
300.1958, 7.642273
300.6779, 7.951477
301.1600, 8.850891
301.6422, 10.41034
302.1243, 12.21875
302.6064, 13.57947
303.0885, 14.79950
303.5706, 14.86188
304.0527, 12.69312
304.5349, 10.14368
305.0170, 9.157593
305.4991, 9.946045
305.9812, 11.32312
306.4633, 11.91357
306.9454, 11.70709
307.4276, 10.63831
307.9097, 7.515503
308.3918, 4.708984
308.8739, 3.471619
309.3560, 3.814331
309.8381, 5.185181
310.3203, 7.282349
310.8024, 10.21252
311.2845, 11.97601
311.7666, 11.46832
312.2487, 11.10864
312.7308, 12.60547
313.2130, 14.88257
313.6951, 15.35120
314.1772, 12.04828
314.6593, 5.904114
315.1414, 3.507385
315.6235, 9.540588
316.1057, 13.90228
316.5878, 13.53033
317.0699, 10.91949
317.5520, 9.756409
318.0341, 11.71844
318.5162, 15.30316
318.9984, 16.63477
319.4805, 13.26880
319.9626, 10.85089
320.4447, 9.949585
320.9268, 9.550415
321.4089, 8.762268
321.8911, 7.512512
322.3732, 6.329773
322.8553, 5.970642
323.3374, 6.687805
323.8195, 7.719360
324.3016, 9.733521
324.7838, 11.49878
325.2659, 12.09967
325.7480, 11.57672
326.2301, 10.61914
326.7122, 9.735474
327.1943, 8.782349
327.6765, 9.199890
328.1586, 12.20093
328.6407, 14.71783
329.1228, 15.70288
329.6049, 15.42706
330.0870, 14.71857
330.5692, 14.13831
331.0513, 13.60419
331.5334, 12.52032
332.0155, 9.158325
332.4976, 7.194031
332.9797, 8.335022
333.4619, 10.66278
333.9440, 11.87152
334.4261, 10.87939
334.9082, 8.836426
335.3904, 8.601624
335.8725, 12.50726
336.3546, 14.56757
336.8367, 13.26782
337.3188, 11.01428
337.8009, 9.996155
338.2831, 10.58466
338.7652, 11.35022
339.2473, 10.07483
339.7294, 5.258484
340.2115, 3.231506
340.6936, 6.380920
341.1758, 9.772644
341.6579, 10.62744
342.1400, 9.367249
342.6221, 8.311218
343.1042, 9.633179
343.5863, 13.32330
344.0685, 15.42554
344.5506, 13.86377
345.0327, 12.70715
345.5148, 13.31372
345.9969, 14.82135
346.4790, 15.85510
346.9612, 15.68494
347.4433, 14.47913
347.9254, 12.58917
348.4075, 8.171021
348.8896, 6.377930
349.3717, 10.27747
349.8539, 15.46631
350.3360, 17.94427
350.8181, 16.54333
351.3002, 13.27435
351.7823, 11.03766
352.2644, 10.16095
352.7466, 9.268005
353.2287, 8.357910
353.7108, 7.349670
354.1929, 6.224670
354.6750, 4.967224
355.1571, 3.492188
355.6393, 1.301147
356.1214, 1.531738
356.6035, 2.125427
357.0856, 1.365723
357.5677, 4.812378
358.0498, 7.075073
358.5320, 8.317200
359.0141, 8.872498
359.4962, 9.047241
359.9783, 8.624573
360.4604, 6.484558
360.9425, 0.8629150
361.4247, 2.285156
361.9068, 0.7719120
362.3889, 5.831848
362.8710, 9.444031
363.3531, 10.68890
363.8352, 10.20929
364.3174, 8.063660
364.7995, 3.915649
365.2816, 1.314697
365.7637, 2.072449
366.2458, 3.564758
366.7279, 4.219116
367.2101, 4.028442
367.6922, 3.594727
368.1743, 3.357605
368.6564, 3.232483
369.1385, 2.633179
369.6206, 0.8735960
370.1028, 3.7048001E-02
370.5849, 2.280762
371.0670, 6.080933
371.5491, 8.051819
372.0312, 5.969849
372.5133, 2.596008
372.9955, 2.343506
373.4776, 5.628479
373.9597, 7.951904
374.4418, 6.535950
374.9239, 3.642212
375.4060, 2.341858
375.8882, 3.293030
376.3703, 4.063354
376.8524, 2.173645
377.3345, 1.519226
377.8166, 3.344055
378.2987, 2.017517
378.7809, 0.5750120
379.2630, 2.606384
379.7451, 4.140076
380.2272, 5.311646
380.7093, 6.377197
381.1914, 7.006531
381.6736, 6.409973
382.1557, 4.480591
382.6378, 2.811035
383.1199, 2.943054
383.6020, 4.302917
384.0841, 4.259216
384.5663, 0.7998660
385.0484, 2.108215
385.5305, 1.634216
386.0126, 1.357605
386.4947, 4.236938
386.9768, 6.005798
387.4590, 6.907898
387.9411, 7.468445
388.4232, 8.074524
388.9053, 7.421570
389.3874, 3.035828
389.8695, 1.687988
390.3517, 2.112122
390.8338, 2.462341
391.3159, 7.984924
391.7980, 10.23462
392.2801, 8.661072
392.7622, 8.378906
393.2444, 10.97656
393.7265, 13.24408
394.2086, 13.45789
394.6907, 11.97943
395.1728, 9.807861
395.6549, 7.416443
396.1371, 5.072876
396.6192, 3.949036
397.1013, 5.256042
397.5834, 6.318359
398.0655, 6.457275
398.5476, 6.510864
399.0298, 7.876160
399.5119, 10.69867
399.9940, 13.11206
400.4761, 12.27582
400.9582, 6.594604
401.4403, 3.312134
401.9225, 3.678162
402.4046, 4.920410
402.8867, 6.287231
403.3688, 7.485779
403.8509, 8.220337
404.3330, 8.226257
404.8152, 7.651367
405.2973, 7.379333
405.7794, 7.841797
406.2615, 7.938293
406.7436, 6.916748
407.2257, 5.738037
407.7079, 5.615784
408.1900, 6.879395
408.6721, 8.355591
409.1542, 8.282593
409.6363, 6.324646
410.1184, 4.693176
410.6006, 3.680603
411.0827, 3.000549
411.5648, 2.797058
412.0469, 2.864136
412.5290, 2.568420
413.0111, 1.121643
413.4933, 0.9312740
413.9754, 1.783752
414.4575, 0.8884890
414.9396, 0.1729740
415.4217, 0.1228030
415.9038, 0.6539920
416.3860, 0.2153320
416.8681, 3.367798
417.3502, 6.290771
417.8323, 5.795044
418.3144, 2.390747
418.7965, 0.7415770
419.2787, 2.804443
419.7608, 5.756653
420.2429, 5.699158
420.7250, 2.905640
421.2071, 0.5100100
421.6892, 0.2186280
422.1714, 4.0894002E-02
422.6535, 4.1992001E-02
423.1356, 4.5775998E-02
423.6177, 9.5031999E-02
424.0998, 0.7585450
424.5819, 1.886108
425.0641, 3.098328
425.5462, 4.915527
426.0283, 6.183472
426.5104, 6.153870
426.9925, 5.268066
427.4746, 4.190308
427.9568, 3.050415
428.4389, 2.325256
428.9210, 2.649658
429.4031, 4.494934
429.8852, 6.194336
430.3673, 8.145142
430.8495, 9.648499
431.3316, 9.604858
431.8137, 8.485107
432.2958, 8.252258
432.7779, 10.49756
433.2600, 14.77789
433.7422, 17.45618
434.2243, 16.70618
434.7064, 16.46985
435.1885, 17.92938
435.6706, 19.64038
436.1527, 19.88446
436.6349, 18.26379
437.1170, 16.18250
437.5991, 16.02008
438.0812, 18.63019
438.5633, 20.00140
439.0454, 19.02155
439.5276, 17.81897
440.0097, 17.32550
440.4918, 17.28015
440.9739, 16.81049
441.4560, 15.14270
441.9381, 13.00421
442.4203, 12.83679
442.9024, 15.65167
443.3845, 17.41772
443.8666, 15.64587
444.3487, 13.07068
444.8308, 11.99664
445.3130, 12.82574
445.7951, 14.27576
446.2772, 15.51141
446.7593, 16.51855
447.2414, 17.15137
447.7235, 17.13544
448.2057, 17.01312
448.6878, 17.14160
449.1699, 17.43756
449.6520, 18.14844
450.1341, 20.33466
450.6162, 22.03864
451.0984, 20.83197
451.5805, 17.18988
452.0626, 14.05298
452.5447, 12.54199
453.0268, 12.23425
453.5089, 12.51807
453.9911, 13.43420
454.4732, 14.48260
454.9553, 15.85803
455.4374, 17.13165
455.9195, 17.98444
456.4016, 18.33392
456.8838, 17.87701
457.3659, 16.11060
457.8480, 13.18561
458.3301, 11.89783
458.8122, 13.65637
459.2943, 15.09631
459.7765, 15.58331
460.2586, 15.21179
460.7407, 13.86609
461.2228, 11.59503
461.7049, 9.164368
462.1870, 7.657227
462.6692, 7.145569
463.1513, 7.604004
463.6334, 10.81738
464.1155, 12.97308
464.5976, 11.25342
465.0797, 7.178040
465.5619, 4.331604
466.0440, 5.068604
466.5261, 8.025635
467.0082, 9.160156
467.4903, 7.334167
467.9724, 6.805481
468.4546, 10.48608
468.9367, 14.59515
469.4188, 16.39893
469.9009, 15.64380
470.3830, 13.82452
470.8651, 11.57568
471.3473, 9.061157
471.8294, 7.040588
472.3115, 5.528259
472.7936, 5.052124
473.2757, 6.583618
473.7578, 9.014771
474.2400, 10.37225
474.7221, 9.642883
475.2042, 8.839905
475.6863, 9.804932
476.1684, 11.82269
476.6505, 12.51868
477.1327, 10.97040
477.6148, 9.181519
478.0969, 10.10120
478.5790, 14.35413
479.0611, 16.32562
479.5432, 14.15338
480.0254, 11.04883
480.5075, 8.329468
480.9896, 6.350098
481.4717, 5.753662
481.9538, 6.966492
482.4359, 9.471069
482.9181, 11.70880
483.4002, 14.60370
483.8823, 15.80566
484.3644, 14.39551
484.8465, 12.05164
485.3286, 9.459167
485.8108, 7.070435
486.2929, 5.502136
486.7750, 5.480347
487.2571, 6.973145
487.7392, 9.443237
488.2213, 14.55237
488.7035, 17.80164
489.1856, 16.71008
489.6677, 14.10022
490.1498, 13.06696
490.6319, 14.35895
491.1140, 15.83002
491.5962, 15.06769
492.0783, 12.38086
492.5604, 10.24304
493.0425, 8.723328
493.5246, 8.165771
494.0067, 9.781311
494.4889, 12.52862
494.9710, 13.95764
495.4531, 12.48090
495.9352, 10.72430
496.4173, 11.08411
496.8994, 12.99933
497.3816, 14.43829
497.8637, 14.73877
498.3458, 14.25226
498.8279, 13.27948
499.3100, 11.72217
499.7921, 10.94281
500.2743, 11.90039
500.7564, 12.86469
501.2385, 12.39929
501.7206, 10.87482
502.2027, 9.701721
502.6848, 10.05426
503.1670, 11.42609
503.6491, 12.17078
504.1312, 12.14990
504.6133, 11.71423
505.0954, 9.983459
505.5775, 8.509033
506.0597, 8.629395
506.5418, 10.14368
507.0239, 11.79376
507.5060, 12.66919
507.9881, 12.85022
508.4702, 12.82550
508.9524, 12.67841
509.4345, 12.18463
509.9166, 10.89911
510.3987, 9.460022
510.8808, 8.325806
511.3629, 7.565247
511.8451, 7.383667
512.3271, 8.527222
512.8093, 10.35797
513.2914, 10.94373
513.7735, 9.962524
514.2556, 8.512024
514.7377, 7.166748
515.2198, 5.951355
515.7020, 4.869629
516.1841, 3.676086
516.6662, 2.962158
517.1483, 3.406799
517.6304, 4.378601
518.1125, 4.941528
518.5947, 4.850586
519.0768, 4.071594
519.5589, 2.338440
520.0410, 0.6317140
520.5231, 1.841919
521.0052, 0.1014400
521.4874, 1.944092
521.9695, 2.366089
522.4516, 2.157593
522.9337, 2.737061
523.4158, 4.580505
523.8979, 6.525452
524.3801, 6.437500
524.8622, 3.603333
525.3443, 2.594116
525.8264, 5.835022
526.3085, 8.399536
526.7906, 7.173218
527.2728, 3.921326
527.7549, 2.336792
528.2370, 4.588196
528.7191, 7.549622
529.2012, 6.506958
529.6833, 1.808899
530.1655, 1.202881
530.6476, 0.7525630
531.1297, 1.041809
531.6118, 2.132751
532.0939, 2.593262
532.5760, 2.614868
533.0582, 1.977173
533.5403, 1.134155
534.0224, 0.2495730
534.5045, 0.5615230
534.9866, 0.9634400
535.4688, 0.7810670
535.9509, 0.2435910
536.4330, 0.2348630
536.9151, 0.5125120
537.3972, 1.109619
537.8793, 2.936951
538.3615, 4.221680
538.8436, 3.307861
539.3257, 1.079651
539.8078, 0.2463990
540.2899, 0.6511230
540.7720, 2.702942
541.2542, 3.406799
541.7363, 2.388977
542.2184, 1.231018
542.7005, 0.8617550
543.1826, 2.113403
543.6647, 0.6659550
544.1469, 2.748352
544.6290, 5.202332
545.1111, 4.608459
545.5932, 2.671875
546.0753, 1.773193
546.5574, 1.903259
547.0396, 2.838257
547.5217, 4.955078
548.0038, 7.224060
548.4859, 7.712524
548.9680, 6.238953
549.4501, 5.405945
549.9323, 6.536865
550.4144, 7.795044
550.8965, 7.447754
551.3786, 5.878845
551.8607, 4.757996
552.3428, 5.037415
552.8250, 6.021240
553.3071, 5.890320
553.7892, 3.244202
554.2713, 2.059570
554.7534, 4.194763
555.2355, 5.924377
555.7177, 4.368225
556.1998, 0.5633540
556.6819, 2.278870
557.1640, 2.011230
557.6461, 0.1343380
558.1282, 0.3268430
558.6104, 3.175232
559.0925, 4.158142
559.5746, 0.4783330
560.0567, 3.738159
560.5388, 4.530334
561.0209, 2.335022
561.5031, 0.4077760
561.9852, 0.1971440
562.4673, 0.1328130
562.9494, 1.682739
563.4315, 4.028442
563.9136, 4.901428
564.3958, 3.011230
564.8779, 0.3688350
565.3600, 0.5903320
565.8421, 5.267029
566.3242, 8.286804
566.8063, 9.134521
567.2885, 8.857300
567.7706, 6.964294
568.2527, 4.527832
568.7348, 3.951843
569.2169, 6.469482
569.6990, 9.997070
570.1812, 10.05798
570.6633, 5.422119
571.1454, 2.313843
571.6275, 2.128296
572.1096, 2.654236
572.5917, 2.528320
573.0739, 2.264038
573.5560, 3.347046
574.0381, 7.238647
574.5202, 11.09638
575.0023, 11.08026
575.4844, 7.913147
575.9666, 5.677063
576.4487, 5.472961
576.9308, 6.086914
577.4129, 6.371826
577.8950, 6.279175
578.3771, 6.037292
578.8593, 5.874084
579.3414, 5.593567
579.8235, 4.670837
580.3056, 3.745789
580.7877, 4.048828
581.2698, 5.882690
581.7520, 8.134399
582.2341, 9.351563
582.7162, 9.393677
583.1984, 9.862915
583.6805, 12.25610
584.1626, 13.13501
584.6447, 10.15320
585.1268, 5.829956
585.6089, 3.208496
586.0911, 3.108398
586.5732, 4.188721
587.0553, 5.964539
587.5374, 7.991333
588.0195, 7.914429
588.5016, 5.097595
588.9838, 3.267517
589.4659, 5.475037
589.9480, 10.15326
590.4301, 12.53748
590.9122, 12.09302
591.3943, 10.51105
591.8765, 6.754456
592.3586, 3.001953
592.8407, 1.956177
593.3228, 3.668762
593.8049, 6.261780
594.2870, 8.435791
594.7692, 10.11658
595.2513, 10.99127
595.7334, 10.44202
596.2155, 10.16431
596.6976, 10.48456
597.1797, 10.97272
597.6619, 11.35815
598.1440, 11.66736
598.6261, 11.94751
599.1082, 12.29938
599.5903, 12.57751
600.0724, 12.37091
600.5546, 11.60437
601.0367, 11.15460
601.5188, 11.74811
602.0009, 12.47552
602.4830, 11.79047
602.9651, 9.724060
603.4473, 8.704712
603.9294, 10.41980
604.4115, 11.98358
604.8936, 10.75269
605.3757, 8.247681
605.8578, 8.047119
606.3400, 11.41772
606.8221, 15.60126
607.3042, 16.59332
607.7863, 13.92041
608.2684, 11.34308
608.7505, 7.845520
609.2327, 5.761902
609.7148, 7.101318
610.1969, 9.715393
610.6790, 10.53802
611.1611, 8.699585
611.6432, 6.797180
612.1254, 8.005798
612.6075, 11.01428
613.0896, 10.94275
613.5717, 6.806274
614.0538, 3.708008
614.5359, 5.272705
615.0181, 9.983276
615.5002, 12.76349
615.9823, 12.83997
616.4644, 12.44922
616.9465, 12.40057
617.4286, 12.39465
617.9108, 11.27905
618.3929, 9.275757
618.8750, 7.629456
619.3571, 7.180054
619.8392, 7.622986
620.3214, 8.385376
620.8035, 9.872009
621.2856, 10.41400
621.7677, 8.479858
622.2498, 6.867249
622.7319, 7.531006
623.2141, 9.675476
623.6962, 11.18127
624.1783, 11.35406
624.6604, 10.40387
625.1425, 7.469299
625.6246, 3.527466
626.1068, 2.245850
626.5889, 4.761475
627.0710, 7.640991
627.5531, 7.369507
628.0352, 4.165161
628.5173, 3.230042
628.9995, 6.983521
629.4816, 9.580017
629.9637, 8.553955
630.4458, 6.589722
630.9279, 6.631165
631.4100, 8.809265
631.8922, 11.02625
632.3743, 11.63373
632.8564, 10.85321
633.3385, 9.428833
633.8206, 6.932068
634.3027, 5.629089
634.7849, 6.691406
635.2670, 8.744385
635.7491, 10.99353
636.2312, 13.28766
636.7133, 14.01117
637.1954, 11.43359
637.6776, 8.207336
638.1597, 6.133911
638.6418, 5.122620
639.1239, 5.139160
639.6060, 6.171204
640.0881, 7.249634
640.5703, 7.003540
641.0524, 5.118164
641.5345, 4.178223
642.0166, 5.508728
642.4987, 6.424805
642.9808, 5.560242
643.4630, 4.346069
643.9451, 4.757507
644.4272, 6.969971
644.9093, 8.930481
645.3914, 8.808228
645.8735, 7.293884
646.3557, 5.887817
646.8378, 4.578308
647.3199, 3.816956
647.8020, 3.884155
648.2841, 4.452759
648.7662, 5.196655
649.2484, 6.324890
649.7305, 6.451416
650.2126, 4.340393
650.6947, 2.317993
651.1768, 1.682190
651.6589, 2.036133
652.1411, 2.573181
652.6232, 3.011292
653.1053, 3.710144
653.5874, 5.592102
654.0695, 8.689392
654.5516, 9.361450
655.0338, 6.187988
655.5159, 3.422974
655.9980, 3.375366
656.4801, 4.491028
656.9622, 5.168762
657.4443, 5.221069
657.9265, 5.285156
658.4086, 5.858704
658.8907, 6.439087
659.3728, 6.596191
659.8549, 6.266968
660.3370, 5.009277
660.8192, 2.492615
661.3013, 0.1790770
661.7834, 1.045166
662.2655, 6.824463
662.7476, 9.275085
663.2297, 4.693970
663.7119, 0.8323970
664.1940, 0.5831910
664.6761, 2.206604
665.1582, 3.538147
665.6403, 4.006653
666.1224, 3.672729
666.6046, 1.958496
667.0867, 0.3786620
667.5688, 1.426392
668.0509, 1.063232
668.5330, 0.4329830
669.0151, 2.8198000E-02
669.4973, 0.2295530
669.9794, 0.1449580
670.4615, 1.727173
670.9436, 2.081299
671.4257, 0.3679810
671.9078, 1.763184
672.3900, 4.318970
672.8721, 6.447693
673.3542, 6.562012
673.8363, 4.165649
674.3184, 1.122498
674.8005, 0.5427860
675.2827, 0.8941650
675.7648, 0.2987060
676.2469, 1.589294
676.7290, 3.104431
677.2111, 3.107910
677.6932, 2.479614
678.1754, 2.998657
678.6575, 5.068420
679.1396, 6.085815
679.6217, 4.251831
680.1038, 2.375854
680.5859, 2.930298
681.0681, 4.798462
681.5502, 5.211548
682.0323, 3.083496
682.5144, 0.2568360
682.9965, 0.4983520
683.4786, 0.9736940
683.9608, 1.886353
684.4429, 1.994690
684.9250, 1.987122
685.4071, 2.485596
685.8892, 3.110474
686.3713, 2.990845
686.8535, 1.981995
687.3356, 1.466919
687.8177, 2.828735
688.2998, 4.338989
688.7819, 3.761902
689.2640, 1.732239
689.7462, 0.6521000
690.2283, 1.461121
690.7104, 2.946899
691.1925, 3.301880
691.6746, 2.320618
692.1567, 2.113770
692.6389, 3.081360
693.1210, 4.347839
693.6031, 6.424255
694.0852, 8.203918
694.5673, 8.304443
695.0494, 6.776794
695.5316, 5.197754
696.0137, 4.822937
696.4958, 4.767395
696.9779, 3.277161
697.4600, 0.8372800
697.9421, 0.3823850
698.4243, 0.4782710
698.9064, 1.924683
699.3885, 1.941650
699.8706, 0.3049930
700.3527, 0.1880490
700.8348, 3.271729
701.3170, 5.839844
701.7991, 7.522461
702.2812, 8.217041
702.7633, 7.430176
703.2454, 5.408020
703.7275, 3.510681
704.2097, 2.683533
704.6918, 2.513489
705.1739, 2.464539
705.6560, 2.519287
706.1381, 2.554565
706.6202, 2.512756
707.1024, 2.555603
707.5845, 2.839417
708.0666, 3.361267
708.5487, 4.038330
709.0308, 4.901428
709.5129, 5.865845
709.9951, 7.552307
710.4772, 8.854187
710.9593, 8.506897
711.4414, 6.803589
711.9235, 5.177124
712.4056, 4.327271
712.8878, 4.206238
713.3699, 5.260864
713.8520, 7.209045
714.3341, 7.714661
714.8162, 6.039429
715.2983, 4.513123
715.7805, 5.353821
716.2626, 7.949280
716.7447, 8.736511
717.2268, 6.032043
717.7089, 4.072205
718.1910, 3.505066
718.6732, 3.518372
719.1553, 3.597717
719.6374, 3.779907
720.1195, 4.232910
720.6016, 5.056519
721.0837, 5.933289
721.5659, 6.608154
722.0480, 7.007568
722.5301, 6.322693
723.0122, 4.165649
723.4943, 2.756409
723.9764, 3.777893
724.4586, 6.146423
724.9407, 7.022888
725.4228, 5.838501
725.9049, 4.684631
726.3870, 2.962585
726.8691, 2.021545
727.3513, 3.322693
727.8334, 5.650146
728.3155, 6.923096
728.7976, 6.568604
729.2797, 5.639038
729.7618, 4.673462
730.2440, 3.819885
730.7261, 4.111694
731.2082, 5.681152
731.6903, 6.799561
732.1724, 6.710938
732.6545, 5.834167
733.1367, 4.824036
733.6188, 3.705933
734.1009, 2.746582
734.5830, 1.464233
735.0651, 0.7745360
735.5472, 1.947937
736.0294, 3.333374
736.5115, 2.479919
736.9936, 0.5441280
737.4757, 2.891174
737.9578, 2.053711
738.4399, 0.4639280
738.9221, 1.470947
739.4042, 1.092712
739.8863, 1.544250
740.3684, 3.635742
740.8505, 5.461792
741.3326, 5.386292
741.8148, 3.467285
742.2969, 0.9782710
742.7790, 4.386597
743.2611, 7.087280
743.7432, 4.486633
744.2253, 0.6647340
744.7075, 1.871765
745.1896, 2.934631
745.6717, 2.923523
746.1538, 1.816040
746.6359, 0.4916380
747.1180, 4.7180001E-02
747.6002, 0.2406010
748.0823, 0.3749390
748.5644, 0.3587040
749.0465, 0.1408690
749.5286, 0.3469240
750.0107, 0.9963990
750.4929, 1.639099
750.9750, 2.868103
751.4571, 2.561646
751.9392, 1.646667
752.4213, 4.627563
752.9034, 2.957764
753.3856, 0.5321660
753.8677, 1.735657
754.3498, 0.2143550
754.8319, 2.549500
755.3140, 3.060730
755.7961, 2.650269
756.2783, 3.203796
756.7604, 4.483337
757.2425, 4.771545
757.7246, 3.377258
758.2067, 1.610046
758.6888, 1.083008
759.1710, 1.710205
759.6531, 1.626343
760.1352, 0.5593260
760.6173, 1.308533
761.0994, 1.522217
761.5815, 4.501160
762.0637, 4.809631
762.5458, 2.966980
763.0279, 1.401367
763.5100, 0.9464720
763.9921, 1.265320
764.4742, 2.643921
764.9564, 4.411377
765.4385, 5.355103
765.9206, 5.349609
766.4027, 4.707153
766.8848, 3.550049
767.3669, 2.252441
767.8491, 1.832886
768.3312, 2.714844
768.8133, 2.807373
769.2954, 0.9160160
769.7775, 0.1161500
770.2596, 1.668884
770.7418, 4.657593
771.2239, 6.843262
771.7060, 7.994690
772.1881, 8.652405
772.6702, 9.196289
773.1523, 9.168152
773.6345, 7.569214
774.1166, 5.260376
774.5987, 4.158203
775.0808, 4.693176
775.5629, 5.422119
776.0450, 4.865540
776.5272, 3.314758
777.0093, 1.906860
777.4914, 0.4114380
777.9735, 0.5124510
778.4556, 3.561707
778.9377, 6.838684
779.4199, 7.525635
779.9020, 6.274902
780.3841, 6.378784
780.8662, 9.281860
781.3483, 11.56824
781.8304, 12.04852
782.3126, 11.91632
782.7947, 12.21454
783.2768, 12.75299
783.7589, 12.72040
784.2410, 11.73352
784.7231, 10.47156
785.2053, 9.371521
785.6874, 8.671326
786.1695, 9.770264
786.6516, 12.83746
787.1337, 15.14551
787.6158, 15.25464
788.0980, 14.60583
788.5801, 15.64734
789.0622, 19.01154
789.5443, 19.91534
790.0264, 14.63782
790.5085, 11.75800
790.9907, 15.22662
791.4728, 20.38226
791.9549, 23.27588
792.4370, 23.64392
792.9191, 22.87946
793.4012, 21.01801
793.8834, 19.26562
794.3655, 18.68341
794.8476, 19.08234
795.3297, 20.70020
795.8118, 23.44397
796.2939, 24.79047
796.7761, 22.71173
797.2582, 19.02625
797.7403, 18.35229
798.2224, 21.63080
798.7045, 23.88055
799.1866, 24.58453
799.6688, 24.92010
800.1509, 25.40063
800.6330, 25.59479
801.1151, 25.49054
801.5972, 25.47369
802.0793, 24.72778
802.5615, 20.86975
803.0436, 18.09076
803.5257, 20.34784
804.0078, 24.78760
804.4899, 26.81915
804.9720, 25.89264
805.4542, 25.13080
805.9363, 27.25824
806.4184, 30.59430
806.9005, 30.89294
807.3826, 28.31940
807.8647, 27.17139
808.3469, 28.35260
808.8290, 30.11407
809.3111, 31.67462
809.7932, 32.88000
810.2753, 32.73792
810.7574, 29.42719
811.2396, 28.51782
811.7217, 31.84430
812.2038, 35.50098
812.6859, 38.20074
813.1680, 39.91663
813.6501, 40.48737
814.1323, 39.96906
814.6144, 39.44531
815.0965, 39.17676
815.5786, 39.57166
816.0607, 41.72241
816.5428, 44.85742
817.0250, 46.91388
817.5071, 47.44720
817.9892, 47.34601
818.4713, 47.23407
818.9534, 47.35010
819.4355, 48.26624
819.9177, 49.96289
820.3998, 52.63965
820.8819, 56.99884
821.3640, 61.20428
821.8461, 64.08215
822.3282, 66.06848
822.8104, 68.04517
823.2925, 70.07434
823.7746, 71.95563
824.2567, 73.72119
824.7388, 75.28204
825.2209, 76.19409
825.7031, 77.06567
826.1852, 79.00146
826.6673, 82.04254
827.1494, 84.82159
827.6315, 85.99396
828.1136, 86.59839
828.5958, 88.74121
829.0779, 91.99506
829.5600, 94.18433
830.0421, 94.86475
830.5242, 95.27325
831.0063, 96.44714
831.4885, 97.78314
831.9706, 97.16791
832.4527, 93.01691
832.9348, 91.12799
833.4169, 93.02368
833.8990, 95.33307
834.3812, 97.22253
834.8633, 98.49841
835.3454, 98.93768
835.8275, 98.46912
836.3096, 97.47498
836.7917, 95.70343
837.2739, 93.90033
837.7560, 92.37616
838.2381, 91.14575
838.7202, 90.23578
839.2023, 89.62292
839.6844, 89.36206
840.1666, 89.70001
840.6487, 89.71216
841.1308, 87.29346
841.6129, 82.81885
842.0950, 79.35284
842.5771, 77.21729
843.0593, 76.10217
843.5414, 76.13263
844.0235, 76.53998
844.5056, 75.77368
844.9877, 73.54755
845.4698, 71.01788
845.9520, 67.00476
846.4341, 64.28430
846.9162, 64.36377
847.3983, 65.29596
847.8804, 65.76172
848.3625, 65.55945
848.8447, 64.30542
849.3268, 60.41870
849.8089, 57.74280
850.2910, 60.45911
850.7731, 64.18323
851.2552, 62.90338
851.7374, 57.70154
852.2195, 53.83649
852.7016, 53.80048
853.1837, 55.30573
853.6658, 55.51874
854.1479, 54.42523
854.6301, 52.01276
855.1122, 48.28619
855.5943, 44.95428
856.0764, 42.45135
856.5585, 41.28156
857.0406, 42.40546
857.5228, 45.56329
858.0049, 46.26984
858.4870, 42.29517
858.9691, 39.26599
859.4512, 38.38074
859.9333, 37.84845
860.4155, 36.59174
860.8976, 35.01965
861.3797, 34.13672
861.8618, 34.35681
862.3439, 33.83270
862.8260, 30.71625
863.3082, 27.58740
863.7903, 26.74872
864.2724, 27.27612
864.7545, 27.55829
865.2366, 27.04749
865.7188, 26.25757
866.2009, 25.59473
866.6830, 24.74371
867.1651, 22.48523
867.6472, 19.26361
868.1293, 18.25696
868.6115, 20.01855
869.0936, 22.11389
869.5757, 23.33575
870.0578, 23.54779
870.5399, 22.22833
871.0220, 18.79724
871.5042, 16.48773
871.9863, 16.21045
872.4684, 15.76239
872.9505, 14.00146
873.4326, 12.15344
873.9147, 11.49597
874.3969, 11.89551
874.8790, 11.92883
875.3611, 10.36121
875.8432, 9.447388
876.3253, 10.29761
876.8074, 11.93707
877.2896, 14.37830
877.7717, 16.74243
878.2538, 17.05255
878.7359, 14.57635
879.2180, 11.66986
879.7001, 10.42554
880.1823, 10.28888
880.6644, 10.67981
881.1465, 11.29346
881.6286, 10.71039
882.1107, 8.593933
882.5928, 6.329468
883.0750, 5.111023
883.5571, 4.752075
884.0392, 4.803284
884.5213, 5.452332
885.0034, 5.288452
885.4855, 3.658630
885.9677, 2.477112
886.4498, 3.033264
886.9319, 4.393738
887.4140, 4.895020
887.8961, 4.337219
888.3782, 4.340393
888.8604, 5.745605
889.3425, 6.735046
889.8246, 6.679504
890.3067, 6.024841
890.7888, 5.135071
891.2709, 4.070007
891.7531, 2.569641
892.2352, 0.2354740
892.7173, 1.567688
893.1994, 2.009460
893.6815, 1.344604
894.1636, 0.8071290
894.6458, 3.733521
895.1279, 5.801636
895.6100, 6.478088
896.0921, 6.160583
896.5742, 5.052917
897.0563, 3.415649
897.5385, 1.653442
898.0206, 0.1571660
898.5027, 0.7943730
898.9848, 3.6010999E-02
899.4669, 1.209045
899.9490, 2.153076
900.4312, 2.624878
900.9133, 1.820251
901.3954, 1.010803
901.8775, 1.509766
902.3596, 2.186523
902.8417, 5.042053
903.3239, 5.012024
903.8060, 3.879272
904.2881, 3.000366
904.7702, 2.440735
905.2523, 2.535950
905.7344, 4.021179
906.2166, 5.138306
906.6987, 5.122498
907.1808, 4.929321
907.6629, 5.637756
908.1450, 6.545227
908.6271, 6.255249
909.1093, 4.431702
909.5914, 2.068359
910.0735, 0.9557500
910.5556, 3.473206
911.0377, 3.834412
911.5198, 2.814880
912.0020, 2.017578
912.4841, 1.655762
912.9662, 0.8054200
913.4483, 1.243408
913.9304, 3.179138
914.4125, 2.171631
914.8947, 1.257080
915.3768, 2.862854
915.8589, 2.420532
916.3410, 1.144043
916.8231, 0.6859130
917.3052, 2.614563
917.7874, 4.268738
918.2695, 5.562805
918.7516, 5.418335
919.2337, 2.631409
919.7158, 1.381958
920.1979, 3.644836
920.6801, 5.461182
921.1622, 3.664124
921.6443, 0.4399410
922.1264, 0.6199340
922.6085, 0.8874510
923.0906, 2.322632
923.5728, 3.695496
924.0549, 4.464539
924.5370, 4.165283
925.0191, 3.359070
925.5012, 2.494751
925.9833, 1.614197
926.4655, 0.4664920
926.9476, 1.264465
927.4297, 2.327942
927.9118, 1.681335
928.3939, 6.3598998E-02
928.8760, 2.238586
929.3582, 4.710327
929.8403, 6.624817
930.3224, 7.660278
930.8045, 7.125488
931.2866, 3.933167
931.7687, 4.4250000E-02
932.2509, 1.132019
932.7330, 0.1560670
933.2151, 1.894165
933.6972, 3.788452
934.1793, 4.518250
934.6614, 3.319702
935.1436, 1.430542
935.6257, 0.5866090
936.1078, 0.7613530
936.5899, 1.620667
937.0720, 3.460266
937.5541, 4.724243
938.0363, 4.896301
938.5184, 4.830566
939.0005, 5.197327
939.4826, 5.752808
939.9647, 5.798645
940.4468, 5.136414
940.9290, 4.487427
941.4111, 2.983643
941.8932, 2.573608
942.3753, 5.103638
942.8574, 7.979980
943.3395, 8.813599
943.8217, 7.752563
944.3038, 6.167847
944.7859, 3.948853
945.2680, 2.066772
945.7501, 0.9546510
946.2322, 0.2312620
946.7144, 0.5547490
947.1965, 1.083801
947.6786, 0.6064450
948.1607, 0.9129030
948.6428, 2.351135
949.1249, 2.842651
949.6071, 3.122498
950.0892, 4.036560
950.5713, 5.135254
951.0534, 5.644348
951.5355, 5.745728
952.0176, 6.457092
952.4998, 8.154968
952.9819, 9.667175
953.4640, 9.255615
953.9461, 7.693054
954.4282, 7.517639
954.9103, 8.530029
955.3925, 9.228577
955.8746, 9.294495
956.3567, 8.899780
956.8388, 8.187927
957.3209, 7.320618
957.8030, 6.589844
958.2852, 5.930481
958.7673, 6.397583
959.2494, 8.530640
959.7315, 9.641296
960.2136, 8.559631
960.6957, 7.244690
961.1779, 7.491699
961.6600, 9.148438
962.1421, 11.47235
962.6242, 15.53760
963.1063, 18.12347
963.5884, 17.94067
964.0706, 17.85992
964.5527, 19.09821
965.0348, 20.87231
965.5169, 22.19586
965.9990, 23.11530
966.4811, 24.68060
966.9633, 28.07422
967.4454, 30.63629
967.9275, 30.83844
968.4096, 30.71851
968.8917, 31.93445
969.3738, 34.01801
969.8560, 36.03229
970.3381, 37.74414
970.8202, 39.00958
971.3023, 39.20813
971.7844, 39.51929
972.2665, 40.74310
972.7487, 42.45605
973.2308, 44.66614
973.7129, 47.09686
974.1950, 48.86176
974.6771, 49.61896
975.1592, 49.95062
975.6414, 50.66699
976.1235, 51.20642
976.6056, 49.87659
977.0877, 47.93878
977.5698, 49.18152
978.0519, 53.43445
978.5341, 55.88611
979.0162, 53.59369
979.4983, 49.19470
979.9804, 46.00897
980.4625, 44.10327
980.9446, 43.47968
981.4268, 43.98022
981.9089, 44.04401
982.3910, 43.25653
982.8731, 42.58344
983.3552, 43.00378
983.8373, 43.46045
984.3195, 40.56909
984.8016, 33.97894
985.2837, 30.46429
985.7658, 30.85455
986.2479, 31.78992
986.7300, 32.42310
987.2122, 31.94452
987.6943, 29.26825
988.1764, 24.91949
988.6585, 21.80695
989.1406, 20.29309
989.6227, 18.88629
990.1049, 17.52283
990.5870, 16.38464
991.0691, 15.24890
991.5512, 14.47198
992.0333, 14.93353
992.5154, 16.55359
992.9976, 16.69836
993.4797, 14.13428
993.9618, 11.97498
994.4439, 10.35815
994.9260, 9.198730
995.4081, 8.976074
995.8903, 8.899109
996.3724, 7.431335
996.8545, 4.551575
997.3366, 3.384338
997.8187, 6.608948
998.3008, 8.736572
998.7830, 7.176147
999.2651, 4.998108
999.7472, 4.367004
1000.229, 4.734436
1000.711, 4.961487
1001.194, 4.815796
1001.676, 4.371460
1002.158, 3.134949
1002.640, 2.240662
1003.122, 2.801331
1003.604, 3.650452
1004.086, 3.783325
1004.568, 3.078064
1005.050, 1.890137
1005.533, 0.5528560
1006.015, 7.6233000E-02
1006.497, 1.903870
1006.979, 4.013245
1007.461, 4.177307
1007.943, 3.473633
1008.425, 3.919128
1008.907, 5.201355
1009.390, 5.216125
1009.872, 3.075867
1010.354, 0.8026730
1010.836, 0.2078860
1011.318, 0.8370360
1011.800, 2.241333
1012.282, 4.200684
1012.764, 6.687500
1013.246, 9.330566
1013.729, 10.44440
1014.211, 9.115784
1014.693, 6.724609
1015.175, 4.995544
1015.657, 3.646118
1016.139, 1.112671
1016.621, 1.943970
1017.103, 1.272583
1017.586, 3.600769
1018.068, 7.401245
1018.550, 6.783630
1019.032, 4.116638
1019.514, 3.187805
1019.996, 3.771484
1020.478, 4.542175
1020.960, 5.475891
1021.442, 5.293091
1021.925, 3.607849
1022.407, 2.057495
1022.889, 1.685181
1023.371, 2.502930
1023.853, 5.172058
1024.335, 9.727112
1024.817, 10.36176
1025.299, 6.306946
1025.781, 4.573975
1026.264, 7.520325
1026.746, 10.13013
1027.228, 8.332825
1027.710, 4.236694
1028.192, 2.964050
1028.674, 4.936340
1029.156, 6.595825
1029.638, 8.196106
1030.120, 8.479919
1030.603, 6.635315
1031.085, 4.508118
1031.567, 3.630615
1032.049, 3.430542
1032.531, 2.138184
1033.013, 1.081970
1033.495, 1.379395
1033.977, 3.146606
1034.460, 6.557739
1034.942, 7.093689
1035.424, 6.487000
1035.906, 5.631104
1036.388, 4.830994
1036.870, 5.069214
1037.352, 6.883484
1037.834, 7.884705
1038.317, 7.810181
1038.799, 7.318848
1039.281, 5.407227
1039.763, 4.212952
1040.245, 6.547852
1040.727, 10.70709
1041.209, 11.58215
1041.691, 7.653015
1042.173, 5.417969
1042.656, 5.617371
1043.138, 6.465027
1043.620, 8.265381
1044.102, 9.951904
1044.584, 11.07361
1045.066, 11.40674
1045.548, 10.11011
1046.030, 6.356262
1046.512, 4.098877
1046.995, 4.918030
1047.477, 5.964661
1047.959, 5.886108
1048.441, 5.715515
1048.923, 6.803711
1049.405, 8.525085
1049.887, 9.209778
1050.369, 8.534912
1050.852, 7.503113
1051.334, 5.727417
1051.816, 4.356201
1052.298, 3.523865
1052.780, 3.488464
1053.262, 5.267395
1053.744, 7.781555
1054.226, 8.415833
1054.708, 6.436523
1055.191, 5.301208
1055.673, 6.763367
1056.155, 8.143066
1056.637, 8.593689
1057.119, 8.370972
1057.601, 7.106201
1058.083, 5.530762
1058.565, 5.192505
1059.047, 6.452942
1059.530, 7.498779
1060.012, 8.823792
1060.494, 8.395386
1060.976, 2.572388
1061.458, 2.793701
1061.940, 1.804382
1062.422, 2.999390
1062.904, 5.991028
1063.387, 6.044373
1063.869, 5.441101
1064.351, 4.449524
1064.833, 3.848450
1065.315, 4.439575
1065.797, 5.147278
1066.279, 5.087891
1066.761, 4.483032
1067.244, 3.618530
1067.726, 2.624084
1068.208, 2.325684
1068.690, 3.053711
1069.172, 4.569031
1069.654, 8.334351
1070.136, 11.31952
1070.618, 10.54700
1071.100, 7.504456
1071.583, 4.322021
1072.065, 1.578552
1072.547, 1.8982001E-02
1073.029, 9.9120997E-02
1073.511, 1.149536
1073.993, 3.816772
1074.475, 6.283997
1074.957, 7.587952
1075.439, 7.852966
1075.922, 6.866638
1076.404, 5.074951
1076.886, 4.044312
1077.368, 4.908325
1077.850, 5.324158
1078.332, 2.693054
1078.814, 0.7548220
1079.297, 3.758301
1079.779, 8.152344
1080.261, 8.638306
1080.743, 5.602905
1081.225, 3.735657
1081.707, 5.096985
1082.189, 6.080566
1082.671, 4.025757
1083.153, 2.204529
1083.635, 2.838501
1084.118, 4.816223
1084.600, 7.525513
1085.082, 10.24231
1085.564, 11.24915
1086.046, 9.789978
1086.528, 8.192078
1087.010, 7.437256
1087.492, 6.821655
1087.975, 5.797485
1088.457, 4.842102
1088.939, 4.508728
1089.421, 4.643555
1089.903, 4.850525
1090.385, 5.071594
1090.867, 4.873352
1091.349, 3.648376
1091.832, 2.702148
1092.314, 2.659607
1092.796, 2.958191
1093.278, 3.419556
1093.760, 3.738525
1094.242, 3.334167
1094.724, 2.125488
1095.206, 1.045166
1095.688, 0.1679080
1096.171, 0.2212520
1096.653, 0.3732300
1097.135, 1.076172
1097.617, 1.457336
1098.099, 1.457886
1098.581, 0.8238530
1099.063, 0.3458250
1099.545, 0.9503170
1100.027, 0.5653080
1100.510, 0.1259770
1100.992, 1.374756
1101.474, 2.400330
1101.956, 2.538147
1102.438, 2.394409
1102.920, 3.107544
1103.402, 4.299866
1103.884, 3.733887
1104.367, 0.3005980
1104.849, 2.690430
1105.331, 2.033752
1105.813, 0.2321170
1106.295, 3.719727
1106.777, 7.024841
1107.259, 6.333496
1107.741, 3.052124
1108.224, 1.415405
1108.706, 2.100830
1109.188, 3.063416
1109.670, 4.962341
1110.152, 5.967712
1110.634, 5.135681
1111.116, 3.818054
1111.598, 2.581909
1112.080, 1.596191
1112.563, 1.287292
1113.045, 1.773926
1113.527, 1.872131
1114.009, 0.8719480
1114.491, 0.6608890
1114.973, 2.144958
1115.455, 3.486572
1115.937, 3.755188
1116.419, 3.475952
1116.902, 3.236267
1117.384, 3.048096
1117.866, 3.070801
1118.348, 3.851685
1118.830, 3.469543
1119.312, 0.7776490
1119.794, 1.210938
1120.276, 1.360474
1120.759, 0.6467900
1121.241, 0.3076780
1121.723, 1.377197
1122.205, 2.130859
1122.687, 2.540833
1123.169, 2.758850
1123.651, 2.824341
1124.133, 2.419617
1124.615, 1.118713
1125.098, 0.4468990
1125.580, 1.718689
1126.062, 3.765381
1126.544, 4.200439
1127.026, 3.073486
1127.508, 2.881836
1127.990, 3.787537
1128.472, 4.270935
1128.954, 4.093018
1129.437, 3.412842
1129.919, 2.136108
1130.401, 1.297363
1130.883, 2.403442
1131.365, 4.781555
1131.847, 5.853760
1132.329, 5.625366
1132.811, 3.727173
1133.294, 0.2126460
1133.776, 1.865967
1134.258, 1.493408
1134.740, 0.1256100
1135.222, 2.124390
1135.704, 4.137756
1136.186, 5.291565
1136.668, 5.837036
1137.151, 7.142761
1137.633, 8.881348
1138.115, 8.847412
1138.597, 6.940002
1139.079, 6.171875
1139.561, 8.249939
1140.043, 10.61432
1140.525, 10.22272
1141.007, 7.988892
1141.490, 4.364380
1141.972, 0.7719730
1142.454, 1.317932
1142.936, 5.115906
1143.418, 7.528748
1143.900, 7.053772
1144.382, 5.917297
1144.864, 5.592346
1145.346, 5.738586
1145.829, 5.981934
1146.311, 6.500977
1146.793, 8.071472
1147.275, 9.867493
1147.757, 10.29993
1148.239, 9.231323
1148.721, 7.370972
1149.203, 4.673462
1149.686, 2.955078
1150.168, 4.043396
1150.650, 5.815979
1151.132, 7.499756
1151.614, 8.400513
1152.096, 7.223450
1152.578, 4.804443
1153.060, 3.131958
1153.542, 2.654236
1154.025, 2.853394
1154.507, 4.376648
1154.989, 5.507446
1155.471, 5.251343
1155.953, 4.811523
1156.435, 4.723450
1156.917, 5.052795
1157.399, 6.273743
1157.881, 8.247559
1158.364, 9.037598
1158.846, 7.721191
1159.328, 6.514160
1159.810, 5.213745
1160.292, 4.502380
1160.774, 4.892029
1161.256, 5.625061
1161.738, 6.444275
1162.221, 6.960693
1162.703, 6.008728
1163.185, 3.440674
1163.667, 2.557190
1164.149, 3.743958
1164.631, 5.340637
1165.113, 7.598877
1165.595, 8.795593
1166.078, 7.784729
1166.560, 6.541138
1167.042, 7.733948
1167.524, 10.59186
1168.006, 11.44043
1168.488, 10.21423
1168.970, 8.559875
1169.452, 6.527527
1169.934, 4.910828
1170.417, 3.916199
1170.899, 4.352478
1171.381, 7.010193
1171.863, 10.12659
1172.345, 10.40332
1172.827, 8.745178
1173.309, 8.834473
1173.791, 9.985901
1174.273, 9.139832
1174.756, 6.414307
1175.238, 4.516541
1175.720, 4.557068
1176.202, 5.235046
1176.684, 5.553040
1177.166, 5.680115
1177.648, 5.717407
1178.130, 5.734192
1178.613, 5.834778
1179.095, 5.935547
1179.577, 5.822815
1180.059, 5.481018
1180.541, 4.899109
1181.023, 3.957092
1181.505, 3.514404
1181.987, 4.539917
1182.469, 5.700439
1182.952, 5.958191
1183.434, 6.068726
1183.916, 7.252502
1184.398, 8.682800
1184.880, 8.518188
1185.362, 6.535156
1185.844, 4.580750
1186.326, 2.172913
1186.808, 1.238037
1187.291, 3.846863
1187.773, 5.855713
1188.255, 4.645874
1188.737, 2.724731
1189.219, 2.612671
1189.701, 3.679932
1190.183, 3.954285
1190.665, 3.233948
1191.148, 2.766907
1191.630, 2.328064
1192.112, 2.604187
1192.594, 4.157776
1193.076, 5.199585
1193.558, 4.673218
1194.040, 3.683472
1194.522, 3.765442
1195.005, 4.462158
1195.487, 3.463013
1195.969, 0.8367920
1196.451, 0.3433840
1196.933, 2.062500
1197.415, 3.173035
1197.897, 3.005554
1198.379, 3.666931
1198.861, 6.617920
1199.344, 9.661133
1199.826, 9.788330
1200.308, 7.996826
1200.790, 5.460266
1201.272, 2.644775
1201.754, 0.7858280
1202.236, 1.6295999E-02
1202.718, 0.3681640
1203.200, 1.734985
1203.683, 2.684875
1204.165, 2.266541
1204.647, 1.520508
1205.129, 1.049194
1205.611, 0.7736210
1206.093, 0.6208500
1206.575, 0.6366580
1207.057, 0.8828130
1207.540, 1.350525
1208.022, 2.164917
1208.504, 3.428711
1208.986, 3.945679
1209.468, 2.407959
1209.950, 1.624268
1210.432, 3.459717
1210.914, 4.707336
1211.396, 2.853088
1211.879, 0.3638920
1212.361, 5.2368000E-02
1212.843, 1.013062
1213.325, 1.095215
1213.807, 0.2512210
1214.289, 0.3255000
1214.771, 1.206665
1215.253, 2.757324
1215.735, 4.111267
1216.218, 4.992615
1216.700, 5.281555
1217.182, 4.787598
1217.664, 2.984131
1218.146, 0.6853030
1218.628, 0.5506590
1219.110, 2.118774
1219.592, 2.966309
1220.075, 3.032288
1220.557, 2.903870
1221.039, 2.690002
1221.521, 1.849854
1222.003, 2.6489001E-02
1222.485, 1.221558
1222.967, 0.3067020
1223.449, 2.611023
1223.932, 3.855957
1224.414, 4.115967
1224.896, 2.602600
1225.378, 0.5929570
1225.860, 0.7635500
1226.342, 3.170898
1226.824, 5.044189
1227.306, 5.424500
1227.788, 5.223450
1228.271, 4.617371
1228.753, 3.667053
1229.235, 1.370911
1229.717, 0.2538450
1230.199, 1.570984
1230.681, 4.574890
1231.163, 4.017334
1231.645, 3.3264000E-02
1232.127, 0.5977170
1232.610, 4.059753
1233.092, 5.939209
1233.574, 3.825073
1234.056, 1.851990
1234.538, 1.146729
1235.020, 1.551941
1235.502, 3.191772
1235.984, 4.898254
1236.467, 4.433533
1236.949, 2.392639
1237.431, 1.166199
1237.913, 0.6708370
1238.395, 0.6777950
1238.877, 1.066711
1239.359, 1.516174
1239.841, 1.905823
1240.323, 2.186340
1240.806, 2.318665
1241.288, 2.275330
1241.770, 1.660522
1242.252, 1.230713
1242.734, 2.182983
1243.216, 3.432373
1243.698, 3.238892
1244.180, 2.279785
1244.662, 2.453247
1245.145, 3.970825
1245.627, 4.879395
1246.109, 4.594177
1246.591, 3.808411
1247.073, 1.981140
1247.555, 0.5464480
1248.037, 7.2692998E-02
1248.519, 1.8798999E-02
1249.002, 1.448242
1249.484, 3.105164
1249.966, 2.789856
1250.448, 0.7056880
1250.930, 0.9362180
1251.412, 3.901917
1251.894, 4.148926
1252.376, 1.102661
1252.859, 0.2252810
1253.341, 2.018921
1253.823, 4.339355
1254.305, 4.420288
1254.787, 3.646545
1255.269, 3.831970
1255.751, 4.457092
1256.233, 4.939941
1256.715, 4.944031
1257.198, 2.654541
1257.680, 0.6782230
1258.162, 1.068359
1258.644, 1.548523
1259.126, 3.124268
1259.608, 1.555786
1260.090, 0.2808840
1260.572, 1.196533
1261.054, 2.396362
1261.537, 2.945313
1262.019, 3.430786
1262.501, 4.687988
1262.983, 5.984680
1263.465, 5.871643
1263.947, 4.601013
1264.429, 4.272827
1264.911, 5.511780
1265.394, 5.263672
1265.876, 3.149841
1266.358, 2.094788
1266.840, 2.811890
1267.322, 3.330444
1267.804, 2.280579
1268.286, 1.407288
1268.768, 2.611938
1269.250, 4.603760
1269.733, 3.872131
1270.215, 1.564331
1270.697, 2.039124
1271.179, 4.636292
1271.661, 4.742493
1272.143, 2.597290
1272.625, 1.690308
1273.107, 3.354553
1273.589, 4.915955
1274.072, 5.077209
1274.554, 4.330017
1275.036, 1.727295
1275.518, 0.3757320
1276.000, 0.2242430
1276.482, 1.677246
1276.964, 1.779968
1277.446, 1.053467
1277.929, 1.486145
1278.411, 3.317017
1278.893, 3.746216
1279.375, 1.292603
1279.857, 1.126343
1280.339, 3.466125
1280.821, 4.346741
1281.303, 2.475037
1281.786, 0.4497070
1282.268, 0.0000000E+00
##END=



