##NAMES=Wangdaodeite
##RRUFFID=R150142
##IDEAL CHEMISTRY=Fe^2+^Ti^4+^O_3_
##LOCALITY=Suizhou L6 chondrite, Dayanpo, 12.5 km southeast of the city of Suizhou, Hubei Province, China (35°18’N, 113°35’E)
##OWNER=RRUFF
##SOURCE=Xiande Xie and Xiangping Gu
##DESCRIPTION=Type sample. Aggregates of irregular black grains, ranging from 2 to 18 μm in diameter, composed of nano-sized crystals (10-80 nm), in shocked veins associated with xieite, ringwoodite, majorite, olivine, pyroxene, maskelynite, kamacite, troilite.
##STATUS=The identification of this mineral is confirmed by single-crystal X-ray diffraction and chemical analysis.
##URL=rruff.info/R150142
##MEASURED CHEMISTRY=(Fe_0.849_Mg_0.096_Mn_0.063_)_Σ1.008_(Ti_0.987_Cr_0.001_Al_0.002_)_Σ0.994_O_2.998_
100, 3297.6633
100.87156, 3351.5588
101.74312, 3396.365
102.61468, 3482.2659
103.48624, 3486.3987
104.3578, 3469.4756
105.22935, 3468.9788
106.10091, 3446.5811
106.97248, 3553.7581
107.84404, 3564.4841
108.7156, 3539.8491
109.58716, 3585.2688
110.45872, 3620.0972
111.33028, 3611.967
112.20184, 3640.7405
113.07339, 3624.4609
113.94495, 3669.0298
114.81651, 3716.7612
115.68807, 3730.6968
116.55963, 3725.9551
117.43119, 3735.8433
118.30275, 3769.6138
119.17431, 3760.1814
120.04587, 3841.7068
120.91743, 3850.6885
121.78899, 3845.1985
122.66055, 3835.0305
123.53211, 3804.4917
124.40367, 3773.7351
125.27523, 3896.6318
126.14679, 3890.1443
127.01835, 3857.4709
127.88991, 3922.2209
128.76147, 3930.595
129.63303, 3880.7273
130.50459, 3928.468
131.37614, 4022.3257
132.24771, 3986.1975
133.11926, 4078.9587
133.99083, 4074.604
134.86238, 4086.4768
135.73395, 4089.8352
136.6055, 4015.1272
137.47707, 4084.8982
138.34862, 4103.8379
139.22018, 4177.6909
140.09174, 4195.6274
140.9633, 4208.5625
141.83487, 4240.9883
142.70642, 4267.2397
143.57799, 4255.6763
144.44954, 4288.4629
145.32111, 4349.8276
146.19266, 4340.7021
147.06422, 4330.0742
147.93578, 4348.001
148.80734, 4384
149.67889, 4417.123
150.55046, 4434.3926
151.42201, 4495.7344
152.29358, 4479.5308
153.16513, 4483.1729
154.0367, 4521.2554
154.90826, 4556.8521
155.77982, 4560.9219
156.65138, 4572.3545
157.52293, 4600.874
158.3945, 4605.7383
159.26605, 4629.4893
160.13762, 4703.7339
161.00917, 4755.8208
161.88074, 4750.0796
162.75229, 4854.9287
163.62386, 4868.7676
164.49541, 4841.6748
165.36697, 4809.2388
166.23853, 4854.9185
167.11009, 4926.7891
167.98166, 4951.2935
168.85321, 4944.1157
169.72478, 4952.7715
170.59633, 4968.9902
171.4679, 4996.75
172.33945, 5007
173.21101, 5053.5352
174.08257, 5125.1855
174.95413, 5156.7354
175.82568, 5169.4492
176.69725, 5036.0273
177.5688, 5121.7246
178.44037, 5162.8027
179.31192, 5101.8164
180.18349, 5053.7368
181.05504, 5067.73
181.92661, 5016.9033
182.79817, 5093.2031
183.66972, 5112.7075
184.54129, 5132.8628
185.41284, 5059.6377
186.28441, 5017.3701
187.15596, 5019.3511
188.02753, 4957.9233
188.89908, 4900.6035
189.77065, 4913.6211
190.6422, 4898.7041
191.51376, 4832.8188
192.38531, 4751.8843
193.25688, 4699.0132
194.12843, 4670.0879
195, 4613.6909
195.87157, 4552.0283
196.74312, 4547.5835
197.61469, 4492.7886
198.48624, 4495.1069
199.3578, 4479.5854
200.22935, 4422.8115
201.10092, 4373.1987
201.97247, 4344.436
202.84404, 4425.2788
203.71559, 4371.9385
204.58716, 4309.8042
205.45871, 4230.5166
206.33028, 4186.9263
207.20183, 4220.3999
208.07339, 4285.8389
208.94496, 4246.8525
209.81651, 4212.0664
210.68808, 4235.0142
211.55963, 4230.8848
212.4312, 4219.9834
213.30275, 4214.1802
214.17432, 4197.9131
215.04587, 4160.7495
215.91743, 4172.1016
216.78899, 4216.4038
217.66055, 4202.4692
218.5321, 4192.1382
219.40367, 4204.21
220.27522, 4238.3833
221.14679, 4284.3369
222.01834, 4316.2183
222.88991, 4263.0728
223.76147, 4241.8916
224.63303, 4229.7217
225.50459, 4211.0337
226.37614, 4193.4199
227.24771, 4175.6685
228.11926, 4163.1807
228.99083, 4182.916
229.86238, 4112.1719
230.73395, 4057.2112
231.6055, 3996.0735
232.47707, 4014.584
233.34862, 3992.5776
234.22018, 3894.4648
235.09174, 3822.887
235.9633, 3816.313
236.83487, 3711.4041
237.70642, 3661.2356
238.57799, 3592.8501
239.44954, 3600.4758
240.32111, 3590.0994
241.19266, 3545.8132
242.06422, 3543.4253
242.93578, 3508.1228
243.80734, 3446.8784
244.67889, 3446.7507
245.55046, 3441.4788
246.42201, 3469.2612
247.29358, 3443.2932
248.16513, 3384.5437
249.0367, 3389.6726
249.90826, 3376.2922
250.77982, 3370.1768
251.65138, 3359.1375
252.52293, 3324.7732
253.3945, 3310.8367
254.26605, 3294.6797
255.13762, 3294.4097
256.00919, 3324.9768
256.88074, 3282.3535
257.75229, 3242.9172
258.62384, 3298.3672
259.49542, 3285.0862
260.36697, 3256.7432
261.23853, 3246.3062
262.11008, 3232.9165
262.98166, 3212.7671
263.85321, 3246.5667
264.72476, 3206.158
265.59634, 3208.4761
266.4679, 3118.4092
267.33945, 3170.4814
268.211, 3230.4827
269.08258, 3237.9583
269.95413, 3218.8589
270.82568, 3156.3677
271.69724, 3199.9055
272.56882, 3104.1733
273.44037, 3145.2026
274.31192, 3150.7126
275.18347, 3108.9514
276.05505, 3083.0281
276.92661, 3059.9424
277.79816, 3001.374
278.66974, 3146.9065
279.54129, 3042.1453
280.41284, 3072.9749
281.28439, 3061.0024
282.15598, 3088.2585
283.02753, 3069.3889
283.89908, 2995.2544
284.77063, 2985.3608
285.64221, 3042.0657
286.51376, 3049.1318
287.38531, 3048.6235
288.25687, 3070.8589
289.12845, 3049.927
290, 3023.7205
290.87155, 3029.7185
291.74313, 3040.1772
292.61469, 3010.5776
293.48624, 3064.2815
294.35779, 3041.3943
295.22937, 2984.4031
296.10092, 2983.0735
296.97247, 3000.3472
297.84402, 3007.814
298.71561, 3003.0198
299.58716, 2992.4458
300.45871, 2979.8923
301.33026, 2943.7058
302.20184, 2998.4946
303.07339, 2981.04
303.94495, 2979.9888
304.81653, 3009.5566
305.68808, 3040.7935
306.55963, 3032.1938
307.43118, 2971.375
308.30276, 2974.3203
309.17432, 2949.5874
310.04587, 2952.3896
310.91742, 2999.5159
311.789, 3056.3257
312.66055, 3035.1709
313.5321, 2967.1128
314.40366, 2963.9744
315.27524, 2999.9556
316.14679, 3018.5498
317.01834, 2989.6497
317.88992, 2958.8323
318.76147, 2995.6477
319.63303, 3013.752
320.50458, 3002.0244
321.37616, 3007.9963
322.24771, 3023.2258
323.11926, 2963.7607
323.99081, 3045.3694
324.8624, 2990.116
325.73395, 3022.7898
326.6055, 3039.5815
327.47705, 3016.5291
328.34863, 3020.1289
329.22018, 3048.3032
330.09174, 3010.062
330.96332, 3043.1333
331.83487, 3062.6809
332.70642, 3116.3821
333.57797, 3098.1543
334.44955, 3116.5315
335.32111, 3100.2517
336.19266, 3059.4568
337.06421, 3073.4482
337.93579, 3114.1458
338.80734, 3143.1709
339.67889, 3135.189
340.55045, 3108.7429
341.42203, 3131.5168
342.29358, 3142.1548
343.16513, 3144.2468
344.03668, 3122.4087
344.90826, 3083.4238
345.77982, 3109.5818
346.65137, 3122.8723
347.52295, 3134.4531
348.3945, 3133.9834
349.26605, 3095.5356
350.1376, 3139.6924
351.00919, 3168.0757
351.88074, 3136.1865
352.75229, 3110.4187
353.62384, 3115.2222
354.49542, 3149.479
355.36697, 3171.7571
356.23853, 3187.541
357.11008, 3218.1602
357.98166, 3251.1362
358.85321, 3244.9509
359.72476, 3224.3013
360.59634, 3228.6812
361.4679, 3235.0933
362.33945, 3240.7207
363.211, 3220.2346
364.08258, 3258.8105
364.95413, 3284.9829
365.82568, 3340.5105
366.69724, 3349.1292
367.56882, 3330.7363
368.44037, 3339.6138
369.31192, 3361.4038
370.18347, 3403.335
371.05505, 3348.0295
371.92661, 3420.8289
372.79816, 3463.9319
373.66974, 3444.3228
374.54129, 3436.1594
375.41284, 3437.4744
376.28439, 3426.8572
377.15598, 3415.3228
378.02753, 3404.656
378.89908, 3456.0364
379.77063, 3437.293
380.64221, 3390.7502
381.51376, 3373.0161
382.38531, 3342.916
383.25687, 3358.407
384.12845, 3365.8076
385, 3314.6404
385.87155, 3318.7534
386.74313, 3304.4971
387.61469, 3291.0996
388.48624, 3270.9368
389.35779, 3302.7627
390.22937, 3295.7302
391.10092, 3251.0852
391.97247, 3221.3948
392.84402, 3219.8135
393.71561, 3223.2981
394.58716, 3249.9958
395.45871, 3262.1863
396.33026, 3221.8567
397.20184, 3224.6846
398.07339, 3233.4573
398.94495, 3245.9863
399.81653, 3237.8879
400.68808, 3202.1572
401.55963, 3171.2585
402.43118, 3182.0095
403.30276, 3207.8979
404.17432, 3164.0027
405.04587, 3267.8235
405.91742, 3140.9907
406.789, 3152.1797
407.66055, 3174.6204
408.5321, 3178.5195
409.40366, 3196.29
410.27524, 3205.8582
411.14679, 3202.8884
412.01834, 3277.6406
412.88992, 3223.7476
413.76147, 3160.5073
414.63303, 3209.6421
415.50458, 3192.9692
416.37616, 3171.2085
417.24771, 3168.083
418.11926, 3161.4099
418.99081, 3155.8076
419.8624, 3156.0969
420.73395, 3105.6257
421.6055, 3164.1111
422.47705, 3109.1101
423.34863, 3120.926
424.22018, 3116.8262
425.09174, 3114.3271
425.96332, 3141.3845
426.83487, 3141.6472
427.70642, 3086.9902
428.57797, 3092.9282
429.44955, 3092.9409
430.32111, 3110.9673
431.19266, 3033.5227
432.06421, 3086.2839
432.93579, 3069.0403
433.80734, 3078.3962
434.67889, 3064.6196
435.55045, 3045.7285
436.42203, 3084.0374
437.29358, 3034.2249
438.16513, 3024.7878
439.03668, 3049.1455
439.90826, 2971.0164
440.77982, 3046.8645
441.65137, 3066.9819
442.52295, 3009.8577
443.3945, 2977.3491
444.26605, 2999.063
445.1376, 3003.4905
446.00919, 2956.7007
446.88074, 2943.7424
447.75229, 2936.5269
448.62384, 2921.3127
449.49542, 3005.1892
450.36697, 2964.7407
451.23853, 2964.5293
452.11008, 2960.269
452.98166, 2941.3857
453.85321, 2957.4319
454.72476, 2978.7625
455.59634, 2965.6091
456.4679, 2994.1426
457.33945, 2978.7725
458.211, 2974.2725
459.08258, 2915.0535
459.95413, 2879.7935
460.82568, 2925.0989
461.69724, 2962.748
462.56882, 2936.145
463.44037, 2912.1606
464.31192, 2948.5483
465.18347, 2974.3484
466.05505, 2844.7969
466.92661, 2944.4614
467.79816, 2924.0657
468.66974, 2922.1428
469.54129, 2905.3181
470.41284, 2936.208
471.28439, 2936.679
472.15598, 2893.4333
473.02753, 2916.6533
473.89908, 2914.8906
474.77063, 2912.1091
475.64221, 2967.4658
476.51376, 2866.8086
477.38531, 2952.3933
478.25687, 2892.6814
479.12845, 2867.5059
480, 2906.8567
480.87155, 2918.8149
481.74313, 2906.3687
482.61469, 2926.1755
483.48624, 2921.6128
484.35779, 3002.345
485.22937, 2937.77
486.10092, 2889.5649
486.97247, 2861.4766
487.84402, 2859.8916
488.71561, 2904.8525
489.58716, 2942.5984
490.45871, 2940.5413
491.33026, 2917.1533
492.20184, 2904.8081
493.07339, 2931.261
493.94495, 2930.8125
494.81653, 2920.8242
495.68808, 2900.469
496.55963, 2886.5098
497.43118, 2852.5911
498.30276, 2850.2498
499.17432, 2876.0571
500.04587, 2930.4111
500.91742, 2967.688
501.789, 2928.3884
502.66055, 2896.0049
503.5321, 2882.741
504.40366, 2978.5171
505.27524, 2956.7356
506.14679, 2959.8623
507.01834, 2961.5186
507.88992, 2991.2644
508.76147, 2947.8528
509.63303, 2917.0896
510.50458, 2940.1797
511.37616, 2929.4045
512.24768, 2932.8853
513.11926, 2942.884
513.99084, 2983.303
514.86237, 2942.2249
515.73395, 2947.842
516.60553, 2955.6646
517.47705, 2978.8218
518.34863, 2988.5808
519.22015, 3021.3557
520.09174, 3026.2847
520.96332, 3024.5557
521.83484, 3110.8601
522.70642, 3075.3657
523.578, 3041.7322
524.44952, 3024.3752
525.32111, 3034.4922
526.19269, 3029.4646
527.06421, 3055.0835
527.93579, 3093.0139
528.80731, 3131.3132
529.67889, 3149.4749
530.55048, 3140.2827
531.422, 3144.9604
532.29358, 3185.3826
533.16516, 3171.0195
534.03668, 3222.6157
534.90826, 3259.2576
535.77985, 3186.9868
536.65137, 3253.9971
537.52295, 3299.7288
538.39447, 3258.5808
539.26605, 3240.5352
540.13763, 3264.8359
541.00916, 3301.6614
541.88074, 3334.4199
542.75232, 3327.2334
543.62384, 3328.3518
544.49542, 3280.771
545.36694, 3317.5193
546.23853, 3336.7302
547.11011, 3376.5139
547.98163, 3364.969
548.85321, 3370.7449
549.72479, 3345.9751
550.59631, 3346.6665
551.4679, 3378.9553
552.33948, 3382.8889
553.211, 3387.6396
554.08258, 3366.269
554.9541, 3362.1199
555.82568, 3404.3723
556.69727, 3342.6592
557.56879, 3402.4102
558.44037, 3377.0256
559.31195, 3373.6162
560.18347, 3387.5486
561.05505, 3394.0107
561.92664, 3390.3848
562.79816, 3399.2537
563.66974, 3402.0771
564.54126, 3333.168
565.41284, 3367.936
566.28442, 3315.6631
567.15594, 3373.6965
568.02753, 3353.6038
568.89911, 3369.1528
569.77063, 3411.124
570.64221, 3396.8264
571.51373, 3380.8838
572.38531, 3363.6526
573.2569, 3330.5242
574.12842, 3329.1099
575, 3350.7966
575.87158, 3301.856
576.7431, 3307.7312
577.61469, 3306.825
578.48627, 3293.9746
579.35779, 3336.5942
580.22937, 3316.6145
581.10089, 3329.8792
581.97247, 3319.7581
582.84406, 3291.988
583.71558, 3303.1091
584.58716, 3319.0405
585.45874, 3298.8779
586.33026, 3300.0747
587.20184, 3292.9414
588.07336, 3272.5977
588.94495, 3304.9856
589.81653, 3360.3882
590.68805, 3292.1885
591.55963, 3278.3076
592.43121, 3273.9229
593.30273, 3264.6665
594.17432, 3295.5605
595.0459, 3303.9883
595.91742, 3241.0256
596.789, 3199.1099
597.66052, 3243.093
598.5321, 3265.137
599.40369, 3280.3491
600.27521, 3245.5051
601.14679, 3299.2524
602.01837, 3272.531
602.88989, 3290.6919
603.76147, 3289.7651
604.63306, 3277.5193
605.50458, 3280.449
606.37616, 3268.1416
607.24768, 3245.1726
608.11926, 3252.7744
608.99084, 3273.2505
609.86237, 3261.6985
610.73395, 3264.7393
611.60553, 3252.1089
612.47705, 3220.5798
613.34863, 3272.2554
614.22015, 3265.4314
615.09174, 3290.0039
615.96332, 3250.8455
616.83484, 3263.9648
617.70642, 3280.3054
618.578, 3267.2476
619.44952, 3287.1877
620.32111, 3282.6611
621.19269, 3211.4722
622.06421, 3254.7327
622.93579, 3242.9739
623.80731, 3241.7769
624.67889, 3285.47
625.55048, 3273.6858
626.422, 3286.3899
627.29358, 3307.5781
628.16516, 3324.9097
629.03668, 3325.2573
629.90826, 3289.4534
630.77985, 3301.6494
631.65137, 3322.575
632.52295, 3290.7366
633.39447, 3290.9348
634.26605, 3327.9048
635.13763, 3288.6294
636.00916, 3324.8086
636.88074, 3433.4937
637.75232, 3370.2102
638.62384, 3365.1794
639.49542, 3374.7488
640.36694, 3372.4934
641.23853, 3370.9961
642.11011, 3348.99
642.98163, 3370.3765
643.85321, 3411.9487
644.72479, 3410.3469
645.59631, 3397.9441
646.4679, 3412.3528
647.33948, 3417.0771
648.211, 3471.9268
649.08258, 3522.4636
649.9541, 3475.6067
650.82568, 3547.5347
651.69727, 3594.938
652.56879, 3557.6611
653.44037, 3540.5562
654.31195, 3546.3242
655.18347, 3575.1743
656.05505, 3614.0486
656.92664, 3651.4124
657.79816, 3676.2354
658.66974, 3695.051
659.54126, 3732.738
660.41284, 3772.135
661.28442, 3772.2678
662.15594, 3835.1355
663.02753, 3693.6975
663.89911, 4085.1331
664.77063, 3947.2888
665.64221, 4011.7737
666.51373, 4117.6318
667.38531, 4109.877
668.2569, 4080.5439
669.12842, 4134.0991
670, 4208.9346
670.87158, 4248.0972
671.7431, 4244.6582
672.61469, 4249.8594
673.48627, 4342.6494
674.35779, 4384.479
675.22937, 4339.3203
676.10089, 4445.7305
676.97247, 4533.6226
677.84406, 4517.6826
678.71558, 4542.1494
679.58716, 4578.3218
680.45874, 4557.1055
681.33026, 4616.2153
682.20184, 4589.4302
683.07336, 4599.4897
683.94495, 4580.6069
684.81653, 4540.0454
685.68805, 4595.0146
686.55963, 4658.9639
687.43121, 4653.7285
688.30273, 4636.7827
689.17432, 4548.8203
690.0459, 4616.5044
690.91742, 4552.4482
691.789, 4482.0425
692.66052, 4469.9561
693.5321, 4441.2988
694.40369, 4420.4038
695.27521, 4376.4199
696.14679, 4366.2852
697.01837, 4343.2285
697.88989, 4293.0869
698.76147, 4232.8442
699.63306, 4200.6074
700.50458, 4188.8184
701.37616, 4167.896
702.24768, 4174.498
703.11926, 4139.9175
703.99084, 4084.0889
704.86237, 4119.0659
705.73395, 4051.5137
706.60553, 3996.8801
707.47705, 4030.0645
708.34863, 3990.6277
709.22015, 3997.8738
710.09174, 3979.8291
710.96332, 3884.6313
711.83484, 3861.4106
712.70642, 3879.2876
713.578, 3856.0789
714.44952, 3826.5928
715.32111, 3811.375
716.19269, 3773.1321
717.06421, 3738.2026
717.93579, 3723.1924
718.80731, 3671.1531
719.67889, 3739.8521
720.55048, 3785.8562
721.422, 3730.1738
722.29358, 3736.9624
723.16516, 3672.5251
724.03668, 3673.395
724.90826, 3609.5715
725.77985, 3608.7717
726.65137, 3662.5881
727.52295, 3656.4519
728.39447, 3613.054
729.26605, 3620.7634
730.13763, 3621.8333
731.00916, 3611.8865
731.88074, 3614.6414
732.75232, 3527.8337
733.62384, 3493.4856
734.49542, 3495.9802
735.36694, 3485.9592
736.23853, 3551.7771
737.11011, 3596.145
737.98163, 3531.7271
738.85321, 3474.6157
739.72479, 3450.9495
740.59631, 3496.4707
741.4679, 3550.5725
742.33948, 3462.9612
743.211, 3421.0808
744.08258, 3394.6575
744.9541, 3380.8142
745.82568, 3371.8748
746.69727, 3359.9702
747.56879, 3383.7817
748.44037, 3381.6458
749.31195, 3325.0891
750.18347, 3349.0337
751.05505, 3310.802
751.92664, 3288.6602
752.79816, 3273.698
753.66974, 3293.0801
754.54126, 3254.1584
755.41284, 3213.3875
756.28442, 3171.6851
757.15594, 3158.7244
758.02753, 3167.9827
758.89911, 3154.5203
759.77063, 3109.7583
760.64221, 3098.0706
761.51373, 3102.7915
762.38531, 3030.6772
763.2569, 2987.644
764.12842, 3008.4185
765, 2977.175
765.87158, 2930.3438
766.7431, 2923.4373
767.61469, 2911.3889
768.48627, 2866.0427
769.35779, 2875.1313
770.22937, 2827.6167
771.10089, 2812.304
771.97247, 2881.907
772.84406, 2741.6052
773.71558, 2789.0679
774.58716, 2753.7754
775.45874, 2732.8191
776.33026, 2707.5432
777.20184, 2699.7964
778.07336, 2684.2888
778.94495, 2642.6599
779.81653, 2646.6082
780.68805, 2624.7627
781.55963, 2600.9414
782.43121, 2570.7993
783.30273, 2486.2122
784.17432, 2492.3955
785.0459, 2554.5615
785.91742, 2471.9927
786.789, 2447.8611
787.66052, 2497.543
788.5321, 2454.0891
789.40369, 2370.5967
790.27521, 2368.2905
791.14679, 2349.1919
792.01837, 2395.4324
792.88989, 2408.5732
793.76147, 2408.9668
794.63306, 2355.1509
795.50458, 2386.5322
796.37616, 2352.3936
797.24768, 2304.7852
798.11926, 2303.4009
798.99084, 2317.3123
799.86237, 2294.4331
800.73395, 2279.3723
801.60553, 2251.7107
802.47705, 2218.6392
803.34863, 2229.5786
804.22015, 2220.7051
805.09174, 2206.4402
805.96332, 2192.4009
806.83484, 2222.2659
807.70642, 2149.9597
808.578, 2168.9243
809.44952, 2153.418
810.32111, 2168.5513
811.19269, 2120.6523
812.06421, 2095.5002
812.93579, 2181.1934
813.80731, 2159.8545
814.67889, 2106.4976
815.55048, 2080.5283
816.422, 2122.3091
817.29358, 2136.8394
818.16516, 2095.156
819.03668, 2053.0884
819.90826, 2057.207
820.77985, 2048.144
821.65137, 2055.4829
822.52295, 2064.5798
823.39447, 2051.4478
824.26605, 2025.2709
825.13763, 1992.4307
826.00916, 2032.2473
826.88074, 2040.9688
827.75232, 2050.0002
828.62384, 2032.9183
829.49542, 2011.141
830.36694, 2023.2188
831.23853, 2044.2046
832.11011, 2038.0242
832.98163, 1973.5529
833.85321, 1989.8878
834.72479, 2001.6516
835.59631, 1952.9388
836.4679, 1980.5809
837.33948, 2064.6255
838.211, 2002.0703
839.08258, 1962.4209
839.9541, 1969.2833
840.82568, 1989.3019
841.69727, 1997.3248
842.56879, 1974.6244
843.44037, 1980.9639
844.31195, 2010.702
845.18347, 1999.9808
846.05505, 1977.2252
846.92664, 1972.4298
847.79816, 1971.5958
848.66974, 1982.1422
849.54126, 1964.3059
850.41284, 1935.8005
851.28442, 1958.9301
852.15594, 1962.7194
853.02753, 1980.7623
853.89911, 1942.3547
854.77063, 1989.8586
855.64221, 1977.3491
856.51373, 1938.7369
857.38531, 1931.016
858.2569, 1962.7512
859.12842, 1955.6665
860, 1954.1404
860.87158, 1896.3326
861.7431, 1935.9141
862.61469, 1952.4465
863.48627, 1938.0913
864.35779, 1952.7933
865.22937, 1944.11
866.10089, 1986.9351
866.97247, 1959.7294
867.84406, 1946.5593
868.71558, 1971.2432
869.58716, 1956.0192
870.45874, 1935.2357
871.33026, 1919.2404
872.20184, 1898.4968
873.07336, 1894.6396
873.94495, 1898.7231
874.81653, 1920.4186
875.68805, 1926.4843
876.55963, 1894.0548
877.43121, 1905.0895
878.30273, 1932.1843
879.17432, 1893.851
880.0459, 1845.4153
880.91742, 1887.0889
881.789, 1892.996
882.66052, 1904.5934
883.5321, 1881.1992
884.40369, 1874.4609
885.27521, 1810.4994
886.14679, 1833.4102
887.01837, 1883.6462
887.88989, 1877.6737
888.76147, 1877.4343
889.63306, 1842.2886
890.50458, 1833.9714
891.37616, 1864.2224
892.24768, 1827.9945
893.11926, 1844.235
893.99084, 1854.9617
894.86237, 1861.3999
895.73395, 1863.4054
896.60553, 1881.2349
897.47705, 1838.4094
898.34863, 1788.9219
899.22015, 1812.4222
900.09174, 1822.453
900.96332, 1799.0011
901.83484, 1791.896
902.70642, 1768.5109
903.578, 1767.0548
904.44952, 1797.1707
905.32111, 1791.9218
906.19269, 1782.8146
907.06421, 1727.2321
907.93579, 1779.1356
908.80731, 1791.8398
909.67889, 1746.1912
910.55048, 1771.5175
911.422, 1780.2783
912.29358, 1758.4905
913.16516, 1778.0862
914.03668, 1692.7354
914.90826, 1698.0638
915.77985, 1798.8649
916.65137, 1793.6436
917.52295, 1740.1168
918.39447, 1747.9335
919.26605, 1741.4484
920.13763, 1724.3851
921.00916, 1744.0443
921.88074, 1730.2701
922.75232, 1764.3396
923.62384, 1709.8818
924.49542, 1706.3774
925.36694, 1765.3179
926.23853, 1774.0947
927.11011, 1737.1149
927.98163, 1729.8298
928.85321, 1723.1483
929.72479, 1700.7644
930.59631, 1744.8394
931.4679, 1724.2539
932.33948, 1722.209
933.211, 1731.0018
934.08258, 1726.1534
934.9541, 1740.248
935.82568, 1743.5934
936.69727, 1751.4271
937.56879, 1736.1772
938.44037, 1715.2223
939.31195, 1751.7273
940.18347, 1767.4886
941.05505, 1747.4376
941.92664, 1736.6571
942.79816, 1721.2172
943.66974, 1728.9399
944.54126, 1738.2572
945.41284, 1714.527
946.28442, 1714.0613
947.15594, 1704.5065
948.02753, 1707.2499
948.89911, 1691.1221
949.77063, 1728.4775
950.64221, 1721.1538
951.51373, 1730.8911
952.38531, 1725.0452
953.2569, 1724.8096
954.12842, 1726.2522
955, 1722.5148
955.87158, 1695.9852
956.7431, 1726.2864
957.61469, 1719.5492
958.48627, 1708.0243
959.35779, 1705.3385
960.22937, 1704.2303
961.10089, 1722.0184
961.97247, 1684.4626
962.84406, 1684.2574
963.71558, 1690.9728
964.58716, 1706.2975
965.45874, 1681.6752
966.33026, 1697.4664
967.20184, 1679.0819
968.07336, 1654.3489
968.94495, 1689.7843
969.81653, 1679.6715
970.68805, 1682.3794
971.55963, 1661.1791
972.43121, 1649.9203
973.30273, 1669.5365
974.17432, 1674.9958
975.0459, 1654.9054
975.91742, 1669.6456
976.789, 1644.1592
977.66052, 1646.1831
978.5321, 1646.4595
979.40369, 1650.7018
980.27521, 1650.7756
981.14679, 1617.0613
982.01837, 1626.7491
982.88989, 1647.8984
983.76147, 1639.7672
984.63306, 1610.827
985.50458, 1624.734
986.37616, 1620.3159
987.24768, 1657.1379
988.11926, 1631.9117
988.99084, 1631.3689
989.86237, 1629.886
990.73395, 1618.2008
991.60553, 1606.245
992.47705, 1590.996
993.34863, 1603.0603
994.22015, 1599.1462
995.09174, 1611.9822
995.96332, 1630.6337
996.83484, 1619.4265
997.70642, 1599.7677
998.578, 1595.6117
999.44952, 1630.8431
1000.3211, 1615.6526
1001.1927, 1595.1973
1002.0642, 1620.2039
1002.9358, 1624.2772
1003.8073, 1606.962
1004.6789, 1584.493
1005.5505, 1597.6174
1006.422, 1604.4246
1007.2936, 1599.762
1008.1652, 1581.8615
1009.0367, 1586.8268
1009.9083, 1610.8345
1010.7798, 1604.0778
1011.6514, 1602.0543
1012.5229, 1622.3666
1013.3945, 1595.4567
1014.2661, 1604.1542
1015.1376, 1594.639
1016.0092, 1602.9785
1016.8807, 1643.991
1017.7523, 1652.062
1018.6238, 1600.7644
1019.4954, 1663.1809
1020.3669, 1627.4512
1021.2385, 1651.0616
1022.1101, 1605.6515
1022.9816, 1601.9347
1023.8532, 1612.8201
1024.7247, 1597.5651
1025.5963, 1632.8075
1026.4679, 1603.3989
1027.3395, 1614.7246
1028.2111, 1640.6359
1029.0825, 1636.4353
1029.9541, 1600.6525
1030.8257, 1636.9248
1031.6973, 1623.8381
1032.5688, 1669.0275
1033.4403, 1596.8503
1034.3119, 1601.8717
1035.1835, 1611.9315
1036.0551, 1610.1367
1036.9266, 1597.2671
1037.7982, 1628.7603
1038.6697, 1625.3762
1039.5413, 1615.0439
1040.4128, 1591.3838
1041.2844, 1586.4725
1042.156, 1603.7698
1043.0275, 1585.2906
1043.899, 1604.0145
1044.7706, 1612.5426
1045.6422, 1614.4109
1046.5138, 1610.7961
1047.3854, 1581.1575
1048.2568, 1584.9222
1049.1284, 1588.821
1050, 1617.1464
1050.8716, 1627.771
1051.7432, 1601.8755
1052.6146, 1594.3679
1053.4862, 1616.8563
1054.3578, 1616.9391
1055.2294, 1593.2122
1056.101, 1583.6235
1056.9725, 1577.1346
1057.844, 1576.9285
1058.7156, 1572.0732
1059.5872, 1558.2224
1060.4587, 1559.2317
1061.3303, 1559.8179
1062.2018, 1560.2582
1063.0734, 1563.2808
1063.9449, 1571.196
1064.8165, 1582.1056
1065.6881, 1590.4397
1066.5597, 1590.1296
1067.4312, 1593.0399
1068.3027, 1585.3699
1069.1743, 1559.4604
1070.0459, 1587.8611
1070.9175, 1572.4725
1071.7889, 1590.851
1072.6605, 1601.0343
1073.5321, 1566.6658
1074.4037, 1543.0735
1075.2753, 1551.3372
1076.1467, 1563.7341
1077.0183, 1546.8987
1077.8899, 1540.6628
1078.7615, 1561.0677
1079.6331, 1575.272
1080.5046, 1550.7211
1081.3761, 1563.2129
1082.2477, 1551.9063
1083.1193, 1562.8735
1083.9908, 1584.8516
1084.8624, 1576.173
1085.7339, 1540.3723
1086.6055, 1500.3201
1087.4771, 1555.8541
1088.3486, 1552.593
1089.2202, 1533.2719
1090.0918, 1556.35
1090.9633, 1527.4331
1091.8348, 1525.0907
1092.7064, 1530.037
1093.578, 1550.7961
1094.4496, 1528.141
1095.321, 1547.1627
1096.1926, 1550.866
1097.0642, 1562.588
1097.9358, 1499.8314
1098.8074, 1540.7672
1099.679, 1533.7314
1100.5504, 1490.7218
1101.422, 1487.0497
1102.2936, 1515.9999
1103.1652, 1545.7596
1104.0367, 1572.6642
1104.9082, 1592.8217
1105.7798, 1483.9867
1106.6514, 1498.1041
1107.5229, 1495.1981
1108.3945, 1566.9009
1109.2661, 1551.3127
1110.1376, 1518.1283
1111.0092, 1576.1368
1111.8807, 1524.2542
1112.7523, 1556.708
1113.6239, 1515.3472
1114.4954, 1561.917
1115.3669, 1581.7443
1116.2385, 1504.1064
1117.1101, 1547.2751
1117.9817, 1498.0543
1118.8533, 1553.618
1119.7247, 1523.6411
1120.5963, 1483.8973
1121.4679, 1547.8544
1122.3395, 1562.8728
1123.2111, 1522.936
1124.0825, 1472.9886
1124.9541, 1500.8821
1125.8257, 1500.9932
1126.6973, 1518.9639
1127.5688, 1529.0205
1128.4403, 1497.1785
1129.3119, 1492.124
1130.1835, 1532.0505
1131.0551, 1505.2157
1131.9266, 1520.1604
1132.7982, 1558.1561
1133.6697, 1557.2588
1134.5413, 1501.2874
1135.4128, 1528.2689
1136.2844, 1510.21
1137.156, 1475.4122
1138.0275, 1482.4658
1138.899, 1491.7803
1139.7706, 1532.4635
1140.6422, 1532.1122
1141.5138, 1500.9237
1142.3854, 1529.5677
1143.2568, 1530.4039
1144.1284, 1521.1034
1145, 1499.1282
1145.8716, 1518.3997
1146.7432, 1508.9788
1147.6146, 1517.6263
1148.4862, 1513.1345
1149.3578, 1473.2317
1150.2294, 1527.9467
1151.101, 1489.1879
1151.9725, 1517.7744
1152.844, 1548.979
1153.7156, 1501.7932
1154.5872, 1530.7029
1155.4587, 1524.0906
1156.3303, 1486.288
1157.2018, 1500.5571
1158.0734, 1483.0808
1158.9449, 1488.7021
1159.8165, 1540.2715
1160.6881, 1484.5662
1161.5597, 1491.1558
1162.4312, 1518.9105
1163.3027, 1537.3352
1164.1743, 1511.9528
1165.0459, 1493.2528
1165.9175, 1524.1783
1166.7889, 1503.9689
1167.6605, 1466.7468
1168.5321, 1474.8992
1169.4037, 1477.9503
1170.2753, 1489.1545
1171.1467, 1523.0044
1172.0183, 1491.3118
1172.8899, 1524.4329
1173.7615, 1508.6549
1174.6331, 1460.2875
1175.5046, 1448.8383
1176.3761, 1469.2635
1177.2477, 1475.1917
1178.1193, 1474.5919
1178.9908, 1474.0157
1179.8624, 1487.1415
1180.7339, 1472.1787
1181.6055, 1478.3562
1182.4771, 1477.7838
1183.3486, 1471.1056
1184.2202, 1497.0526
1185.0918, 1489.3608
1185.9633, 1474.764
1186.8348, 1469.3865
1187.7064, 1479.726
1188.578, 1490.7986
1189.4496, 1480.6818
1190.321, 1507.7635
1191.1926, 1506.0709
1192.0642, 1482.2024
1192.9358, 1483.2242
1193.8074, 1487.7943
1194.679, 1476.886
1195.5504, 1457.152
1196.422, 1476.0474
1197.2936, 1488.183
1198.1652, 1472.896
1199.0367, 1451.9758
1199.9082, 1480.4326
1200.7798, 1490.09
1201.6514, 1476.2659
1202.5229, 1473.6052
1203.3945, 1456.0732
1204.2661, 1469.687
1205.1376, 1502.0485
1206.0092, 1496.7913
1206.8807, 1451.4006
1207.7523, 1452.7694
1208.6239, 1480.9968
1209.4954, 1499.7443
1210.3669, 1515.0483
1211.2385, 1506.4548
1212.1101, 1466.3309
1212.9817, 1500.6333
1213.8533, 1502.6843
1214.7247, 1473.8615
1215.5963, 1482.3865
1216.4679, 1491.8466
1217.3395, 1490.7559
1218.2111, 1470.3838
1219.0825, 1504.5551
1219.9541, 1448.5438
1220.8257, 1450.0854
1221.6973, 1468.5693
1222.5688, 1483.416
1223.4403, 1465.8207
1224.3119, 1463.3149
1225.1835, 1468.8514
1226.0551, 1499.2769
1226.9266, 1469.061
1227.7982, 1467.4325
1228.6697, 1442.8314
1229.5413, 1478.4476
1230.4128, 1460.4225
1231.2844, 1457.1105
1232.156, 1493.8019
1233.0275, 1431.4901
1233.899, 1469.9271
1234.7706, 1485.4403
1235.6422, 1432.6937
1236.5138, 1469.4948
1237.3854, 1441.1151
1238.2568, 1426.6444
1239.1284, 1444.625
1240, 1450.0685
1240.8716, 1454.2546
1241.7432, 1453.5835
1242.6146, 1467.9347
1243.4862, 1421.8657
1244.3578, 1417.9762
1245.2294, 1443.176
1246.101, 1456.5308
1246.9725, 1446.7538
1247.844, 1439.3108
1248.7156, 1435.2367
1249.5872, 1434.241
1250.4587, 1456.1631
1251.3303, 1455.7369
1252.2018, 1449.8798
1253.0734, 1446.0514
1253.9449, 1425.634
1254.8165, 1427.9064
1255.6881, 1445.0343
1256.5597, 1452.4025
1257.4312, 1461.984
1258.3027, 1449.6801
1259.1743, 1452.0664
1260.0459, 1423.0281
1260.9175, 1416.5461
1261.7889, 1439.8347
1262.6605, 1441.2019
1263.5321, 1486.5745
1264.4037, 1432.3141
1265.2753, 1423.5962
1266.1467, 1418.6591
1267.0183, 1435.5674
1267.8899, 1414.0002
1268.7615, 1408.058
1269.6331, 1407.8434
1270.5046, 1425.6519
1271.3761, 1436.1995
1272.2477, 1458.561
1273.1193, 1424.0123
1273.9908, 1438.8618
1274.8624, 1432.1682
1275.7339, 1464.1406
1276.6055, 1407.9159
1277.4771, 1412.0299
1278.3486, 1433.782
1279.2202, 1426.7832
1280.0918, 1401.7256
1280.9633, 1420.9594
1281.8348, 1440.4543
1282.7064, 1439.6699
1283.578, 1423.076
1284.4496, 1436.5587
1285.321, 1450.4186
1286.1926, 1431.2219
1287.0642, 1446.2273
1287.9358, 1445.0569
1288.8074, 1443.2998
1289.679, 1453.2993
1290.5504, 1455.67
1291.422, 1459.3351
1292.2936, 1452.7596
1293.1652, 1469.9918
1294.0367, 1479.6666
1294.9082, 1448.058
1295.7798, 1420.6757
1296.6514, 1444.3251
1297.5229, 1452.6075
1298.3945, 1468.1521
1299.2661, 1437.3256
1300.1376, 1457.5007
1301.0092, 1464.6072
1301.8807, 1423.161
1302.7523, 1465.931
1303.6239, 1449.5863
1304.4954, 1411.1188
1305.3669, 1459.351
1306.2385, 1469.8452
1307.1101, 1455.9703
1307.9817, 1462.5917
1308.8533, 1448.2568
1309.7247, 1439.9603
1310.5963, 1413.3539
1311.4679, 1441.4467
1312.3395, 1443.5229
1313.2111, 1433.0326
1314.0825, 1437.0336
1314.9541, 1456.6973
1315.8257, 1443.228
1316.6973, 1434.5388
1317.5688, 1463.4974
1318.4403, 1444.8661
1319.3119, 1442.3324
1320.1835, 1448.9745
1321.0551, 1434.8363
1321.9266, 1443.3199
1322.7982, 1415.3512
1323.6697, 1427.6353
1324.5413, 1429.8464
1325.4128, 1417.775
1326.2844, 1430.6487
1327.156, 1463.7776
1328.0275, 1411.9443
1328.899, 1486.2875
1329.7706, 1481.0769
1330.6422, 1432.9011
1331.5138, 1431.54
1332.3854, 1419.3998
1333.2568, 1438.5713
1334.1284, 1449.3414
1335, 1448.0099
1335.8716, 1427.2858
1336.7432, 1465.156
1337.6146, 1459.6256
1338.4862, 1464.0392
1339.3578, 1417.0345
1340.2294, 1407.5264
1341.101, 1420.5665
1341.9725, 1413.9885
1342.844, 1426.1627
1343.7156, 1415.5778
1344.5872, 1409.4584
1345.4587, 1416.4425
1346.3303, 1412.7345
1347.2018, 1458.4879
1348.0734, 1416.8867
1348.9449, 1396.5513
1349.8165, 1422.3761
1350.6881, 1382.2723
1351.5597, 1467.2195
1352.4312, 1388.1361
1353.3027, 1402.7095
1354.1743, 1405.3705
1355.0459, 1415.8254
1355.9175, 1423.658
1356.7889, 1454.2129
1357.6605, 1414.3939
1358.5321, 1446.0571
1359.4037, 1410.7761
1360.2753, 1418.7336
1361.1467, 1437.2185
1362.0183, 1442.5961
1362.8899, 1442.824
1363.7615, 1429.714
1364.6331, 1379.63
1365.5046, 1410.7244
1366.3761, 1434.2294
1367.2477, 1416.7111
1368.1193, 1424.3241
1368.9908, 1426.9241
1369.8624, 1416.6256
1370.7339, 1399.9392
1371.6055, 1415.8495
1372.4771, 1458.2006
1373.3486, 1413.8097
1374.2202, 1436.2174
1375.0918, 1424.3831
1375.9633, 1409.6443
1376.8348, 1436.0673
1377.7064, 1467.0352
1378.578, 1435.8369
1379.4496, 1442.2339
1380.321, 1417.7028
1381.1926, 1437.3502
1382.0642, 1433.3915
1382.9358, 1416.1067
1383.8074, 1430.1899
1384.679, 1413.7698
1385.5504, 1426.4672
1386.422, 1433.0946
1387.2936, 1409.4984
1388.1652, 1409.0994
1389.0367, 1409.5549
1389.9082, 1426.0819
1390.7798, 1417.8254
1391.6514, 1456.8949
1392.5229, 1417.0062
1393.3945, 1463.9116
1394.2661, 1426.9973
1395.1376, 1423.559
1396.0092, 1410.9082
1396.8807, 1460.5997
1397.7523, 1402.2671
1398.6239, 1416.2009
1399.4954, 1428.8987
1400.3669, 1423.5234
1401.2385, 1424.8184
1402.1101, 1434.9382
1402.9817, 1410.9053
1403.8533, 1429.2692
1404.7247, 1430.9032
1405.5963, 1441.9958
1406.4679, 1451.736
1407.3395, 1422.9424
1408.2111, 1438.3439
1409.0825, 1397.3829
1409.9541, 1419.0986
1410.8257, 1420.6345
1411.6973, 1450.8795
1412.5688, 1416.2379
1413.4403, 1431.5956
1414.3119, 1392.8258
1415.1835, 1384.4207
1416.0551, 1391.9875
1416.9266, 1397.045
1417.7982, 1390.8761
1418.6697, 1418.5592
1419.5413, 1443.736
1420.4128, 1434.4833
1421.2844, 1426.5209
1422.156, 1398.999
1423.0275, 1396.861
1423.899, 1417.6733
1424.7706, 1419.6243
1425.6422, 1400.2635
1426.5138, 1407.9546
1427.3854, 1434.3618
1428.2568, 1403.744
1429.1284, 1414.8461
1430, 1417.8436
1430.8716, 1382.3815
1431.7432, 1379.5985
1432.6146, 1375.7151
1433.4862, 1405.8278
1434.3578, 1382.5743
1435.2294, 1381.5144
1436.101, 1349.5536
1436.9725, 1373.1056
1437.844, 1378.9468
1438.7156, 1395.1006
1439.5872, 1401.3572
1440.4587, 1382.076
1441.3303, 1388.3068
1442.2018, 1424.0925
1443.0734, 1360.9114
1443.9449, 1377.2723
1444.8165, 1374.3302
1445.6881, 1351.8009
1446.5597, 1365.8308
1447.4312, 1354.5531
1448.3027, 1382.8528
1449.1743, 1364.9414
1450.0459, 1372.2249
1450.9175, 1390.2124
1451.7889, 1393.2051
1452.6605, 1388.326
1453.5321, 1357.2329
1454.4037, 1362.1647
1455.2753, 1393.3867
1456.1467, 1398.6394
1457.0183, 1370.4437
1457.8899, 1350.5811
1458.7615, 1347.4952
1459.6331, 1398.4978
1460.5046, 1363.4056
1461.3761, 1336.3497
1462.2477, 1348.7133
1463.1193, 1354.667
1463.9908, 1367.5363
1464.8624, 1362.2974
1465.7339, 1363.5651
1466.6055, 1360.8585
1467.4771, 1340.9204
1468.3486, 1351.3118
1469.2202, 1339.9725
1470.0918, 1358.2423
1470.9633, 1353.151
1471.8348, 1361.0231
1472.7064, 1393.0948
1473.578, 1324.9923
1474.4496, 1342.6578
1475.321, 1369.2217
1476.1926, 1339.7522
1477.0642, 1322.5835
1477.9358, 1342.8827
1478.8074, 1380.2739
1479.679, 1371.9651
1480.5504, 1338.8337
1481.422, 1342.8727
1482.2936, 1338.6572
1483.1652, 1327.0228
1484.0367, 1337.8135
1484.9082, 1320.6674
1485.7798, 1336.4889
1486.6514, 1306.5729
1487.5229, 1328.4423
1488.3945, 1347.5201
1489.2661, 1305.5219
1490.1376, 1350.5845
1491.0092, 1334.6869
1491.8807, 1331.911
1492.7523, 1317.0714
1493.6239, 1311.4996
1494.4954, 1331.8654
1495.3669, 1314.1196
1496.2385, 1320.4592
1497.1101, 1319.4036
1497.9817, 1317.2371
1498.8533, 1315.224
1499.7247, 1340.2065
1500.5963, 1323.7389
1501.4679, 1295.2738
1502.3395, 1329.876
1503.2111, 1311.5424
1504.0825, 1315.6199
1504.9541, 1307.4908
1505.8257, 1305.3868
1506.6973, 1326.1893
1507.5688, 1294.4207
1508.4403, 1270.7094
1509.3119, 1289.3062
1510.1835, 1276.8685
1511.0551, 1289.5885
1511.9266, 1306.3257
1512.7982, 1288.5887
1513.6697, 1303.7469
1514.5413, 1308.606
1515.4128, 1278.7335
1516.2844, 1283.1158
1517.156, 1302.3575
1518.0275, 1306.5707
1518.899, 1283.5811
1519.7706, 1312.9205
1520.6422, 1297.2383
1521.5138, 1276.6647
1522.3854, 1257.1388
1523.2568, 1260.519
1524.1284, 1248.4965
1525, 1245.243
1525.8716, 1277.7329
1526.7432, 1283.7457
1527.6146, 1281.2938
1528.4862, 1294.7996
1529.3578, 1284.7369
1530.2294, 1252.3539
1531.101, 1236.0618
1531.9725, 1248.98
1532.844, 1266.1967
1533.7156, 1262.2738
1534.5872, 1268.238
1535.4587, 1241.6827
1536.3303, 1245.5414
1537.2018, 1258.8475
1538.0734, 1235.0543
1538.9449, 1222.7456
1539.8165, 1221.5861
1540.6881, 1240.3649
1541.5597, 1245.5065
1542.4312, 1249.5978
1543.3027, 1267.1896
1544.1743, 1273.4358
1545.0459, 1247.7733
1545.9175, 1239.3867
1546.7889, 1222.2972
1547.6605, 1237.824
1548.5321, 1247.361
1549.4037, 1220.3477
1550.2753, 1254.9683
1551.1467, 1248.5005
1552.0183, 1264.1633
1552.8899, 1243.1769
1553.7615, 1216.5378
1554.6331, 1224.8003
1555.5046, 1213.4337
1556.3761, 1212.7461
1557.2477, 1237.0656
1558.1193, 1252.8765
1558.9908, 1236.9609
1559.8624, 1221.1141
1560.7339, 1213.153
1561.6055, 1226.6249
1562.4771, 1213.3616
1563.3486, 1211.1816
1564.2202, 1228.9952
1565.0918, 1208.8326
1565.9633, 1226.1079
1566.8348, 1213.88
1567.7064, 1217.7538
1568.578, 1217.7538
1569.4496, 1209.9127
1570.321, 1214.64
1571.1926, 1214.9321
1572.0642, 1207.8617
1572.9358, 1204.8237
1573.8074, 1191.9169
1574.679, 1207.1494
1575.5504, 1211.8679
1576.422, 1226.9503
1577.2936, 1211.9172
1578.1652, 1194.2843
1579.0367, 1197.2738
1579.9082, 1183.9961
1580.7798, 1208.1685
1581.6514, 1192.7428
1582.5229, 1208.8811
1583.3945, 1212.6301
1584.2661, 1214.1327
1585.1376, 1216.1082
1586.0092, 1211.7554
1586.8807, 1204.12
1587.7523, 1221.9885
1588.6239, 1224.2323
1589.4954, 1198.8619
1590.3669, 1207.421
1591.2385, 1217.6819
1592.1101, 1213.4156
1592.9817, 1195.8171
1593.8533, 1210.9636
1594.7247, 1197.5958
1595.5963, 1185.2057
1596.4679, 1193.1005
1597.3395, 1163.8569
1598.2111, 1213.2323
1599.0825, 1209.4218
1599.9541, 1195.6141
1600.8257, 1211.8586
1601.6973, 1219.5237
1602.5688, 1191.8774
1603.4403, 1174.9021
1604.3119, 1182.8661
1605.1835, 1187.8502
1606.0551, 1205.7811
1606.9266, 1206.9313
1607.7982, 1191.6766
1608.6697, 1198.6738
1609.5413, 1176.3358
1610.4128, 1182.4017
1611.2844, 1196.4401
1612.156, 1171.8589
1613.0275, 1199.6393
1613.899, 1205.8156
1614.7706, 1172.1097
1615.6422, 1192.5469
1616.5138, 1201.9244
1617.3854, 1189.5316
1618.2568, 1190.8134
1619.1284, 1178.1091
1620, 1174.8943
1620.8716, 1184.9836
1621.7432, 1189.8068
1622.6146, 1183.9264
1623.4862, 1187.5225
1624.3578, 1180.691
1625.2294, 1185.6124
1626.101, 1180.8876
1626.9725, 1185.9338
1627.844, 1184.4939
1628.7156, 1187.2598
1629.5872, 1194.1465
1630.4587, 1176.1691
1631.3303, 1143.2472
1632.2018, 1183.8251
1633.0734, 1165.0778
1633.9449, 1172.5302
1634.8165, 1157.1699
1635.6881, 1154.1749
1636.5597, 1173.6256
1637.4312, 1186.4966
1638.3027, 1159.9452
1639.1743, 1169.51
1640.0459, 1154.1361
1640.9175, 1125.4836
1641.7889, 1178.7283
1642.6605, 1169.8964
1643.5321, 1166.8829
1644.4037, 1164.399
1645.2753, 1167.4321
1646.1467, 1173.8683
1647.0183, 1153.7753
1647.8899, 1165.2014
1648.7615, 1175.4303
1649.6331, 1160.6469
1650.5046, 1149.4813
1651.3761, 1151.5573
1652.2477, 1136.3704
1653.1193, 1115.8446
1653.9908, 1141.7168
1654.8624, 1132.3
1655.7339, 1132.2772
1656.6055, 1152.3776
1657.4771, 1146.2323
1658.3486, 1148.7949
1659.2202, 1166.8964
1660.0918, 1156.5536
1660.9633, 1142.1194
1661.8348, 1141.568
1662.7064, 1136.8838
1663.578, 1173.6176
1664.4496, 1173.8281
1665.321, 1159.2211
1666.1926, 1145.5255
1667.0642, 1120.3583
1667.9358, 1121.7001
1668.8074, 1133.024
1669.679, 1132.8553
1670.5504, 1117.4948
1671.422, 1127.6464
1672.2936, 1109.936
1673.1652, 1151.6799
1674.0367, 1116.9642
1674.9082, 1116.5974
1675.7798, 1138.7142
1676.6514, 1152.5071
1677.5229, 1149.6035
1678.3945, 1113.8799
1679.2661, 1147.649
1680.1376, 1115.7671
1681.0092, 1133.7433
1681.8807, 1113.3269
1682.7523, 1137.9103
1683.6239, 1116.0654
1684.4954, 1128.7437
1685.3669, 1149.9343
1686.2385, 1138.2395
1687.1101, 1119.2754
1687.9817, 1115.7375
1688.8533, 1129.9824
1689.7247, 1146.7848
1690.5963, 1127.2883
1691.4679, 1127.0646
1692.3395, 1124.4821
1693.2111, 1127.9685
1694.0825, 1122.5979
1694.9541, 1123.1388
1695.8257, 1133.1873
1696.6973, 1138.981
1697.5688, 1133.5253
1698.4403, 1116.1826
1699.3119, 1117.9867
1700.1835, 1127.9154
1701.0551, 1129.6711
1701.9266, 1140.0687
1702.7982, 1125.2545
1703.6697, 1125.511
1704.5413, 1114.1404
1705.4128, 1098.6342
1706.2844, 1123.743
1707.156, 1113.8737
1708.0275, 1106.8826
1708.899, 1138.84
1709.7706, 1127.9857
1710.6422, 1123.7651
1711.5138, 1130.5326
1712.3854, 1119.4922
1713.2568, 1118.8138
1714.1284, 1111.2198
1715, 1111.2526
1715.8716, 1104.7015
1716.7432, 1152.7784
1717.6146, 1127.3951
1718.4862, 1118.3016
1719.3578, 1081.9371
1720.2294, 1106.7268
1721.101, 1135.5099
1721.9725, 1106.0199
1722.844, 1100.7323
1723.7156, 1104.609
1724.5872, 1083.2571
1725.4587, 1100.5161
1726.3303, 1103.3275
1727.2018, 1102.6792
1728.0734, 1100.2729
1728.9449, 1088.6185
1729.8165, 1106.8387
1730.6881, 1093.7531
1731.5597, 1082.3082
1732.4312, 1097.5486
1733.3027, 1094.0006
1734.1743, 1085.8669
1735.0459, 1085.1226
1735.9175, 1120.9502
1736.7889, 1104.5775
1737.6605, 1068.4568
1738.5321, 1085.3409
1739.4037, 1105.7635
1740.2753, 1125.2465
1741.1467, 1113.8289
1742.0183, 1105.4369
1742.8899, 1047.8662
1743.7615, 1078.797
1744.6331, 1094.4371
1745.5046, 1091.0065
1746.3761, 1078.6797
1747.2477, 1068.4961
1748.1193, 1072.552
1748.9908, 1091.4028
1749.8624, 1090.2708
1750.7339, 1090.9856
1751.6055, 1060.6183
1752.4771, 1059.9299
1753.3486, 1079.7946
1754.2202, 1115.7329
1755.0918, 1113.564
1755.9633, 1085.4873
1756.8348, 1082.6232
1757.7064, 1073.2876
1758.578, 1086.4329
1759.4496, 1111.8157
1760.321, 1057.7703
1761.1926, 1091.9374
1762.0642, 1099.1371
1762.9358, 1088.7816
1763.8074, 1077.4364
1764.679, 1051.8811
1765.5504, 1073.5665
1766.422, 1079.5188
1767.2936, 1083.4956
1768.1652, 1108.6309
1769.0367, 1081.7858
1769.9082, 1106.0244
1770.7798, 1085.4451
1771.6514, 1083.2687
1772.5229, 1061.3466
1773.3945, 1063.735
1774.2661, 1074.0602
1775.1376, 1103.9937
1776.0092, 1090.3141
1776.8807, 1059.67
1777.7523, 1064.1174
1778.6239, 1050.4189
1779.4954, 1053.8234
1780.3669, 1049.8406
1781.2385, 1067.2185
1782.1101, 1084.0894
1782.9817, 1075.2679
1783.8533, 1069.6968
1784.7247, 1091.4688
1785.5963, 1067.3051
1786.4679, 1092.1893
1787.3395, 1092.6332
1788.2111, 1061.0659
1789.0825, 1082.5571
1789.9541, 1083.0851
1790.8257, 1103.8149
1791.6973, 1099.9213
1792.5688, 1058.6661
1793.4403, 1074.1138
1794.3119, 1081.5336
1795.1835, 1078.8895
1796.0551, 1063.2646
1796.9266, 1074.8925
1797.7982, 1082.5657
1798.6697, 1089.3607
1799.5413, 1070.5631
1800.4128, 1056.9187
1801.2844, 1060.9908
1802.156, 1055.1648
1803.0275, 1047.0187
1803.899, 1097.9434
1804.7706, 1025.4984
1805.6422, 1036.7133
1806.5138, 1065.1444
1807.3854, 1088.821
1808.2568, 1092.3674
1809.1284, 1071.7478
1810, 1063.8984
1810.8716, 1086.6393
1811.7432, 1072.6143
1812.6146, 1074.8539
1813.4862, 1078.4746
1814.3578, 1070.0885
1815.2294, 1061.2969
1816.101, 1067.8804
1816.9725, 1082.4641
1817.844, 1087.2875
1818.7156, 1079.6609
1819.5872, 1092.3752
1820.4587, 1045.015
1821.3303, 1076.4669
1822.2018, 1066.0341
1823.0734, 1087.9214
1823.9449, 1090.123
1824.8165, 1087.7739
1825.6881, 1099.4194
1826.5597, 1034.1389
1827.4312, 1057.2094
1828.3027, 1072.7712
1829.1743, 1061.062
1830.0459, 1071.8633
1830.9175, 1070.8933
1831.7889, 1074.9083
1832.6605, 1052.7544
1833.5321, 1056.3328
1834.4037, 1093.7123
1835.2753, 1099.2079
1836.1467, 1071.3312
1837.0183, 1059.6694
1837.8899, 1062.5211
1838.7615, 1054.932
1839.6331, 1077.4537
1840.5046, 1075.2091
1841.3761, 1079.0763
1842.2477, 1060.2106
1843.1193, 1081.4015
1843.9908, 1039.6859
1844.8624, 1052.7942
1845.7339, 1071.4965
1846.6055, 1040.6993
1847.4771, 1037.0854
1848.3486, 1046.4166
1849.2202, 1035.0144
1850.0918, 1061.0343
1850.9633, 1050.3938
1851.8348, 1056.9321
1852.7064, 1048.3274
1853.578, 1030.7526
1854.4496, 1019.0494
1855.321, 1066.0049
1856.1926, 1023.1099
1857.0642, 1071.1378
1857.9358, 1027.2449
1858.8074, 1035.377
1859.679, 1022.225
1860.5504, 1030.0847
1861.422, 1007.9261
1862.2936, 1029.7759
1863.1652, 1027.4445
1864.0367, 1022.9895
1864.9082, 1050.0472
1865.7798, 1044.0057
1866.6514, 1033.812
1867.5229, 990.49139
1868.3945, 1048.5444
1869.2661, 1040.9385
1870.1376, 1033.8617
1871.0092, 1026.3352
1871.8807, 1000.8209
1872.7523, 998.6803
1873.6239, 1004.9678
1874.4954, 1043.2744
1875.3669, 1040.9343
1876.2385, 1031.4203
1877.1101, 1025.2125
1877.9817, 1007.0514
1878.8533, 1003.7895
1879.7247, 998.80646
1880.5963, 995.93726
1881.4679, 1027.865
1882.3395, 1023.1793
1883.2111, 1018.4253
1884.0825, 1026.4009
1884.9541, 1010.5388
1885.8257, 1033.9866
1886.6973, 1037.9845
1887.5688, 1005.9133
1888.4403, 988.03143
1889.3119, 996.80365
1890.1835, 1010.1041
1891.0551, 1034.8048
1891.9266, 1026.7603
1892.7982, 1028.5956
1893.6697, 1030.21
1894.5413, 1014.0875
1895.4128, 1014.9641
1896.2844, 1007.6516
1897.156, 1008.2017
1898.0275, 1022.4363
1898.899, 1017.218
1899.7706, 1036.109
1900.6422, 1035.5209
1901.5138, 1013.389
1902.3854, 1036.3978
1903.2568, 1031.9832
1904.1284, 1003.4228
1905, 1034.5651
1905.8716, 1011.7491
1906.7432, 1003.3368
1907.6146, 1016.1216
1908.4862, 999.84839
1909.3578, 995.89764
1910.2294, 1013.9548
1911.101, 1044.3114
1911.9725, 1041.4872
1912.844, 998.16046
1913.7156, 1007.2108
1914.5872, 1003.4746
1915.4587, 1012.5944
1916.3303, 1024.6343
1917.2018, 1023.9515
1918.0734, 1003.2119
1918.9449, 1011.2363
1919.8165, 1028.179
1920.6881, 1007.2075
1921.5597, 1002.1022
1922.4312, 971.85388
1923.3027, 1025.9574
1924.1743, 1000.9596
1925.0459, 1040.2955
1925.9175, 1032.792
1926.7889, 1016.0842
1927.6605, 1020.9415
1928.5321, 1000.8708
1929.4037, 1022.8284
1930.2753, 1035.6947
1931.1467, 997.3194
1932.0183, 1037.624
1932.8899, 1003.7169
1933.7615, 997.38672
1934.6331, 1025.447
1935.5046, 998.39069
1936.3761, 1001.6384
1937.2477, 990.96863
1938.1193, 1036.4072
1938.9908, 996.73523
1939.8624, 1035.1508
1940.7339, 1023.5866
1941.6055, 993.20062
1942.4771, 1014.2592
1943.3486, 997.28827
1944.2202, 1012.0444
1945.0918, 1003.62
1945.9633, 984.43488
1946.8348, 1015.5242
1947.7064, 990.3371
1948.578, 991.09039
1949.4496, 996.35394
1950.321, 976.83209
1951.1926, 994.7063
1952.0642, 997.19574
1952.9358, 993.69293
1953.8074, 1006.8397
1954.679, 1001.3483
1955.5504, 977.61761
1956.422, 972.76636
1957.2936, 969.93878
1958.1652, 981.88562
1959.0367, 981.5282
1959.9082, 974.67297
1960.7798, 1005.3612
1961.6514, 1014.6609
1962.5229, 1008.3116
1963.3945, 1007.3165
1964.2661, 1002.6923
1965.1376, 1018.5865
1966.0092, 1009.4061
1966.8807, 959.76697
1967.7523, 977.20911
1968.6239, 962.7738
1969.4954, 947.2226
1970.3669, 981.65723
1971.2385, 1015.2525
1972.1101, 1032.1357
1972.9817, 971.60193
1973.8533, 974.93732
1974.7247, 992.03107
1975.5963, 1009.8533
1976.4679, 988.69202
1977.3395, 960.2644
1978.2111, 999.15082
1979.0825, 978.4801
1979.9541, 973.83557
1980.8257, 981.75549
1981.6973, 985.56085
1982.5688, 950.35852
1983.4403, 982.37671
1984.3119, 975.16724
1985.1835, 979.83203
1986.0551, 1001.8255
1986.9266, 985.09583
1987.7982, 987.43683
1988.6697, 982.94623
1989.5413, 981.41724
1990.4128, 981.14783
1991.2844, 1003.6249
1992.156, 987.07721
1993.0275, 915.70673
1993.899, 965.58923
1994.7706, 976.90295
1995.6422, 1001.606
1996.5138, 973.00317
1997.3854, 961.80762
1998.2568, 966.95319
1999.1284, 963.56445
2000, 1013.0989
##END=



