##NAMES=Yeatmanite
##RRUFFID=R141001
##IDEAL CHEMISTRY=Zn^2+^_6_Mn^2+^_9_Sb^5+^_2_O_12_(SiO_4_)_4_
##LOCALITY=1500 foot level, Sterling mine, Sterling Hill, Ogdensburg, Franklin Mining District, Sussex County, New Jersey, USA
##OWNER=RRUFF
##SOURCE=Rock Currier
##DESCRIPTION=Thin brown or grey platy crystals, associated with yellow adelite. Twinned by a 2-fold around (001). Previously published structure is probably incorrect.
##STATUS=The identification of this mineral has been confirmed by single-crystal X-ray diffraction.
##URL=rruff.info/R141001
93.84985, 0.0000000E+00
94.33197, 8.179199
94.81409, 19.79248
95.29620, 16.94482
95.77832, 10.85303
96.26044, 7.560059
96.74255, 16.13232
97.22467, 20.72559
97.70679, 26.70801
98.18890, 27.98828
98.67102, 15.89844
99.15314, 3.267090
99.63525, 0.5810550
100.1174, 11.68018
100.5995, 32.88330
101.0816, 53.93262
101.5637, 79.54785
102.0458, 99.76074
102.5280, 111.0801
103.0101, 114.4282
103.4922, 110.8394
103.9743, 102.6372
104.4564, 93.00146
104.9385, 84.20996
105.4207, 75.31885
105.9028, 66.55664
106.3849, 58.38428
106.8670, 50.82471
107.3491, 43.21436
107.8312, 34.67285
108.3134, 25.07178
108.7955, 16.79980
109.2776, 10.85059
109.7597, 6.718750
110.2418, 3.242188
110.7239, 7.7147998E-02
111.2061, 2.678223
111.6882, 3.741699
112.1703, 3.498535
112.6524, 2.282715
113.1345, 0.6796880
113.6166, 5.124512
114.0988, 8.097656
114.5809, 7.512695
115.0630, 7.062500
115.5451, 9.078613
116.0272, 12.93799
116.5093, 16.39648
116.9915, 19.86914
117.4736, 23.86768
117.9557, 27.16162
118.4378, 29.02344
118.9199, 30.93604
119.4020, 32.55664
119.8842, 33.81348
120.3663, 35.26123
120.8484, 37.77783
121.3305, 39.95459
121.8126, 42.01514
122.2947, 46.08887
122.7769, 50.30859
123.2590, 53.11963
123.7411, 53.61719
124.2232, 51.96191
124.7053, 49.08350
125.1874, 43.46924
125.6696, 38.65723
126.1517, 35.86670
126.6338, 34.69336
127.1159, 34.74756
127.5980, 36.95117
128.0801, 40.19238
128.5623, 40.95752
129.0444, 37.35693
129.5265, 32.43896
130.0086, 29.44482
130.4907, 28.83740
130.9728, 27.98828
131.4550, 24.46094
131.9371, 19.68262
132.4192, 15.60010
132.9013, 12.90771
133.3834, 11.57275
133.8655, 11.60205
134.3477, 14.76123
134.8298, 16.71631
135.3119, 15.43213
135.7940, 11.77930
136.2761, 7.255371
136.7582, 2.393066
137.2404, 2.859375
137.7225, 4.650879
138.2046, 1.505371
138.6867, 7.375488
139.1688, 10.62842
139.6509, 11.20801
140.1331, 10.12451
140.6152, 8.194336
141.0973, 4.920898
141.5794, 2.818848
142.0615, 2.854980
142.5436, 3.108398
143.0258, 1.829590
143.5079, 1.059570
143.9900, 3.634766
144.4721, 3.038574
144.9542, 2.798340
145.4363, 6.440430
145.9185, 6.938477
146.4006, 5.353027
146.8827, 2.229004
147.3648, 2.651367
147.8469, 7.507813
148.3290, 8.811523
148.8112, 6.486328
149.2933, 4.047363
149.7754, 3.119629
150.2575, 3.133301
150.7396, 2.146973
151.2217, 1.263672
151.7039, 7.914063
152.1860, 11.70801
152.6681, 12.38623
153.1502, 12.37939
153.6323, 13.86035
154.1144, 16.96729
154.5966, 18.96582
155.0787, 18.62354
155.5608, 17.24707
156.0429, 15.57275
156.5250, 13.66064
157.0071, 11.33643
157.4893, 7.769531
157.9714, 1.297363
158.4535, 0.7377930
158.9356, 5.866699
159.4177, 15.07031
159.8998, 22.40186
160.3820, 26.16455
160.8641, 27.38770
161.3462, 28.52197
161.8283, 30.20068
162.3104, 30.72314
162.7925, 29.02881
163.2747, 26.53271
163.7568, 24.73535
164.2389, 24.41113
164.7210, 25.25781
165.2031, 26.00684
165.6852, 26.73779
166.1674, 27.25781
166.6495, 27.44434
167.1316, 27.42871
167.6137, 27.39795
168.0958, 27.40332
168.5779, 27.44287
169.0601, 27.78320
169.5422, 28.67529
170.0243, 29.76611
170.5064, 31.36963
170.9885, 33.33545
171.4706, 34.58887
171.9528, 34.02734
172.4349, 32.04492
172.9170, 31.03613
173.3991, 32.15576
173.8812, 33.36523
174.3633, 32.99902
174.8455, 31.00537
175.3276, 28.58008
175.8097, 25.79443
176.2918, 23.19531
176.7739, 21.77539
177.2560, 21.64111
177.7382, 22.88770
178.2203, 26.21436
178.7024, 32.40771
179.1845, 38.07666
179.6666, 41.61328
180.1487, 43.57324
180.6309, 44.27881
181.1130, 43.27002
181.5951, 41.42773
182.0772, 41.42139
182.5593, 45.00391
183.0414, 47.45508
183.5236, 45.77881
184.0057, 42.36084
184.4878, 40.71924
184.9699, 43.28174
185.4520, 49.24268
185.9341, 53.39160
186.4163, 53.61719
186.8984, 54.17993
187.3805, 57.22534
187.8626, 61.22485
188.3447, 63.27612
188.8268, 60.97192
189.3090, 54.53271
189.7911, 51.31299
190.2732, 54.59595
190.7553, 57.80884
191.2374, 59.25342
191.7195, 59.24512
192.2017, 58.81152
192.6838, 58.63379
193.1659, 58.66919
193.6480, 59.48096
194.1301, 63.82910
194.6122, 66.20508
195.0944, 62.33813
195.5765, 53.76147
196.0586, 46.02466
196.5407, 42.93164
197.0228, 44.78149
197.5049, 47.70972
197.9871, 54.07031
198.4692, 59.44067
198.9513, 60.48560
199.4334, 57.36108
199.9155, 53.21265
200.3976, 50.52539
200.8798, 49.12231
201.3619, 46.64893
201.8440, 40.59961
202.3261, 35.04761
202.8082, 34.65430
203.2903, 39.73120
203.7725, 44.86646
204.2546, 45.75879
204.7367, 43.33667
205.2188, 40.04321
205.7009, 35.60083
206.1830, 30.83130
206.6652, 26.73730
207.1473, 23.30322
207.6294, 20.52710
208.1115, 18.24365
208.5936, 16.65381
209.0757, 16.33716
209.5579, 18.58643
210.0400, 21.69873
210.5221, 21.68652
211.0042, 16.71118
211.4863, 12.78589
211.9685, 13.84619
212.4506, 17.55273
212.9327, 20.62964
213.4148, 21.48657
213.8969, 20.65430
214.3790, 19.62988
214.8612, 17.90259
215.3433, 16.88574
215.8254, 17.55103
216.3075, 19.00073
216.7896, 20.22559
217.2717, 20.86963
217.7539, 20.66406
218.2360, 18.00293
218.7181, 8.277344
219.2002, 2.410400
219.6823, 5.574951
220.1644, 13.39673
220.6466, 19.85620
221.1287, 21.29712
221.6108, 18.55811
222.0929, 16.36890
222.5750, 15.90332
223.0571, 14.67822
223.5393, 10.92725
224.0214, 6.432373
224.5035, 3.959961
224.9856, 5.310791
225.4677, 9.739014
225.9498, 12.52979
226.4320, 13.08667
226.9141, 12.58496
227.3962, 9.458496
227.8783, 5.656250
228.3604, 4.576904
228.8425, 8.474854
229.3247, 15.99390
229.8068, 19.26782
230.2889, 14.30811
230.7710, 9.966797
231.2531, 8.302734
231.7352, 8.445801
232.2174, 8.600830
232.6995, 7.713867
233.1816, 6.277100
233.6637, 6.632813
234.1458, 10.25830
234.6279, 13.57300
235.1101, 16.04980
235.5922, 17.57886
236.0743, 17.69092
236.5564, 15.88672
237.0385, 12.95288
237.5206, 11.64478
238.0028, 12.90405
238.4849, 13.93726
238.9670, 13.60327
239.4491, 12.37280
239.9312, 11.20410
240.4133, 10.43652
240.8955, 10.12329
241.3776, 10.38892
241.8597, 11.38062
242.3418, 12.47656
242.8239, 13.55566
243.3060, 14.56226
243.7882, 15.19141
244.2703, 15.02490
244.7524, 14.90332
245.2345, 16.52124
245.7166, 20.35474
246.1987, 23.33276
246.6809, 23.27319
247.1630, 21.01709
247.6451, 19.39600
248.1272, 19.36987
248.6093, 20.03198
249.0914, 20.42651
249.5736, 20.58398
250.0557, 20.25903
250.5378, 19.04297
251.0199, 17.15674
251.5020, 15.31104
251.9841, 12.93286
252.4663, 11.72461
252.9484, 13.67725
253.4305, 18.41919
253.9126, 22.73535
254.3947, 24.09229
254.8768, 23.22510
255.3590, 23.78125
255.8411, 27.23389
256.3232, 30.66553
256.8053, 31.99536
257.2874, 31.61646
257.7695, 30.92017
258.2516, 31.42871
258.7338, 32.58716
259.2159, 30.99512
259.6980, 24.06421
260.1801, 18.04785
260.6622, 16.55054
261.1443, 18.33594
261.6265, 20.71777
262.1086, 22.54053
262.5907, 23.69385
263.0728, 23.39893
263.5549, 20.13452
264.0370, 17.75757
264.5192, 18.34131
265.0013, 20.63159
265.4834, 22.43384
265.9655, 22.11157
266.4476, 20.72729
266.9297, 22.60693
267.4119, 31.55664
267.8940, 37.42749
268.3761, 35.06396
268.8582, 29.04810
269.3403, 25.07983
269.8224, 26.10815
270.3046, 30.41992
270.7867, 33.37427
271.2688, 34.57178
271.7509, 35.19336
272.2330, 35.33862
272.7151, 35.16162
273.1973, 34.51123
273.6794, 33.33984
274.1615, 32.38501
274.6436, 33.14429
275.1257, 36.63330
275.6078, 39.80176
276.0900, 42.64502
276.5721, 45.01123
277.0542, 46.67261
277.5363, 47.58081
278.0184, 47.99512
278.5005, 48.49634
278.9827, 49.79907
279.4648, 49.45557
279.9469, 46.50708
280.4290, 42.77783
280.9111, 38.99927
281.3932, 35.70898
281.8754, 33.62720
282.3575, 34.15063
282.8396, 39.30884
283.3217, 41.79272
283.8038, 38.97241
284.2859, 35.97681
284.7681, 35.50562
285.2502, 37.71167
285.7323, 41.31030
286.2144, 45.42603
286.6965, 50.80420
287.1786, 52.15186
287.6608, 44.65552
288.1429, 38.00366
288.6250, 37.32739
289.1071, 41.24316
289.5892, 44.80127
290.0714, 43.84668
290.5535, 38.26660
291.0356, 34.80469
291.5177, 35.03979
291.9998, 35.98511
292.4819, 37.41919
292.9641, 38.94336
293.4462, 40.09424
293.9283, 40.59717
294.4104, 40.43188
294.8925, 39.42773
295.3746, 37.13843
295.8568, 34.41846
296.3389, 30.20312
296.8210, 25.89331
297.3031, 23.31250
297.7852, 23.31763
298.2673, 25.49243
298.7495, 28.68359
299.2316, 36.59302
299.7137, 40.61938
300.1958, 37.66235
300.6779, 31.98511
301.1600, 27.94800
301.6422, 26.97119
302.1243, 27.65137
302.6064, 27.48242
303.0885, 25.74170
303.5706, 24.37451
304.0527, 23.57617
304.5349, 22.99268
305.0170, 22.26147
305.4991, 21.37646
305.9812, 20.82275
306.4633, 21.43896
306.9454, 24.27637
307.4276, 24.38379
307.9097, 20.47070
308.3918, 15.52075
308.8739, 9.859375
309.3560, 4.348633
309.8381, 1.268555
310.3203, 3.070068
310.8024, 10.30249
311.2845, 13.86108
311.7666, 10.06250
312.2487, 6.944580
312.7308, 8.554932
313.2130, 13.04175
313.6951, 15.87622
314.1772, 13.94604
314.6593, 8.142334
315.1414, 4.805176
315.6235, 6.178711
316.1057, 7.366211
316.5878, 7.783203
317.0699, 7.472656
317.5520, 6.235107
318.0341, 3.969971
318.5162, 1.427490
318.9984, 0.6069340
319.4805, 3.124756
319.9626, 5.408691
320.4447, 8.036865
320.9268, 10.09839
321.4089, 10.43628
321.8911, 8.867920
322.3732, 6.589111
322.8553, 5.250000
323.3374, 4.882080
323.8195, 5.666016
324.3016, 9.435059
324.7838, 12.78638
325.2659, 13.24536
325.7480, 10.90771
326.2301, 7.729736
326.7122, 5.609863
327.1943, 4.741455
327.6765, 3.347168
328.1586, 0.7416990
328.6407, 1.724365
329.1228, 4.179688
329.6049, 6.048584
330.0870, 6.023438
330.5692, 3.218018
331.0513, 1.621826
331.5334, 3.836426
332.0155, 1.344238
332.4976, 3.819824
332.9797, 3.6377002E-02
333.4619, 6.766602
333.9440, 12.21167
334.4261, 14.52026
334.9082, 14.24780
335.3904, 12.50732
335.8725, 7.446533
336.3546, 3.953369
336.8367, 4.055664
337.3188, 4.539551
337.8009, 2.018799
338.2831, 3.741455
338.7652, 9.217285
339.2473, 10.05835
339.7294, 4.775635
340.2115, 1.722900
340.6936, 2.628174
341.1758, 3.650391
341.6579, 2.847900
342.1400, 0.4597170
342.6221, 2.229980
343.1042, 4.288818
343.5863, 5.915527
344.0685, 6.313232
344.5506, 2.536133
345.0327, 0.1127930
345.5148, 0.9365230
345.9969, 3.813721
346.4790, 5.188232
346.9612, 3.084229
347.4433, 1.044434
347.9254, 2.533936
348.4075, 0.5053710
348.8896, 3.009766
349.3717, 3.299072
349.8539, 3.111084
350.3360, 4.565674
350.8181, 8.289795
351.3002, 12.40063
351.7823, 13.10962
352.2644, 8.252197
352.7466, 6.044922
353.2287, 9.422852
353.7108, 13.67700
354.1929, 17.19312
354.6750, 19.49316
355.1571, 20.24683
355.6393, 18.80908
356.1214, 15.06763
356.6035, 11.16064
357.0856, 5.045166
357.5677, 1.445557
358.0498, 3.410889
358.5320, 8.718750
359.0141, 13.82104
359.4962, 17.15625
359.9783, 18.58862
360.4604, 17.04956
360.9425, 10.46753
361.4247, 5.740723
361.9068, 6.589111
362.3889, 9.142090
362.8710, 9.611572
363.3531, 6.892822
363.8352, 3.825928
364.3174, 3.816895
364.7995, 7.083984
365.2816, 11.26245
365.7637, 17.71704
366.2458, 23.34277
366.7279, 26.21875
367.2101, 26.40283
367.6922, 24.99414
368.1743, 21.79004
368.6564, 17.38159
369.1385, 14.66626
369.6206, 14.34497
370.1028, 14.54810
370.5849, 14.28418
371.0670, 13.72192
371.5491, 13.14722
372.0312, 12.63281
372.5133, 12.16553
372.9955, 11.60132
373.4776, 10.89404
373.9597, 10.56323
374.4418, 10.84692
374.9239, 11.63477
375.4060, 12.89233
375.8882, 14.75610
376.3703, 16.46729
376.8524, 17.84546
377.3345, 18.71362
377.8166, 17.99365
378.2987, 14.61108
378.7809, 11.12915
379.2630, 11.02051
379.7451, 13.80884
380.2272, 15.68604
380.7093, 14.72900
381.1914, 12.50244
381.6736, 11.11646
382.1557, 10.78296
382.6378, 10.42920
383.1199, 9.205078
383.6020, 7.330078
384.0841, 5.860107
384.5663, 4.802002
385.0484, 4.153076
385.5305, 4.313965
386.0126, 4.946777
386.4947, 4.583740
386.9768, 2.124512
387.4590, 0.7368160
387.9411, 0.3491210
388.4232, 7.200684
388.9053, 12.20728
389.3874, 12.32422
389.8695, 10.35571
390.3517, 9.416992
390.8338, 10.31494
391.3159, 11.87402
391.7980, 13.17407
392.2801, 14.24072
392.7622, 14.35498
393.2444, 12.82373
393.7265, 11.09521
394.2086, 10.60278
394.6907, 10.58691
395.1728, 8.498535
395.6549, 2.532471
396.1371, 5.871338
396.6192, 10.20215
397.1013, 5.858398
397.5834, 2.262451
398.0655, 0.8383790
398.5476, 0.4499510
399.0298, 0.5178220
399.5119, 2.456299
399.9940, 4.050049
400.4761, 3.042480
400.9582, 2.150635
401.4403, 4.515625
401.9225, 2.632080
402.4046, 0.3271480
402.8867, 4.186523
403.3688, 8.001465
403.8509, 9.703857
404.3330, 7.558594
404.8152, 2.382813
405.2973, 1.262207
405.7794, 3.057861
406.2615, 3.365479
406.7436, 0.7880860
407.2257, 2.125977
407.7079, 2.199219
408.1900, 1.439941
408.6721, 5.608398
409.1542, 5.570801
409.6363, 0.4816890
410.1184, 4.042480
410.6006, 8.836670
411.0827, 11.57153
411.5648, 9.867676
412.0469, 4.806885
412.5290, 7.5438999E-02
413.0111, 1.916748
413.4933, 1.771240
413.9754, 1.338135
414.4575, 0.5205080
414.9396, 0.3825680
415.4217, 0.7980960
415.9038, 1.427734
416.3860, 3.213135
416.8681, 6.780762
417.3502, 10.18262
417.8323, 11.32935
418.3144, 10.44897
418.7965, 9.431396
419.2787, 8.385254
419.7608, 7.852539
420.2429, 8.844238
420.7250, 11.18530
421.2071, 12.75415
421.6892, 11.73730
422.1714, 10.00977
422.6535, 10.37695
423.1356, 13.02856
423.6177, 15.86182
424.0998, 17.80737
424.5819, 18.70557
425.0641, 18.31934
425.5462, 14.60767
426.0283, 12.20752
426.5104, 14.32324
426.9925, 19.00317
427.4746, 22.65894
427.9568, 24.14648
428.4389, 23.91504
428.9210, 22.46582
429.4031, 19.13379
429.8852, 16.43872
430.3673, 14.11816
430.8495, 12.63159
431.3316, 12.32837
431.8137, 13.16357
432.2958, 15.01221
432.7779, 17.95044
433.2600, 21.71289
433.7422, 24.13721
434.2243, 24.25464
434.7064, 24.08545
435.1885, 23.85620
435.6706, 23.43164
436.1527, 22.04102
436.6349, 19.66309
437.1170, 18.06567
437.5991, 20.31323
438.0812, 28.06958
438.5633, 33.49731
439.0454, 34.49878
439.5276, 35.06836
440.0097, 37.45703
440.4918, 40.66162
440.9739, 42.02271
441.4560, 39.44409
441.9381, 34.49438
442.4203, 31.82471
442.9024, 32.26318
443.3845, 32.91699
443.8666, 33.42871
444.3487, 33.50269
444.8308, 32.77197
445.3130, 31.12891
445.7951, 29.06494
446.2772, 25.69214
446.7593, 21.62231
447.2414, 21.70679
447.7235, 28.27344
448.2057, 35.32129
448.6878, 37.37256
449.1699, 36.36548
449.6520, 36.82324
450.1341, 41.44165
450.6162, 46.50854
451.0984, 48.34131
451.5805, 47.35669
452.0626, 46.03271
452.5447, 45.04248
453.0268, 44.66919
453.5089, 45.77588
453.9911, 48.41626
454.4732, 49.92920
454.9553, 49.54761
455.4374, 48.58813
455.9195, 48.29395
456.4016, 48.74438
456.8838, 49.42993
457.3659, 49.85107
457.8480, 50.01831
458.3301, 50.99683
458.8122, 52.96216
459.2943, 54.99341
459.7765, 58.21191
460.2586, 61.27026
460.7407, 61.86450
461.2228, 59.30249
461.7049, 55.51318
462.1870, 53.39746
462.6692, 53.52490
463.1513, 53.32959
463.6334, 52.24609
464.1155, 51.64355
464.5976, 52.70264
465.0797, 54.82812
465.5619, 56.69067
466.0440, 57.49463
466.5261, 57.14160
467.0082, 55.39331
467.4903, 51.28662
467.9724, 49.34814
468.4546, 52.56128
468.9367, 56.94604
469.4188, 59.72070
469.9009, 60.59985
470.3830, 60.87451
470.8651, 61.53174
471.3473, 62.50122
471.8294, 63.26709
472.3115, 63.98340
472.7936, 63.89990
473.2757, 61.38647
473.7578, 57.87891
474.2400, 56.21387
474.7221, 57.39429
475.2042, 59.44238
475.6863, 61.25659
476.1684, 62.89209
476.6505, 64.52759
477.1327, 66.23853
477.6148, 67.94702
478.0969, 69.92358
478.5790, 72.47021
479.0611, 72.59888
479.5432, 67.41748
480.0254, 62.22949
480.5075, 60.63525
480.9896, 61.98047
481.4717, 63.87256
481.9538, 65.07764
482.4359, 65.68311
482.9181, 65.88354
483.4002, 64.62744
483.8823, 64.56299
484.3644, 66.81226
484.8465, 69.36987
485.3286, 71.11157
485.8108, 71.75586
486.2929, 71.16309
486.7750, 68.89258
487.2571, 65.25073
487.7392, 62.92847
488.2213, 62.13257
488.7035, 62.38452
489.1856, 64.06616
489.6677, 66.26440
490.1498, 68.13525
490.6319, 69.46826
491.1140, 70.35669
491.5962, 70.67090
492.0783, 70.51050
492.5604, 70.98755
493.0425, 73.02759
493.5246, 74.10596
494.0067, 71.61865
494.4889, 66.81543
494.9710, 62.31299
495.4531, 59.09888
495.9352, 56.19263
496.4173, 51.88062
496.8994, 46.90332
497.3816, 43.86890
497.8637, 43.90918
498.3458, 45.51172
498.8279, 46.44360
499.3100, 46.28271
499.7921, 47.03906
500.2743, 50.06616
500.7564, 52.86328
501.2385, 54.15967
501.7206, 53.89771
502.2027, 51.80298
502.6848, 47.45630
503.1670, 42.14209
503.6491, 39.97998
504.1312, 43.29980
504.6133, 45.95801
505.0954, 45.48193
505.5775, 46.09766
506.0597, 52.54883
506.5418, 63.46411
507.0239, 72.48218
507.5060, 74.39258
507.9881, 70.42969
508.4702, 65.85693
508.9524, 59.63745
509.4345, 55.21265
509.9166, 53.56006
510.3987, 54.30811
510.8808, 58.28955
511.3629, 65.64917
511.8451, 72.36816
512.3271, 74.43652
512.8093, 73.58325
513.2914, 74.90063
513.7735, 79.17749
514.2556, 83.87549
514.7377, 87.14795
515.2198, 89.47461
515.7020, 92.63037
516.1841, 97.30322
516.6662, 101.8513
517.1483, 105.2422
517.6304, 108.1123
518.1125, 111.6191
518.5947, 116.0337
519.0768, 120.6926
519.5589, 125.1165
520.0410, 129.5190
520.5231, 131.5193
521.0052, 128.9751
521.4874, 126.8313
521.9695, 127.2290
522.4516, 128.7903
522.9337, 129.6501
523.4158, 129.0928
523.8979, 127.4084
524.3801, 125.0603
524.8622, 122.1865
525.3443, 118.0110
525.8264, 110.9272
526.3085, 104.2715
526.7906, 100.0869
527.2728, 97.26636
527.7549, 93.47070
528.2370, 87.37354
528.7191, 80.77563
529.2012, 76.63428
529.6833, 74.66821
530.1655, 70.32837
530.6476, 61.05713
531.1297, 51.39990
531.6118, 47.23315
532.0939, 47.72827
532.5760, 47.35962
533.0582, 44.38477
533.5403, 40.72217
534.0224, 37.14160
534.5045, 34.05688
534.9866, 33.00732
535.4688, 34.92383
535.9509, 37.75293
536.4330, 37.63452
536.9151, 33.32397
537.3972, 28.86230
537.8793, 22.91968
538.3615, 18.05127
538.8436, 16.01270
539.3257, 16.20312
539.8078, 17.26978
540.2899, 18.57446
540.7720, 19.64111
541.2542, 19.11523
541.7363, 16.11646
542.2184, 13.98413
542.7005, 13.53662
543.1826, 13.92017
543.6647, 15.30859
544.1469, 17.24243
544.6290, 18.14087
545.1111, 16.37549
545.5932, 13.73804
546.0753, 13.32959
546.5574, 15.05859
547.0396, 15.82910
547.5217, 13.86182
548.0038, 11.26440
548.4859, 12.15894
548.9680, 17.09985
549.4501, 19.54517
549.9323, 16.44897
550.4144, 11.96680
550.8965, 9.474609
551.3786, 8.578613
551.8607, 6.832520
552.3428, 2.787598
552.8250, 2.154785
553.3071, 4.352783
553.7892, 1.298340
554.2713, 9.1309004E-02
554.7534, 1.612061
555.2355, 3.909668
555.7177, 6.683105
556.1998, 9.290039
556.6819, 10.46851
557.1640, 9.255127
557.6461, 6.576172
558.1282, 4.044678
558.6104, 1.427979
559.0925, 0.5146480
559.5746, 2.914551
560.0567, 6.051025
560.5388, 7.801758
561.0209, 8.244385
561.5031, 8.024658
561.9852, 7.111328
562.4673, 5.830078
562.9494, 4.417969
563.4315, 2.919922
563.9136, 1.628418
564.3958, 0.8129880
564.8779, 0.2167970
565.3600, 2.861572
565.8421, 8.335205
566.3242, 11.76221
566.8063, 11.29126
567.2885, 10.55713
567.7706, 11.92798
568.2527, 14.59131
568.7348, 16.34839
569.2169, 16.08667
569.6990, 15.12573
570.1812, 16.23804
570.6633, 20.09326
571.1454, 23.33984
571.6275, 25.95508
572.1096, 27.62476
572.5917, 27.38013
573.0739, 26.14453
573.5560, 26.09521
574.0381, 28.56763
574.5202, 31.64136
575.0023, 33.54907
575.4844, 34.26367
575.9666, 33.26440
576.4487, 29.94897
576.9308, 26.43701
577.4129, 25.25488
577.8950, 26.45166
578.3771, 26.21948
578.8593, 22.45630
579.3414, 19.40015
579.8235, 19.36230
580.3056, 21.14941
580.7877, 23.08154
581.2698, 24.55444
581.7520, 25.37061
582.2341, 25.19556
582.7162, 23.89600
583.1984, 22.72827
583.6805, 21.92041
584.1626, 20.95972
584.6447, 19.01099
585.1268, 17.13623
585.6089, 16.94360
586.0911, 18.88623
586.5732, 21.02246
587.0553, 21.38721
587.5374, 20.44653
588.0195, 20.18530
588.5016, 20.99707
588.9838, 21.28955
589.4659, 19.79321
589.9480, 17.09814
590.4301, 15.03882
590.9122, 13.75269
591.3943, 12.82080
591.8765, 12.58887
592.3586, 12.36670
592.8407, 10.77856
593.3228, 8.133789
593.8049, 6.882080
594.2870, 9.132080
594.7692, 13.76123
595.2513, 15.38037
595.7334, 12.06079
596.2155, 9.075928
596.6976, 7.337402
597.1797, 5.777832
597.6619, 3.078125
598.1440, 0.2905270
598.6261, 2.287842
599.1082, 1.432129
599.5903, 1.283936
600.0724, 4.724121
600.5546, 8.882568
601.0367, 11.26172
601.5188, 10.66406
602.0009, 8.535889
602.4830, 6.144043
602.9651, 3.454834
603.4473, 1.971680
603.9294, 2.797119
604.4115, 4.025391
604.8936, 4.240723
605.3757, 4.035645
605.8578, 5.009277
606.3400, 7.714355
606.8221, 10.62622
607.3042, 11.46240
607.7863, 9.850342
608.2684, 8.804688
608.7505, 9.760986
609.2327, 9.633545
609.7148, 6.085693
610.1969, 1.656250
610.6790, 0.5727540
611.1611, 0.3090820
611.6432, 2.849609
612.1254, 6.021240
612.6075, 9.375000
613.0896, 11.84546
613.5717, 13.30273
614.0538, 13.96509
614.5359, 13.67578
615.0181, 13.04761
615.5002, 13.61230
615.9823, 15.60913
616.4644, 17.97046
616.9465, 20.46753
617.4286, 22.89380
617.9108, 24.52783
618.3929, 25.98364
618.8750, 29.50171
619.3571, 36.77051
619.8392, 45.61841
620.3214, 49.73560
620.8035, 47.05420
621.2856, 46.09277
621.7677, 49.33105
622.2498, 52.97559
622.7319, 54.90137
623.2141, 55.65894
623.6962, 56.94556
624.1783, 59.64575
624.6604, 62.67163
625.1425, 64.79834
625.6246, 66.36353
626.1068, 69.10010
626.5889, 73.67554
627.0710, 76.76904
627.5531, 74.70410
628.0352, 67.79712
628.5173, 63.21436
628.9995, 62.26953
629.4816, 61.64111
629.9637, 60.40283
630.4458, 59.30786
630.9279, 59.64087
631.4100, 61.15259
631.8922, 61.77271
632.3743, 59.34644
632.8564, 55.02417
633.3385, 53.63696
633.8206, 56.27686
634.3027, 57.19312
634.7849, 53.08447
635.2670, 48.16138
635.7491, 46.17480
636.2312, 46.99219
636.7133, 49.35742
637.1954, 54.77173
637.6776, 59.91260
638.1597, 61.52808
638.6418, 60.81519
639.1239, 61.12402
639.6060, 63.56714
640.0881, 65.80981
640.5703, 64.58301
641.0524, 59.40332
641.5345, 56.78223
642.0166, 58.44116
642.4987, 60.84180
642.9808, 64.51001
643.4630, 67.90918
643.9451, 69.17188
644.4272, 68.12646
644.9093, 66.77515
645.3914, 66.22974
645.8735, 66.62305
646.3557, 69.42969
646.8378, 74.84326
647.3199, 76.93359
647.8020, 72.37134
648.2841, 64.45605
648.7662, 58.19482
649.2484, 53.71387
649.7305, 49.90161
650.2126, 46.84644
650.6947, 44.27319
651.1768, 41.84937
651.6589, 39.82959
652.1411, 39.04102
652.6232, 39.67944
653.1053, 40.48486
653.5874, 39.43823
654.0695, 36.50781
654.5516, 35.65698
655.0338, 38.15820
655.5159, 40.22876
655.9980, 39.87061
656.4801, 38.30469
656.9622, 36.61841
657.4443, 34.79102
657.9265, 34.05151
658.4086, 35.65649
658.8907, 38.17725
659.3728, 39.50391
659.8549, 40.10205
660.3370, 42.98218
660.8192, 49.91455
661.3013, 58.35059
661.7834, 62.70557
662.2655, 60.66699
662.7476, 61.87891
663.2297, 68.32031
663.7119, 76.41479
664.1940, 86.55420
664.6761, 97.11157
665.1582, 105.9761
665.6403, 112.6121
666.1224, 118.2202
666.6046, 122.6978
667.0867, 127.1335
667.5688, 134.3662
668.0509, 144.6567
668.5330, 156.6770
669.0151, 170.3433
669.4973, 184.1584
669.9794, 194.8899
670.4615, 200.3459
670.9436, 208.7451
671.4257, 222.4929
671.9078, 236.8459
672.3900, 250.6287
672.8721, 262.9033
673.3542, 272.1077
673.8363, 277.7913
674.3184, 282.2927
674.8005, 288.2522
675.2827, 295.5068
675.7648, 302.4541
676.2469, 309.8494
676.7290, 314.0293
677.2111, 313.2478
677.6932, 308.2361
678.1754, 299.6838
678.6575, 286.9302
679.1396, 274.9651
679.6217, 266.2725
680.1038, 257.5198
680.5859, 246.0852
681.0681, 232.5132
681.5502, 218.3279
682.0323, 204.2402
682.5144, 190.5059
682.9965, 177.6575
683.4786, 165.7139
683.9608, 154.5337
684.4429, 144.3816
684.9250, 134.6167
685.4071, 125.1631
685.8892, 115.9070
686.3713, 106.2197
686.8535, 95.93799
687.3356, 87.69507
687.8177, 84.49390
688.2998, 82.54102
688.7819, 77.41870
689.2640, 70.12061
689.7462, 64.81494
690.2283, 63.07715
690.7104, 61.93848
691.1925, 56.66748
691.6746, 46.33423
692.1567, 40.39844
692.6389, 43.18799
693.1210, 44.46631
693.6031, 39.83911
694.0852, 33.60181
694.5673, 30.16943
695.0494, 30.03003
695.5316, 30.63257
696.0137, 31.18530
696.4958, 31.18286
696.9779, 30.07373
697.4600, 27.92749
697.9421, 24.56323
698.4243, 19.89819
698.9064, 15.09839
699.3885, 11.60938
699.8706, 9.376465
700.3527, 8.257080
700.8348, 9.232666
701.3170, 10.49438
701.7991, 12.48730
702.2812, 14.19360
702.7633, 14.48120
703.2454, 13.40234
703.7275, 11.80713
704.2097, 9.773438
704.6918, 7.941406
705.1739, 7.198730
705.6560, 7.526123
706.1381, 9.142822
706.6202, 12.31812
707.1024, 15.69360
707.5845, 18.21216
708.0666, 19.85327
708.5487, 18.91211
709.0308, 12.29053
709.5129, 7.441895
709.9951, 6.163330
710.4772, 6.352783
710.9593, 6.560791
711.4414, 6.513184
711.9235, 6.244873
712.4056, 5.627197
712.8878, 5.078369
713.3699, 5.433350
713.8520, 6.445313
714.3341, 7.133789
714.8162, 7.509521
715.2983, 7.003174
715.7805, 4.698242
716.2626, 1.150879
716.7447, 0.5620120
717.2268, 2.725342
717.7089, 3.238037
718.1910, 3.318359
718.6732, 9.669678
719.1553, 10.07739
719.6374, 5.910400
720.1195, 1.487793
720.6016, 1.249268
721.0837, 2.787842
721.5659, 3.653076
722.0480, 3.854492
722.5301, 3.303955
723.0122, 1.825684
723.4943, 0.6030270
723.9764, 0.3322750
724.4586, 0.4047850
724.9407, 0.4013670
725.4228, 3.109619
725.9049, 3.924072
726.3870, 1.415771
726.8691, 1.797607
727.3513, 5.288086
727.8334, 8.168701
728.3155, 8.809082
728.7976, 6.784668
729.2797, 4.328857
729.7618, 4.254883
730.2440, 5.681641
730.7261, 4.835205
731.2082, 1.416260
731.6903, 0.5512700
732.1724, 1.097412
732.6545, 4.117676
733.1367, 5.371094
733.6188, 4.589355
734.1009, 3.139648
734.5830, 1.115967
735.0651, 3.528809
735.5472, 0.5432130
736.0294, 4.014648
736.5115, 5.459717
736.9936, 3.376221
737.4757, 0.9943850
737.9578, 0.7734380
738.4399, 1.747070
738.9221, 1.849609
739.4042, 1.162354
739.8863, 0.8327640
740.3684, 1.040771
740.8505, 2.173828
741.3326, 5.222900
741.8148, 9.812988
742.2969, 11.48999
742.7790, 7.626709
743.2611, 4.723633
743.7432, 4.313965
744.2253, 4.497803
744.7075, 4.063721
745.1896, 2.976563
745.6717, 1.431152
746.1538, 0.6750490
746.6359, 2.327637
747.1180, 1.960205
747.6002, 0.1042480
748.0823, 1.362305
748.5644, 2.231445
749.0465, 2.706299
749.5286, 2.822021
750.0107, 2.740723
750.4929, 2.860107
750.9750, 3.418457
751.4571, 3.567871
751.9392, 3.263184
752.4213, 2.634277
752.9034, 1.117676
753.3856, 0.4248050
753.8677, 0.3168950
754.3498, 1.675537
754.8319, 2.710938
755.3140, 0.9174800
755.7961, 6.009277
756.2783, 7.090576
756.7604, 4.576172
757.2425, 0.9086910
757.7246, 3.286377
758.2067, 6.345215
758.6888, 5.831055
759.1710, 1.779297
759.6531, 0.7670900
760.1352, 5.021973
760.6173, 8.954102
761.0994, 13.29419
761.5815, 15.75952
762.0637, 13.08252
762.5458, 6.854492
763.0279, 2.786621
763.5100, 3.730469
763.9921, 6.372559
764.4742, 9.599365
764.9564, 12.07666
765.4385, 10.17578
765.9206, 4.177734
766.4027, 0.6916500
766.8848, 1.046387
767.3669, 1.615234
767.8491, 4.096924
768.3312, 6.833008
768.8133, 7.711670
769.2954, 5.574219
769.7775, 3.146240
770.2596, 0.8918460
770.7418, 0.6281740
771.2239, 0.4230960
771.7060, 1.731445
772.1881, 4.138184
772.6702, 7.151855
773.1523, 9.257568
773.6345, 8.453369
774.1166, 5.961426
774.5987, 4.218994
775.0808, 3.989502
775.5629, 4.449219
776.0450, 4.622559
776.5272, 4.402588
777.0093, 4.813232
777.4914, 6.528564
777.9735, 7.003174
778.4556, 4.800293
778.9377, 1.947754
779.4199, 0.1862790
779.9020, 0.6462400
780.3841, 1.438232
780.8662, 3.026123
781.3483, 3.405518
781.8304, 1.043457
782.3126, 1.827148
782.7947, 3.374756
783.2768, 3.630859
783.7589, 3.441895
784.2410, 3.305908
784.7231, 3.681396
785.2053, 5.630615
785.6874, 8.504150
786.1695, 9.337646
786.6516, 7.873291
787.1337, 7.018799
787.6158, 8.185303
788.0980, 10.41406
788.5801, 12.57178
789.0622, 15.01221
789.5443, 14.84741
790.0264, 9.313965
790.5085, 5.160889
790.9907, 3.896484
791.4728, 4.564941
791.9549, 7.279541
792.4370, 11.13672
792.9191, 13.45532
793.4012, 12.74487
793.8834, 11.00146
794.3655, 9.471680
794.8476, 8.444336
795.3297, 9.067627
795.8118, 11.25928
796.2939, 12.75317
796.7761, 11.90308
797.2582, 9.858154
797.7403, 9.931396
798.2224, 13.45093
798.7045, 13.23169
799.1866, 6.194092
799.6688, 3.0762000E-02
800.1509, 2.041504
800.6330, 1.176514
801.1151, 2.215088
801.5972, 8.391357
802.0793, 13.25830
802.5615, 14.87476
803.0436, 15.71899
803.5257, 18.02734
804.0078, 20.15552
804.4899, 19.06128
804.9720, 14.84302
805.4542, 10.84033
805.9363, 9.479980
806.4184, 10.01807
806.9005, 11.21973
807.3826, 13.02881
807.8647, 14.86182
808.3469, 16.92383
808.8290, 17.34546
809.3111, 13.97168
809.7932, 8.515625
810.2753, 6.347168
810.7574, 9.398682
811.2396, 11.70483
811.7217, 12.93921
812.2038, 14.11108
812.6859, 15.73071
813.1680, 17.21484
813.6501, 17.59473
814.1323, 17.05225
814.6144, 17.09009
815.0965, 19.19263
815.5786, 21.80884
816.0607, 22.97900
816.5428, 23.09937
817.0250, 23.33740
817.5071, 23.94336
817.9892, 24.29248
818.4713, 23.63794
818.9534, 22.28711
819.4355, 21.56738
819.9177, 21.86646
820.3998, 20.57251
820.8819, 15.50977
821.3640, 12.05151
821.8461, 15.43555
822.3282, 21.96191
822.8104, 23.83374
823.2925, 19.16113
823.7746, 16.52319
824.2567, 19.53442
824.7388, 22.87817
825.2209, 24.26416
825.7031, 23.75830
826.1852, 20.94263
826.6673, 16.31836
827.1494, 12.91431
827.6315, 13.78809
828.1136, 16.43408
828.5958, 16.27393
829.0779, 14.04395
829.5600, 13.14331
830.0421, 14.16675
830.5242, 14.99805
831.0063, 13.68677
831.4885, 11.68213
831.9706, 14.07397
832.4527, 24.28833
832.9348, 29.69141
833.4169, 26.50391
833.8990, 23.11108
834.3812, 23.20752
834.8633, 24.73120
835.3454, 24.64624
835.8275, 22.60034
836.3096, 22.44580
836.7917, 27.21509
837.2739, 32.35010
837.7560, 36.09106
838.2381, 37.84424
838.7202, 35.57617
839.2023, 30.17627
839.6844, 26.40137
840.1666, 27.50562
840.6487, 30.94312
841.1308, 32.56958
841.6129, 32.62036
842.0950, 32.96899
842.5771, 33.91187
843.0593, 33.60034
843.5414, 30.21509
844.0235, 26.42920
844.5056, 27.91724
844.9877, 36.55371
845.4698, 41.00977
845.9520, 37.61353
846.4341, 34.85425
846.9162, 34.61694
847.3983, 35.82739
847.8804, 38.19482
848.3625, 41.27197
848.8447, 43.30225
849.3268, 43.06348
849.8089, 42.74487
850.2910, 43.57715
850.7731, 44.92529
851.2552, 46.13013
851.7374, 47.14380
852.2195, 47.93945
852.7016, 48.49927
853.1837, 49.62476
853.6658, 53.18848
854.1479, 58.32178
854.6301, 60.32520
855.1122, 59.04248
855.5943, 58.99829
856.0764, 62.05884
856.5585, 65.59717
857.0406, 66.45435
857.5228, 64.99121
858.0049, 65.81494
858.4870, 70.75562
858.9691, 75.20728
859.4512, 79.40088
859.9333, 82.40674
860.4155, 83.47412
860.8976, 83.11670
861.3797, 81.77466
861.8618, 79.01831
862.3439, 78.46997
862.8260, 83.86279
863.3082, 89.87085
863.7903, 92.16821
864.2724, 92.10938
864.7545, 92.42285
865.2366, 93.61743
865.7188, 94.17432
866.2009, 92.49854
866.6830, 90.17749
867.1651, 90.83618
867.6472, 93.84644
868.1293, 95.36157
868.6115, 94.77393
869.0936, 93.27295
869.5757, 91.43286
870.0578, 89.43604
870.5399, 87.65820
871.0220, 86.15454
871.5042, 84.59229
871.9863, 82.72046
872.4684, 81.23169
872.9505, 81.81934
873.4326, 81.79932
873.9147, 78.38477
874.3969, 72.01880
874.8790, 65.82300
875.3611, 59.59839
875.8432, 54.79858
876.3253, 52.56201
876.8074, 51.43311
877.2896, 50.56616
877.7717, 49.63013
878.2538, 48.01807
878.7359, 45.52051
879.2180, 43.49902
879.7001, 44.48193
880.1823, 46.12549
880.6644, 42.83789
881.1465, 35.98877
881.6286, 31.97363
882.1107, 32.41528
882.5928, 34.23218
883.0750, 35.04761
883.5571, 34.55859
884.0392, 31.18286
884.5213, 24.13599
885.0034, 18.99609
885.4855, 16.50562
885.9677, 15.45581
886.4498, 15.84668
886.9319, 16.86792
887.4140, 17.43872
887.8961, 17.78613
888.3782, 16.73657
888.8604, 12.20239
889.3425, 9.013184
889.8246, 9.078125
890.3067, 10.59863
890.7888, 13.27344
891.2709, 15.96777
891.7531, 15.64648
892.2352, 10.25562
892.7173, 4.926025
893.1994, 3.050781
893.6815, 3.061279
894.1636, 3.385742
894.6458, 4.090576
895.1279, 5.923340
895.6100, 8.940918
896.0921, 11.51978
896.5742, 12.04810
897.0563, 11.16675
897.5385, 10.39429
898.0206, 9.658447
898.5027, 8.446533
898.9848, 6.645264
899.4669, 4.217529
899.9490, 0.7485350
900.4312, 2.512695
900.9133, 2.635254
901.3954, 1.413330
901.8775, 3.853271
902.3596, 4.069092
902.8417, 3.755859
903.3239, 2.517090
903.8060, 1.875488
904.2881, 4.192139
904.7702, 8.560303
905.2523, 10.29028
905.7344, 7.419678
906.2166, 4.536377
906.6987, 1.459473
907.1808, 0.1057130
907.6629, 2.205566
908.1450, 6.547607
908.6271, 9.842529
909.1093, 11.23779
909.5914, 11.09399
910.0735, 8.820068
910.5556, 5.812500
911.0377, 2.966309
911.5198, 0.7666020
912.0020, 0.8920900
912.4841, 3.076904
912.9662, 4.226318
913.4483, 2.213379
913.9304, 0.6228030
914.4125, 0.1879880
914.8947, 3.156494
915.3768, 6.991943
915.8589, 11.32764
916.3410, 13.63501
916.8231, 12.67065
917.3052, 10.78125
917.7874, 10.80200
918.2695, 12.20117
918.7516, 10.67285
919.2337, 3.945313
919.7158, 0.1547850
920.1979, 9.4971001E-02
920.6801, 1.798096
921.1622, 4.062988
921.6443, 6.490967
922.1264, 8.585205
922.6085, 10.41406
923.0906, 11.09985
923.5728, 9.036133
924.0549, 7.689941
924.5370, 8.783936
925.0191, 10.79077
925.5012, 12.42163
925.9833, 13.61450
926.4655, 14.87256
926.9476, 16.53516
927.4297, 17.50464
927.9118, 16.37939
928.3939, 14.68896
928.8760, 14.05786
929.3582, 14.27197
929.8403, 15.01709
930.3224, 16.00830
930.8045, 16.05444
931.2866, 13.89746
931.7687, 10.83643
932.2509, 9.071289
932.7330, 8.571289
933.2151, 9.842285
933.6972, 12.78125
934.1793, 14.07983
934.6614, 12.00635
935.1436, 8.237549
935.6257, 4.834473
936.1078, 1.901367
936.5899, 2.190430
937.0720, 7.017090
937.5541, 9.578369
938.0363, 7.564209
938.5184, 4.782227
939.0005, 3.968506
939.4826, 4.458252
939.9647, 4.402832
940.4468, 3.670654
940.9290, 2.703613
941.4111, 0.8510740
941.8932, 0.4333500
942.3753, 0.2993160
942.8574, 0.2124020
943.3395, 0.2080080
943.8217, 1.210205
944.3038, 0.8916020
944.7859, 1.838867
945.2680, 4.621338
945.7501, 7.682373
946.2322, 9.490479
946.7144, 8.042480
947.1965, 4.886475
947.6786, 2.624023
948.1607, 1.767822
948.6428, 0.9213870
949.1249, 1.088135
949.6071, 3.097168
950.0892, 4.210449
950.5713, 4.332520
951.0534, 2.905762
951.5355, 0.3476560
952.0176, 2.480957
952.4998, 5.142090
952.9819, 6.438232
953.4640, 3.929932
953.9461, 0.6992190
954.4282, 2.187988
954.9103, 0.8605960
955.3925, 1.251953
955.8746, 3.732666
956.3567, 4.815918
956.8388, 3.042236
957.3209, 9.2772998E-02
957.8030, 1.304443
958.2852, 0.4831540
958.7673, 0.3872070
959.2494, 1.507324
959.7315, 2.234131
960.2136, 2.665283
960.6957, 1.959961
961.1779, 1.512939
961.6600, 6.735107
962.1421, 8.068359
962.6242, 2.732910
963.1063, 0.9941410
963.5884, 2.531250
964.0706, 3.098145
964.5527, 2.341797
965.0348, 1.381104
965.5169, 1.723633
965.9990, 3.274414
966.4811, 4.153320
966.9633, 3.289307
967.4454, 2.839600
967.9275, 3.836670
968.4096, 4.854248
968.8917, 4.840332
969.3738, 4.186279
969.8560, 3.650391
970.3381, 3.380615
970.8202, 3.016602
971.3023, 1.994629
971.7844, 1.259277
972.2665, 1.900146
972.7487, 2.945801
973.2308, 3.311279
973.7129, 2.981201
974.1950, 1.983887
974.6771, 0.3417970
975.1592, 0.2822270
975.6414, 3.043213
976.1235, 7.213867
976.6056, 7.270996
977.0877, 4.737305
977.5698, 3.365234
978.0519, 3.669189
978.5341, 3.811279
979.0162, 2.629395
979.4983, 1.611084
979.9804, 3.935059
980.4625, 8.224365
980.9446, 8.256348
981.4268, 4.499512
981.9089, 3.051270
982.3910, 5.562744
982.8731, 8.098389
983.3552, 7.395752
983.8373, 4.861084
984.3195, 4.173096
984.8016, 5.459473
985.2837, 5.518799
985.7658, 3.822021
986.2479, 3.706055
986.7300, 6.930664
987.2122, 10.32153
987.6943, 10.53442
988.1764, 8.197021
988.6585, 6.753662
989.1406, 6.454834
989.6227, 6.235596
990.1049, 5.514404
990.5870, 5.923828
991.0691, 9.020020
991.5512, 12.70850
992.0333, 14.40479
992.5154, 14.19116
992.9976, 14.15991
993.4797, 15.84326
993.9618, 15.36377
994.4439, 9.316650
994.9260, 4.694824
995.4081, 6.110596
995.8903, 10.16772
996.3724, 12.43579
996.8545, 12.61060
997.3366, 12.13965
997.8187, 11.02100
998.3008, 9.639404
998.7830, 7.040771
999.2651, 5.219971
999.7472, 6.537109
1000.229, 9.290771
1000.711, 10.11670
1001.194, 8.372803
1001.676, 7.226074
1002.158, 8.907959
1002.640, 10.82349
1003.122, 11.50000
1003.604, 11.45386
1004.086, 11.14331
1004.568, 10.60962
1005.050, 9.645264
1005.533, 8.208252
1006.015, 7.019287
1006.497, 7.282715
1006.979, 7.245117
1007.461, 4.153809
1007.943, 0.2910160
1008.425, 0.5478520
1008.907, 1.463623
1009.390, 3.936279
1009.872, 5.717529
1010.354, 7.216797
1010.836, 8.825684
1011.318, 10.45654
1011.800, 12.34375
1012.282, 13.96802
1012.764, 13.74390
1013.246, 11.86816
1013.729, 10.85083
1014.211, 12.08252
1014.693, 13.55005
1015.175, 12.07812
1015.657, 8.810791
1016.139, 7.405273
1016.621, 7.599121
1017.103, 8.220703
1017.586, 8.962402
1018.068, 9.201904
1018.550, 8.532471
1019.032, 7.261230
1019.514, 5.995850
1019.996, 4.904053
1020.478, 3.401611
1020.960, 1.439453
1021.442, 1.969482
1021.925, 5.895020
1022.407, 8.513184
1022.889, 6.240723
1023.371, 1.950684
1023.853, 1.824951
1024.335, 5.906738
1024.817, 7.243652
1025.299, 5.448975
1025.781, 3.568359
1026.264, 2.078613
1026.746, 1.650146
1027.228, 2.902588
1027.710, 5.344482
1028.192, 8.080566
1028.674, 11.35718
1029.156, 12.68896
1029.638, 11.63452
1030.120, 9.973389
1030.603, 7.590332
1031.085, 5.984375
1031.567, 6.555908
1032.049, 8.569092
1032.531, 10.19019
1033.013, 11.65894
1033.495, 11.79004
1033.977, 9.937500
1034.460, 7.905762
1034.942, 5.673584
1035.424, 4.047119
1035.906, 3.691650
1036.388, 4.610840
1036.870, 6.483398
1037.352, 10.00732
1037.834, 11.24805
1038.317, 7.592041
1038.799, 5.725342
1039.281, 8.327393
1039.763, 12.04272
1040.245, 14.97974
1040.727, 17.01172
1041.209, 17.85425
1041.691, 17.62402
1042.173, 15.78223
1042.656, 9.722168
1043.138, 5.510498
1043.620, 5.353271
1044.102, 6.828125
1044.584, 8.967285
1045.066, 11.19751
1045.548, 12.06104
1046.030, 11.08032
1046.512, 10.25684
1046.995, 10.73145
1047.477, 10.12109
1047.959, 5.407227
1048.441, 1.457031
1048.923, 2.691162
1049.405, 7.584473
1049.887, 12.58130
1050.369, 17.72119
1050.852, 20.42993
1051.334, 19.01514
1051.816, 16.71655
1052.298, 13.27563
1052.780, 10.60278
1053.262, 11.05249
1053.744, 13.40601
1054.226, 13.94458
1054.708, 11.86743
1055.191, 11.10913
1055.673, 15.31860
1056.155, 17.66040
1056.637, 12.70654
1057.119, 7.302979
1057.601, 8.371338
1058.083, 13.06372
1058.565, 14.74731
1059.047, 12.15112
1059.530, 8.751953
1060.012, 3.458496
1060.494, 0.3718260
1060.976, 2.186035
1061.458, 5.848389
1061.940, 10.18994
1062.422, 14.08350
1062.904, 15.04541
1063.387, 12.65381
1063.869, 11.87646
1064.351, 16.70337
1064.833, 20.77637
1065.315, 20.64453
1065.797, 19.15479
1066.279, 18.91260
1066.761, 19.06494
1067.244, 16.96509
1067.726, 12.39795
1068.208, 9.391846
1068.690, 11.13599
1069.172, 12.70044
1069.654, 11.68799
1070.136, 9.727783
1070.618, 7.636230
1071.100, 5.819824
1071.583, 4.204346
1072.065, 3.035645
1072.547, 4.211670
1073.029, 11.16992
1073.511, 15.95947
1073.993, 12.88306
1074.475, 8.199219
1074.957, 5.910767
1075.439, 5.657959
1075.922, 6.935425
1076.404, 9.290649
1076.886, 11.18848
1077.368, 12.39355
1077.850, 12.30176
1078.332, 8.911621
1078.814, 5.915649
1079.297, 6.848755
1079.779, 9.317383
1080.261, 9.568848
1080.743, 7.922485
1081.225, 8.113647
1081.707, 12.35718
1082.189, 15.35083
1082.671, 13.31848
1083.153, 10.72717
1083.635, 10.40295
1084.118, 11.17578
1084.600, 11.77844
1085.082, 12.09253
1085.564, 12.48352
1086.046, 13.23254
1086.528, 12.98474
1087.010, 10.36353
1087.492, 7.593994
1087.975, 5.207397
1088.457, 3.873047
1088.939, 4.966553
1089.421, 7.429077
1089.903, 8.719727
1090.385, 8.212891
1090.867, 7.094360
1091.349, 5.179321
1091.832, 3.592529
1092.314, 3.532104
1092.796, 3.387085
1093.278, 0.8052980
1093.760, 2.516724
1094.242, 2.928467
1094.724, 0.1384280
1095.206, 2.873901
1095.688, 3.483765
1096.171, 4.328003
1096.653, 7.208740
1097.135, 9.565063
1097.617, 9.379150
1098.099, 7.661377
1098.581, 5.723511
1099.063, 3.799316
1099.545, 2.380005
1100.027, 0.7893070
1100.510, 1.058960
1100.992, 4.972290
1101.474, 9.387695
1101.956, 14.31262
1102.438, 17.59863
1102.920, 15.49646
1103.402, 9.267090
1103.884, 5.729370
1104.367, 6.654297
1104.849, 8.541260
1105.331, 13.15076
1105.813, 15.60413
1106.295, 11.47473
1106.777, 6.585083
1107.259, 7.039551
1107.741, 10.94373
1108.224, 12.27917
1108.706, 9.880127
1109.188, 7.681396
1109.670, 6.486572
1110.152, 4.885010
1110.634, 0.8041990
1111.116, 2.015381
1111.598, 0.3372800
1112.080, 5.066406
1112.563, 6.694336
1113.045, 4.743652
1113.527, 3.536743
1114.009, 3.624756
1114.491, 3.574463
1114.973, 3.599365
1115.455, 3.005981
1115.937, 1.102417
1116.419, 1.289429
1116.902, 3.375000
1117.384, 5.064087
1117.866, 5.353516
1118.348, 3.714844
1118.830, 1.794800
1119.312, 0.7686770
1119.794, 2.762451
1120.276, 3.489502
1120.759, 3.883179
1121.241, 5.067261
1121.723, 6.475952
1122.205, 5.921387
1122.687, 2.619385
1123.169, 0.9691160
1123.651, 1.413330
1124.133, 2.046509
1124.615, 2.572144
1125.098, 2.655396
1125.580, 1.983398
1126.062, 0.8726810
1126.544, 0.1876220
1127.026, 1.167725
1127.508, 0.8392330
1127.990, 1.012817
1128.472, 2.490479
1128.954, 3.368530
1129.437, 3.087769
1129.919, 1.008789
1130.401, 0.1081540
1130.883, 3.948242
1131.365, 10.88281
1131.847, 10.05054
1132.329, 2.087402
1132.811, 0.6691890
1133.294, 6.616455
1133.776, 11.04480
1134.258, 10.99182
1134.740, 9.682739
1135.222, 9.782104
1135.704, 10.50330
1136.186, 10.27039
1136.668, 9.332886
1137.151, 8.684082
1137.633, 8.330200
1138.115, 8.081177
1138.597, 7.893799
1139.079, 7.849731
1139.561, 8.003662
1140.043, 7.929810
1140.525, 6.448486
1141.007, 4.880859
1141.490, 6.819458
1141.972, 10.25513
1142.454, 9.856445
1142.936, 6.401611
1143.418, 5.042236
1143.900, 7.339233
1144.382, 10.05396
1144.864, 11.13843
1145.346, 10.73669
1145.829, 7.691650
1146.311, 4.308472
1146.793, 3.616333
1147.275, 4.904053
1147.757, 6.895386
1148.239, 8.971924
1148.721, 10.01855
1149.203, 9.376221
1149.686, 8.458008
1150.168, 7.815308
1150.650, 7.667603
1151.132, 8.890137
1151.614, 9.984375
1152.096, 9.202515
1152.578, 7.427246
1153.060, 6.326538
1153.542, 6.291138
1154.025, 7.083374
1154.507, 10.40112
1154.989, 12.07422
1155.471, 8.692383
1155.953, 5.235229
1156.435, 5.498901
1156.917, 7.304932
1157.399, 7.263062
1157.881, 5.431885
1158.364, 4.601318
1158.846, 5.084106
1159.328, 6.551514
1159.810, 10.45715
1160.292, 13.33655
1160.774, 14.10596
1161.256, 13.57739
1161.738, 11.51599
1162.221, 9.077759
1162.703, 9.374268
1163.185, 13.07605
1163.667, 13.85864
1164.149, 10.40173
1164.631, 7.717041
1165.113, 6.172852
1165.595, 6.915405
1166.078, 11.33325
1166.560, 16.21887
1167.042, 17.62683
1167.524, 16.06482
1168.006, 13.23462
1168.488, 8.948975
1168.970, 7.866943
1169.452, 10.59937
1169.934, 13.55969
1170.417, 15.76782
1170.899, 16.63708
1171.381, 15.66711
1171.863, 13.70923
1172.345, 12.08752
1172.827, 11.20422
1173.309, 13.52991
1173.791, 17.87537
1174.273, 18.96521
1174.756, 16.45093
1175.238, 12.92749
1175.720, 9.719482
1176.202, 9.079590
1176.684, 14.35181
1177.166, 20.13196
1177.648, 18.30286
1178.130, 13.39172
1178.613, 11.95764
1179.095, 12.88855
1179.577, 12.96582
1180.059, 11.81555
1180.541, 10.96423
1181.023, 11.09033
1181.505, 11.51221
1181.987, 12.05090
1182.469, 12.46558
1182.952, 12.52014
1183.434, 12.43176
1183.916, 12.65430
1184.398, 12.79175
1184.880, 11.79663
1185.362, 9.683105
1185.844, 8.419556
1186.326, 8.761230
1186.808, 9.316040
1187.291, 9.484985
1187.773, 10.26587
1188.255, 13.49536
1188.737, 16.35706
1189.219, 15.29968
1189.701, 11.81689
1190.183, 10.88928
1190.665, 13.37622
1191.148, 14.21973
1191.630, 12.60339
1192.112, 11.58862
1192.594, 11.73621
1193.076, 11.90552
1193.558, 11.60913
1194.040, 11.39844
1194.522, 12.12268
1195.005, 13.28870
1195.487, 12.50903
1195.969, 9.904419
1196.451, 8.695801
1196.933, 9.014893
1197.415, 9.980835
1197.897, 11.30029
1198.379, 11.99902
1198.861, 11.42883
1199.344, 10.44812
1199.826, 10.15442
1200.308, 10.25281
1200.790, 10.07764
1201.272, 9.888428
1201.754, 10.38684
1202.236, 11.39551
1202.718, 12.35010
1203.200, 12.96741
1203.683, 12.55444
1204.165, 10.01404
1204.647, 8.256592
1205.129, 11.04138
1205.611, 13.88940
1206.093, 11.96301
1206.575, 8.596924
1207.057, 8.293457
1207.540, 10.28662
1208.022, 11.31921
1208.504, 10.70435
1208.986, 9.553955
1209.468, 7.172852
1209.950, 5.716187
1210.432, 5.692261
1210.914, 6.625366
1211.396, 9.523682
1211.879, 12.17859
1212.361, 11.80212
1212.843, 9.348511
1213.325, 8.897217
1213.807, 11.35010
1214.289, 11.02563
1214.771, 6.674805
1215.253, 5.055420
1215.735, 8.145142
1216.218, 10.87000
1216.700, 10.43726
1217.182, 8.658569
1217.664, 7.623047
1218.146, 7.283081
1218.628, 7.614258
1219.110, 8.539917
1219.592, 9.804932
1220.075, 11.30286
1220.557, 12.94983
1221.039, 14.50488
1221.521, 14.58179
1222.003, 12.32031
1222.485, 10.39856
1222.967, 12.79211
1223.449, 15.69238
1223.932, 14.66394
1224.414, 11.49048
1224.896, 7.394775
1225.378, 3.694336
1225.860, 2.351929
1226.342, 3.351929
1226.824, 4.167603
1227.306, 4.083130
1227.788, 3.315552
1228.271, 0.1256100
1228.753, 1.373047
1229.235, 3.125000
1229.717, 7.513428
1230.199, 6.012939
1230.681, 1.482666
1231.163, 1.037354
1231.645, 1.551025
1232.127, 4.6509001E-02
1232.610, 4.897339
1233.092, 7.335571
1233.574, 6.348389
1234.056, 5.051880
1234.538, 4.209351
1235.020, 4.184448
1235.502, 5.415894
1235.984, 6.864258
1236.467, 6.625488
1236.949, 5.100586
1237.431, 3.757568
1237.913, 2.664429
1238.395, 2.216797
1238.877, 2.341309
1239.359, 2.481567
1239.841, 2.489502
1240.323, 2.710327
1240.806, 3.334473
1241.288, 4.234985
1241.770, 5.877808
1242.252, 7.102295
1242.734, 5.979248
1243.216, 4.361450
1243.698, 5.041260
1244.180, 6.957642
1244.662, 7.358154
1245.145, 5.863403
1245.627, 4.233032
1246.109, 2.330078
1246.591, 1.351196
1247.073, 2.951904
1247.555, 3.708252
1248.037, 1.780640
1248.519, 0.5528560
1249.002, 2.154785
1249.484, 2.659546
1249.966, 1.282715
1250.448, 1.756958
1250.930, 2.875977
1251.412, 1.833984
1251.894, 1.403931
1252.376, 1.784912
1252.859, 3.151855
1253.341, 5.540771
1253.823, 7.796631
1254.305, 9.068970
1254.787, 9.662354
1255.269, 9.885864
1255.751, 9.232666
1256.233, 7.314209
1256.715, 5.031128
1257.198, 4.580200
1257.680, 6.349854
1258.162, 8.346802
1258.644, 9.756836
1259.126, 9.683716
1259.608, 6.991943
1260.090, 5.812256
1260.572, 10.51489
1261.054, 14.06152
1261.537, 11.67126
1262.019, 8.326538
1262.501, 7.832764
1262.983, 8.862671
1263.465, 9.410156
1263.947, 9.493408
1264.429, 9.314819
1264.911, 8.777344
1265.394, 8.658325
1265.876, 8.189941
1266.358, 6.313965
1266.840, 4.062378
1267.322, 1.783325
1267.804, 0.4580080
1268.286, 0.4857180
1268.768, 2.468750
1269.250, 5.068726
1269.733, 5.021118
1270.215, 3.421875
1270.697, 2.160400
1271.179, 1.726196
1271.661, 4.404541
1272.143, 9.276123
1272.625, 11.06482
1273.107, 7.837646
1273.589, 4.668091
1274.072, 4.562988
1274.554, 5.452148
1275.036, 6.596558
1275.518, 7.303101
1276.000, 8.806763
1276.482, 9.378540
1276.964, 6.227661
1277.446, 1.479980
1277.929, 5.5907998E-02
1278.411, 2.099976
1278.893, 2.570068
1279.375, 0.7779540
1279.857, 3.2104000E-02
1280.339, 0.2541500
1280.821, 0.8319090
1281.303, 0.2493900
1281.786, 2.8080000E-03
1282.268, 0.0000000E+00
##END=



